0.185250067,0.714652585,0.005624686,0.094472662
0.185267436,0.714642612,0.005614543,0.09447541
0.185284917,0.71463242,0.00560444,0.094478223
0.185302508,0.71462201,0.005594378,0.094481104
0.185320208,0.714611381,0.005584356,0.094484056
0.185338015,0.71460053,0.005574374,0.094487082
0.185355927,0.714589458,0.005564431,0.094490184
0.185373944,0.714578163,0.005554527,0.094493366
0.185392064,0.714566644,0.005544662,0.09449663
0.185410286,0.7145549,0.005534836,0.094499979
0.185428607,0.714542928,0.005525048,0.094503417
0.185447026,0.714530728,0.005515299,0.094506947
0.185465542,0.714518298,0.005505588,0.094510572
0.185484154,0.714505637,0.005495914,0.094514295
0.18550286,0.714492743,0.005486278,0.094518119
0.185521659,0.714479615,0.005476677,0.094522049
0.18554055,0.71446625,0.005467113,0.094526086
0.185559533,0.714452649,0.005457584,0.094530234
0.185578605,0.71443881,0.005448089,0.094534496
0.185597766,0.714424732,0.005438628,0.094538873
0.185617015,0.714410415,0.005429201,0.094543369
0.18563635,0.714395856,0.005419808,0.094547986
0.185655771,0.714381055,0.005410448,0.094552726
0.185675276,0.71436601,0.005401123,0.094557591
0.185694866,0.714350719,0.005391832,0.094562584
0.185714539,0.71433518,0.005382575,0.094567705
0.185734295,0.714319394,0.005373354,0.094572957
0.185754132,0.714303358,0.005364169,0.09457834
0.185774051,0.714287075,0.005355019,0.094583856
0.185794048,0.714270542,0.005345905,0.094589504
0.185814125,0.714253761,0.005336828,0.094595287
0.18583428,0.714236731,0.005327786,0.094601203
0.185854512,0.714219454,0.00531878,0.094607254
0.18587482,0.714201929,0.005309811,0.09461344
0.185895204,0.714184156,0.005300878,0.094619763
0.185915662,0.714166135,0.005291982,0.094626221
0.185936194,0.714147868,0.005283122,0.094632817
0.185956798,0.714129354,0.005274299,0.094639549
0.185977475,0.714110594,0.005265512,0.09464642
0.185998222,0.714091587,0.005256762,0.094653428
0.186019039,0.714072335,0.00524805,0.094660575
0.186039925,0.714052837,0.005239375,0.094667862
0.186060879,0.714033093,0.005230739,0.09467529
0.186081898,0.714013101,0.00522214,0.094682862
0.18610298,0.71399286,0.00521358,0.094690579
0.186124125,0.71397237,0.005205059,0.094698446
0.186145329,0.71395163,0.005196577,0.094706464
0.186166592,0.713930637,0.005188134,0.094714637
0.186187911,0.713909391,0.00517973,0.094722969
0.186209284,0.713887889,0.005171364,0.094731462
0.186230711,0.713866131,0.005163037,0.094740121
0.18625219,0.713844113,0.005154748,0.094748949
0.186273718,0.713821836,0.005146498,0.094757949
0.186295293,0.713799297,0.005138285,0.094767125
0.186316915,0.713776496,0.005130109,0.09477648
0.186338582,0.713753432,0.005121971,0.094786016
0.186360291,0.713730101,0.00511387,0.094795737
0.186382042,0.713706504,0.005105807,0.094805646
0.186403834,0.713682638,0.005097782,0.094815746
0.186425663,0.713658502,0.005089795,0.09482604
0.186447527,0.713634095,0.005081846,0.094836532
0.186469424,0.713609415,0.005073935,0.094847225
0.186491352,0.713584463,0.005066063,0.094858122
0.186513308,0.713559236,0.005058229,0.094869227
0.186535289,0.713533736,0.005050433,0.094880542
0.186557292,0.71350796,0.005042677,0.094892072
0.186579313,0.71348191,0.005034958,0.094903819
0.18660135,0.713455585,0.005027278,0.094915788
0.186623398,0.713428985,0.005019635,0.094927981
0.186645455,0.713402111,0.005012031,0.094940403
0.186667518,0.713374963,0.005004464,0.094953055
0.186689582,0.71334754,0.004996935,0.094965943
0.186711645,0.713319843,0.004989444,0.094979068
0.186733704,0.713291871,0.00498199,0.094992435
0.186755755,0.713263625,0.004974575,0.095006045
0.186777795,0.713235105,0.004967198,0.095019902
0.18679982,0.713206312,0.004959859,0.095034009
0.186821827,0.713177245,0.004952559,0.095048369
0.186843812,0.713147906,0.004945297,0.095062985
0.186865772,0.713118295,0.004938074,0.095077858
0.186887703,0.713088414,0.00493089,0.095092992
0.186909603,0.713058263,0.004923744,0.095108389
0.186931468,0.713027843,0.004916637,0.095124051
0.186953296,0.712997156,0.004909568,0.095139981
0.186975083,0.712966202,0.004902536,0.095156179
0.186996826,0.712934983,0.004895542,0.095172648
0.187018523,0.712903503,0.004888585,0.095189389
0.18704017,0.712871761,0.004881664,0.095206404
0.187061766,0.712839761,0.004874779,0.095223695
0.187083306,0.712807503,0.004867929,0.095241261
0.187104789,0.71277499,0.004861116,0.095259105
0.187126212,0.712742224,0.004854337,0.095277227
0.187147572,0.712709207,0.004847594,0.095295626
0.187168868,0.712675942,0.004840887,0.095314303
0.187190097,0.712642432,0.004834215,0.095333256
0.187211255,0.712608679,0.004827579,0.095352486
0.187232342,0.712574687,0.00482098,0.095371991
0.187253355,0.712540458,0.004814417,0.09539177
0.187274291,0.712505995,0.004807891,0.095411823
0.187295148,0.7124713,0.004801403,0.095432149
0.187315926,0.712436376,0.004794953,0.095452746
0.18733662,0.712401225,0.004788542,0.095473613
0.187357231,0.712365848,0.004782172,0.095494748
0.187377757,0.712330249,0.004775845,0.09551615
0.187398194,0.712294427,0.004769563,0.095537816
0.187418542,0.712258383,0.004763329,0.095559745
0.187438798,0.712222118,0.004757147,0.095581936
0.187458962,0.712185632,0.004751021,0.095604385
0.18747903,0.712148922,0.004744955,0.095627093
0.187499002,0.712111988,0.004738952,0.095650059
0.187518875,0.712074827,0.004733017,0.095673282
0.187538647,0.712037437,0.004727154,0.095696762
0.187558317,0.711999815,0.004721367,0.095720502
0.187577882,0.711961959,0.004715659,0.095744501
0.18759734,0.711923864,0.004710035,0.095768761
0.18761669,0.711885529,0.004704499,0.095793283
0.187635928,0.711846946,0.004699056,0.09581807
0.187655051,0.71180811,0.004693715,0.095843124
0.187674056,0.71176901,0.004688485,0.095868448
0.187692937,0.711729636,0.00468338,0.095894046
0.187711689,0.711689975,0.004678415,0.095919921
0.187730307,0.711650012,0.004673606,0.095946075
0.187748785,0.711609733,0.00466897,0.095972513
0.187767117,0.711569123,0.004664525,0.095999236
0.187785297,0.711528166,0.004660288,0.096026249
0.18780332,0.711486846,0.00465628,0.096053554
0.187821179,0.711445145,0.004652521,0.096081155
0.187838864,0.711403043,0.004649038,0.096109056
0.187856366,0.711360515,0.00464586,0.096137259
0.187873674,0.711317532,0.004643024,0.09616577
0.187890776,0.711274063,0.00464057,0.09619459
0.187907661,0.711230077,0.004638539,0.096223724
0.187924316,0.711185538,0.004636973,0.096253173
0.18794073,0.711140415,0.004635916,0.096282939
0.187956892,0.711094674,0.004635409,0.096313024
0.187972789,0.711048284,0.004635497,0.096343431
0.18798841,0.711001212,0.004636219,0.096374159
0.188003741,0.710953429,0.004637621,0.096405209
0.188018772,0.710904901,0.004639745,0.096436583
0.188033488,0.710855596,0.004642633,0.096468282
0.188047877,0.710805483,0.004646331,0.096500309
0.188061927,0.710754527,0.004650882,0.096532665
0.188075624,0.710702695,0.004656329,0.096565352
0.188088956,0.710649953,0.004662718,0.096598373
0.188101909,0.710596266,0.004670094,0.09663173
0.188114471,0.710541598,0.004678504,0.096665427
0.188126627,0.710485909,0.004687995,0.096699469
0.188138363,0.710429159,0.00469862,0.096733858
0.188149662,0.710371305,0.004710431,0.096768602
0.188160509,0.710312302,0.004723486,0.096803704
0.188170887,0.710252104,0.00473784,0.09683917
0.188180778,0.710190666,0.004753553,0.096875004
0.188190166,0.710127941,0.00477068,0.096911213
0.188199034,0.710063884,0.004789282,0.0969478
0.188207364,0.709998446,0.004809418,0.096984771
0.188215139,0.709931579,0.004831152,0.09702213
0.188222338,0.709863229,0.004854551,0.097059882
0.188228939,0.709793341,0.004879689,0.097098031
0.188234921,0.709721855,0.004906641,0.097136583
0.188240257,0.709648713,0.004935488,0.097175541
0.188244924,0.709573855,0.004966309,0.097214911
0.188248897,0.709497222,0.004999184,0.097254698
0.188252151,0.709418754,0.005034191,0.097294904
0.18825466,0.709338396,0.005071409,0.097335535
0.1882564,0.709256091,0.005110916,0.097376593
0.188257344,0.709171785,0.00515279,0.097418082
0.188257465,0.709085425,0.005197106,0.097460003
0.188256737,0.70899696,0.005243942,0.097502361
0.188255133,0.708906337,0.005293373,0.097545157
0.188252626,0.708813507,0.005345473,0.097588394
0.188249193,0.708718418,0.005400316,0.097632073
0.188244807,0.708621022,0.005457975,0.097676197
0.188239445,0.70852127,0.005518519,0.097720766
0.188233083,0.708419115,0.005582019,0.097765783
0.1882257,0.70831451,0.005648542,0.097811248
0.188217273,0.708207411,0.005718156,0.097857161
0.18820778,0.708097773,0.005790925,0.097903522
0.1881972,0.707985553,0.005866914,0.097950333
0.188185512,0.707870711,0.005946185,0.097997592
0.188172696,0.707753205,0.006028798,0.098045301
0.188158729,0.707632996,0.006114815,0.098093459
0.188143592,0.707510046,0.006204296,0.098142066
0.188127263,0.707384315,0.006297299,0.098191123
0.188109722,0.707255767,0.006393883,0.098240628
0.18809095,0.707124363,0.006494105,0.098290582
0.188070926,0.706990068,0.00659802,0.098340986
0.188049632,0.706852848,0.006705681,0.098391839
0.188027048,0.706712669,0.006817144,0.098443139
0.188003154,0.706569494,0.006932463,0.098494889
0.187977929,0.70642329,0.007051694,0.098547087
0.187951354,0.706274018,0.007174891,0.098599736
0.187923409,0.706121643,0.007302111,0.098652837
0.187894074,0.705966127,0.007433408,0.098706391
0.187863331,0.705807434,0.007568836,0.098760399
0.187831161,0.705645528,0.007708449,0.098814862
0.187797549,0.705480374,0.007852298,0.098869779
0.187762477,0.705311938,0.008000434,0.098925151
0.18772593,0.705140187,0.008152906,0.098980977
0.187687891,0.70496509,0.008309761,0.099037258
0.187648347,0.704786614,0.008471048,0.099093991
0.187607281,0.704604729,0.008636813,0.099151177
0.187564679,0.704419404,0.008807102,0.099208815
0.187520527,0.704230608,0.008981961,0.099266904
0.187474811,0.704038311,0.009161435,0.099325443
0.187427516,0.703842482,0.009345569,0.099384432
0.18737863,0.703643093,0.009534406,0.09944387
0.18732814,0.703440116,0.009727987,0.099503756
0.187276033,0.703233525,0.009926353,0.099564088
0.187222297,0.703023296,0.010129543,0.099624865
0.187166918,0.702809406,0.010337594,0.099686082
0.187109888,0.70259183,0.010550544,0.099747738
0.187051194,0.702370547,0.010768429,0.09980983
0.186990828,0.702145533,0.010991285,0.099872353
0.186928781,0.701916767,0.011219145,0.099935306
0.186865045,0.701684228,0.011452042,0.099998685
0.186799613,0.701447897,0.011690003,0.100062488
0.186732477,0.701207756,0.011933057,0.10012671
0.186663633,0.700963789,0.01218123,0.100191348
0.186593073,0.70071598,0.012434548,0.100256399
0.186520794,0.700464313,0.012693034,0.100321859
0.186446788,0.700208774,0.012956715,0.100387722
0.186371051,0.699949348,0.013225614,0.100453986
0.186293578,0.699686023,0.013499754,0.100520646
0.186214361,0.699418785,0.013779157,0.100587697
0.186133396,0.699147623,0.014063841,0.100655139
0.186050676,0.698872525,0.014353828,0.100722972
0.185966195,0.698593473,0.014649133,0.100791199
0.185879948,0.698310452,0.014949772,0.100859828
0.185791929,0.698023443,0.01525576,0.100928868
0.185702134,0.697732429,0.015567109,0.100998328
0.185610559,0.69743739,0.015883832,0.101068218
0.1855172,0.69713831,0.01620594,0.10113855
0.185422055,0.696835168,0.01653344,0.101209336
0.185325121,0.696527948,0.016866341,0.10128059
0.185226396,0.696216632,0.017204646,0.101352325
0.185125878,0.695901206,0.017548359,0.101424557
0.185023564,0.695581655,0.017897483,0.101497299
0.184919453,0.695257968,0.018252017,0.101570563
0.184813543,0.694930134,0.018611962,0.101644361
0.184705832,0.694598142,0.018977319,0.101718708
0.184596317,0.694261979,0.019348088,0.101793616
0.184484995,0.693921634,0.019724269,0.101869103
0.18437186,0.693577094,0.020105862,0.101945184
0.18425691,0.693228348,0.020492866,0.102021877
0.184140138,0.692875387,0.020885276,0.102099198
0.184021542,0.692518203,0.021283088,0.102177167
0.183901117,0.692156785,0.021686296,0.102255802
0.183778859,0.691791124,0.022094893,0.102335124
0.183654762,0.691421208,0.022508873,0.102415156
0.183528822,0.691047024,0.022928231,0.102495923
0.18340103,0.69066856,0.023352959,0.10257745
0.18327138,0.690285806,0.02378305,0.102659763
0.183139865,0.689898749,0.024218496,0.10274289
0.183006476,0.689507381,0.024659285,0.102826858
0.182871209,0.689111692,0.025105406,0.102911694
0.182734057,0.688711675,0.025556844,0.102997424
0.182595016,0.688307323,0.026013586,0.103084075
0.182454082,0.687898629,0.026475616,0.103171673
0.182311253,0.687485587,0.026942917,0.103260243
0.182166525,0.687068191,0.027415473,0.10334981
0.182019897,0.686646437,0.027893269,0.103440397
0.181871366,0.68622032,0.028376287,0.103532027
0.181720932,0.685789838,0.028864508,0.103624721
0.181568595,0.685354988,0.029357914,0.103718503
0.181414355,0.684915767,0.029856483,0.103813395
0.181258216,0.684472174,0.030360191,0.103909419
0.18110018,0.68402421,0.030869014,0.104006596
0.180940251,0.683571876,0.031382925,0.104104948
0.180778431,0.683115173,0.031901897,0.104204498
0.180614726,0.682654103,0.032425903,0.104305268
0.180449139,0.682188669,0.032954913,0.104407279
0.180281674,0.681718874,0.033488898,0.104510554
0.180112338,0.681244721,0.03402783,0.104615112
0.179941135,0.680766212,0.034571678,0.104720974
0.179768075,0.68028335,0.035120412,0.104828163
0.179593164,0.679796136,0.035673999,0.104936701
0.179416409,0.679304567,0.03623241,0.105046614
0.179237817,0.678808644,0.036795614,0.105157926
0.179057395,0.678308362,0.03736358,0.105270662
0.17887515,0.677803722,0.03793628,0.105384848
0.178691088,0.677294722,0.038513683,0.105500507
0.178505217,0.676781363,0.039095755,0.105617665
0.178317544,0.676263646,0.039682465,0.105736345
0.178128076,0.67574157,0.040273779,0.105856576
0.177936821,0.675215136,0.040869661,0.105978382
0.177743787,0.674684347,0.041470075,0.106101791
0.177548984,0.674149203,0.042074986,0.106226828
0.177352419,0.673609709,0.042684354,0.106353518
0.177154102,0.673065872,0.043298139,0.106481886
0.176954042,0.672517699,0.043916302,0.106611956
0.176752249,0.671965197,0.044538801,0.106743752
0.176548733,0.671408375,0.045165595,0.106877297
0.176343505,0.670847241,0.045796641,0.107012612
0.176136576,0.670281805,0.046431898,0.107149721
0.175927957,0.669712077,0.047071321,0.107288644
0.175717661,0.669138067,0.047714866,0.107429405
0.175505699,0.668559788,0.048362488,0.107572026
0.175292083,0.667977249,0.049014139,0.107716528
0.175076827,0.667390463,0.049669774,0.107862936
0.174859943,0.666799444,0.050329344,0.108011269
0.174641444,0.666204204,0.050992803,0.108161549
0.174421343,0.66560476,0.051660099,0.108313798
0.174199654,0.665001127,0.052331183,0.108468035
0.17397639,0.664393324,0.053006004,0.108624282
0.173751565,0.663781366,0.05368451,0.108782558
0.173525195,0.663165273,0.054366649,0.108942884
0.173297293,0.662545063,0.055052365,0.109105278
0.173067877,0.661920759,0.055741606,0.109269758
0.172836959,0.661292384,0.056434315,0.109436342
0.172604556,0.66065996,0.057130442,0.109605043
0.172370682,0.66002351,0.057829933,0.109775875
0.172135353,0.659383059,0.058532738,0.10994885
0.171898586,0.658738628,0.059238804,0.110123982
0.171660398,0.658090238,0.059948077,0.110301286
0.171420807,0.65743791,0.060660504,0.110480779
0.171179829,0.656781665,0.06137603,0.110662476
0.170937484,0.656121524,0.062094599,0.110846393
0.170693792,0.655457508,0.062816157,0.111032543
0.170448771,0.65478964,0.063540647,0.111220942
0.170202443,0.654117943,0.064268012,0.111411601
0.169954827,0.65344244,0.064998196,0.111604536
0.169705944,0.652763155,0.065731142,0.111799759
0.169455815,0.652080113,0.066466793,0.11199728
0.169204459,0.651393339,0.067205092,0.11219711
0.168951899,0.650702859,0.067945983,0.112399259
0.168698156,0.650008699,0.068689408,0.112603737
0.168443251,0.649310885,0.06943531,0.112810553
0.168187207,0.648609445,0.070183631,0.113019717
0.167930045,0.647904405,0.070934314,0.113231236
0.167671785,0.647195791,0.071687305,0.113445119
0.167412448,0.646483626,0.072442553,0.113661372
0.167152054,0.645767933,0.073200011,0.113880002
0.166890624,0.645048732,0.07395963,0.114101014
0.166628178,0.644326044,0.074721366,0.114324412
0.166364738,0.643599888,0.075485175,0.114550199
0.166100324,0.642870279,0.07625102,0.114778377
0.165834955,0.642137231,0.077018867,0.115008948
0.165568651,0.641400754,0.077788685,0.115241911
0.165301432,0.64066086,0.078560443,0.115477265
0.165033317,0.639917565,0.079334111,0.115715007
0.164764328,0.639170884,0.080109655,0.115955132
0.164494483,0.638420836,0.080887042,0.116197639
0.164223801,0.637667439,0.081666235,0.116442525
0.163952301,0.636910713,0.082447198,0.116689788
0.16368,0.636150675,0.083229897,0.116939428
0.163406918,0.635387344,0.084014295,0.117191442
0.163133073,0.634620739,0.084800357,0.117445831
0.162858482,0.633850879,0.085588045,0.117702593
0.162583163,0.633077784,0.086377324,0.117961729
0.162307133,0.632301476,0.087168155,0.118223236
0.162030409,0.63152198,0.087960501,0.11848711
0.161753005,0.63073932,0.088754329,0.118753346
0.161474937,0.629953522,0.089549606,0.119021936
0.161196218,0.629164609,0.090346299,0.119292874
0.160916864,0.628372608,0.09114438,0.119566148
0.160636888,0.627577544,0.091943817,0.119841751
0.160356309,0.626779441,0.09274458,0.12011967
0.160075143,0.625978329,0.093546634,0.120399893
0.159793411,0.625174235,0.094349947,0.120682407
0.159511132,0.624367192,0.095154482,0.120967194
0.159228327,0.623557233,0.095960203,0.121254238
0.158945015,0.622744391,0.096767076,0.121543518
0.158661217,0.621928696,0.097575071,0.121835015
0.158376953,0.621110177,0.098384164,0.122128706
0.158092243,0.620288859,0.099194332,0.122424566
0.157807107,0.619464769,0.100005551,0.122722573
0.157521567,0.618637932,0.100817799,0.123022702
0.157235646,0.617808379,0.101631048,0.123324928
0.156949364,0.61697614,0.102445271,0.123629226
0.156662744,0.616141245,0.10326044,0.123935571
0.156375808,0.615303727,0.104076526,0.124243938
0.156088577,0.61446362,0.104893501,0.124554301
0.155801072,0.613620956,0.105711337,0.124866634
0.155513314,0.612775769,0.106530006,0.125180911
0.155225326,0.611928092,0.107349479,0.125497104
0.154937128,0.61107796,0.108169726,0.125815187
0.154648742,0.610225411,0.108990715,0.126135131
0.154360193,0.609370483,0.109812414,0.12645691
0.154071501,0.608513215,0.110634791,0.126780493
0.153782689,0.607653645,0.111457813,0.127105853
0.153493779,0.606791814,0.112281449,0.127432958
0.153204789,0.60592776,0.113105672,0.127761779
0.152915737,0.60506152,0.113930458,0.128092284
0.15262664,0.604193131,0.114755785,0.128424444
0.152337512,0.603322628,0.115581634,0.128758225
0.15204837,0.602450046,0.116407988,0.129093596
0.151759228,0.601575413,0.117234836,0.129430523
0.151470099,0.600698757,0.118062171,0.129768974
0.151180998,0.599820102,0.118889987,0.130108913
0.150891937,0.598939474,0.11971828,0.130450308
0.150602931,0.5980569,0.120547046,0.130793123
0.150313995,0.597172405,0.121376276,0.131137324
0.150025143,0.596286019,0.122205963,0.131482875
0.149736391,0.595397768,0.123036099,0.131829743
0.149447755,0.594507681,0.123866672,0.132177893
0.149159249,0.593615785,0.124697674,0.132527292
0.148870888,0.592722108,0.125529095,0.132877909
0.148582688,0.591826678,0.126360922,0.133229712
0.148294662,0.590929524,0.127193144,0.133582671
0.148006824,0.590030675,0.128025745,0.133936756
0.128974961,0.596658978,0.094470223,0.179895837
0.129008457,0.59665567,0.094449551,0.179886322
0.129042214,0.596651932,0.094428975,0.179876878
0.129076237,0.596647761,0.094408498,0.179867504
0.129110529,0.596643153,0.094388119,0.179858199
0.129145095,0.596638106,0.094367838,0.179848961
0.12917994,0.596632615,0.094347655,0.17983979
0.129215066,0.59662668,0.094327571,0.179830683
0.12925048,0.596620296,0.094307584,0.179821641
0.129286184,0.596613461,0.094287694,0.179812662
0.129322181,0.596606171,0.094267901,0.179803746
0.129358477,0.596598424,0.094248205,0.179794893
0.129395074,0.596590214,0.094228607,0.179786104
0.129431976,0.596581537,0.094209107,0.17977738
0.129469187,0.596572386,0.094189706,0.179768721
0.12950671,0.596562757,0.094170403,0.179760129
0.129544549,0.596552643,0.094151202,0.179751606
0.129582706,0.596542041,0.094132101,0.179743152
0.129621184,0.596530943,0.094113104,0.17973477
0.129659986,0.596519344,0.09409421,0.17972646
0.129699115,0.596507238,0.094075422,0.179718225
0.129738574,0.596494616,0.094056742,0.179710068
0.129778366,0.596481473,0.094038171,0.17970199
0.129818493,0.5964678,0.094019712,0.179693996
0.129858956,0.59645359,0.094001365,0.179686089
0.129899758,0.596438837,0.093983133,0.179678272
0.129940901,0.596423534,0.093965017,0.179670548
0.129982387,0.596407675,0.093947018,0.17966292
0.130024217,0.596391251,0.09392914,0.179655392
0.130066393,0.596374257,0.093911383,0.179647968
0.130108917,0.596356684,0.093893748,0.179640651
0.130151791,0.596338526,0.093876238,0.179633446
0.130195016,0.596319777,0.093858852,0.179626356
0.130238593,0.59630043,0.093841591,0.179619386
0.130282525,0.596280479,0.093824457,0.179612539
0.130326813,0.59625992,0.093807449,0.179605819
0.130371457,0.596238746,0.093790567,0.179599231
0.130416458,0.596216951,0.093773813,0.179592778
0.130461819,0.596194531,0.093757186,0.179586463
0.130507541,0.596171482,0.093740686,0.179580291
0.130553623,0.596147799,0.093724313,0.179574264
0.130600069,0.59612348,0.093708068,0.179568384
0.130646879,0.596098521,0.093691948,0.179562652
0.130694053,0.596072919,0.093675955,0.179557073
0.130741592,0.596046672,0.093660089,0.179551647
0.130789497,0.596019776,0.093644349,0.179546379
0.130837767,0.595992229,0.093628735,0.179541269
0.130886401,0.595964028,0.093613249,0.179536322
0.1309354,0.595935171,0.093597891,0.179531539
0.130984761,0.595905656,0.09358266,0.179526922
0.131034485,0.595875484,0.093567557,0.179522475
0.13108457,0.595844651,0.093552581,0.179518198
0.131135017,0.595813157,0.093537732,0.179514093
0.131185825,0.595781001,0.093523011,0.179510162
0.131236995,0.595748181,0.093508418,0.179506406
0.131288525,0.595714697,0.093493953,0.179502825
0.131340415,0.595680549,0.093479615,0.179499421
0.131392666,0.595645735,0.093465405,0.179496194
0.131445275,0.595610258,0.093451322,0.179493144
0.131498242,0.595574118,0.093437367,0.179490272
0.131551564,0.595537317,0.09342354,0.179487578
0.131605241,0.595499857,0.093409839,0.179485062
0.131659271,0.595461738,0.093396266,0.179482725
0.13171365,0.595422964,0.09338282,0.179480566
0.131768378,0.595383536,0.0933695,0.179478586
0.13182345,0.595343458,0.093356308,0.179476784
0.131878863,0.595302734,0.093343242,0.179475161
0.131934616,0.595261365,0.093330302,0.179473716
0.131990704,0.595219357,0.09331749,0.17947245
0.132047124,0.595176712,0.093304803,0.179471361
0.132103872,0.595133434,0.093292243,0.17947045
0.132160947,0.595089528,0.09327981,0.179469715
0.132218343,0.595044996,0.093267504,0.179469157
0.132276057,0.594999844,0.093255326,0.179468773
0.132334086,0.594954075,0.093243276,0.179468562
0.132392426,0.594907696,0.093231356,0.179468522
0.132451072,0.594860709,0.093219568,0.179468651
0.132510019,0.59481312,0.093207913,0.179468947
0.132569264,0.594764933,0.093196393,0.17946941
0.132628801,0.594716152,0.093185011,0.179470036
0.132688626,0.594666781,0.093173767,0.179470826
0.132748734,0.594616825,0.093162664,0.179471777
0.13280912,0.594566289,0.093151703,0.179472887
0.13286978,0.59451518,0.093140885,0.179474155
0.132930709,0.594463502,0.093130213,0.179475577
0.1329919,0.59441126,0.093119686,0.179477153
0.133053351,0.594358461,0.093109308,0.179478881
0.133115054,0.594305108,0.093099078,0.179480759
0.133177007,0.594251208,0.093088999,0.179482786
0.133239203,0.594196766,0.093079072,0.179484959
0.13330164,0.594141788,0.093069296,0.179487276
0.133364312,0.59408628,0.093059674,0.179489734
0.133427215,0.59403025,0.093050205,0.179492331
0.133490345,0.593973702,0.093040891,0.179495062
0.133553698,0.593916644,0.093031733,0.179497925
0.13361727,0.593859081,0.093022732,0.179500916
0.133681058,0.593801018,0.093013892,0.179504032
0.133745058,0.593742461,0.093005213,0.179507268
0.133809266,0.593683416,0.092996698,0.17951062
0.13387368,0.593623888,0.092988349,0.179514083
0.133938296,0.593563882,0.092980169,0.179517654
0.13400311,0.593503403,0.09297216,0.179521328
0.134068119,0.593442455,0.092964327,0.1795251
0.134133319,0.593381043,0.092956672,0.179528966
0.134198708,0.59331917,0.092949201,0.179532921
0.134264283,0.593256839,0.092941917,0.179536961
0.13433004,0.593194057,0.092934823,0.17954108
0.134395976,0.593130827,0.092927924,0.179545274
0.134462087,0.593067154,0.092921222,0.179549537
0.134528369,0.593003044,0.092914722,0.179553865
0.134594819,0.592938499,0.092908426,0.179558256
0.134661431,0.592873522,0.092902339,0.179562707
0.134728202,0.592808114,0.092896467,0.179567216
0.134795127,0.592742278,0.092890814,0.179571781
0.134862201,0.592676014,0.092885385,0.1795764
0.134929421,0.592609325,0.092880184,0.17958107
0.13499678,0.592542212,0.092875217,0.179585792
0.135064274,0.592474676,0.092870488,0.179590561
0.135131899,0.59240672,0.092866002,0.179595378
0.135199649,0.592338346,0.092861766,0.17960024
0.135267521,0.592269553,0.092857782,0.179605144
0.135335509,0.592200346,0.092854056,0.179610089
0.135403609,0.592130726,0.092850592,0.179615072
0.135471818,0.592060697,0.092847395,0.17962009
0.13554013,0.591990262,0.092844468,0.17962514
0.135608542,0.591919425,0.092841815,0.179630219
0.135677049,0.59184819,0.092839439,0.179635322
0.135745647,0.591776561,0.092837344,0.179640448
0.13581433,0.59170454,0.092835535,0.179645595
0.135883095,0.591632129,0.092834015,0.17965076
0.135951936,0.59155933,0.09283279,0.179655943
0.136020849,0.591486146,0.092831863,0.179661141
0.13608983,0.591412579,0.092831239,0.179666352
0.136158873,0.591338632,0.092830921,0.179671574
0.136227974,0.591264308,0.092830913,0.179676805
0.136297129,0.591189609,0.09283122,0.179682042
0.136366334,0.591114538,0.092831845,0.179687284
0.136435583,0.591039097,0.092832792,0.179692528
0.136504873,0.590963287,0.092834065,0.179697775
0.136574199,0.590887113,0.092835668,0.17970302
0.136643555,0.590810578,0.092837602,0.179708264
0.136712937,0.590733686,0.092839873,0.179713504
0.13678234,0.590656441,0.092842482,0.179718737
0.136851757,0.590578847,0.092845434,0.179723962
0.136921185,0.590500909,0.092848732,0.179729174
0.136990617,0.59042263,0.09285238,0.179734373
0.137060049,0.590344015,0.092856382,0.179739554
0.137129474,0.590265068,0.092860744,0.179744714
0.137198888,0.590185793,0.09286547,0.179749849
0.137268285,0.590106195,0.092870564,0.179754955
0.13733766,0.590026278,0.092876033,0.179760029
0.137407006,0.589946047,0.092881883,0.179765064
0.137476318,0.589865506,0.092888118,0.179770058
0.13754559,0.589784657,0.092894745,0.179775007
0.137614818,0.589703507,0.092901771,0.179779905
0.137683996,0.589622057,0.092909199,0.179784747
0.137753119,0.589540314,0.092917036,0.17978953
0.137822183,0.589458282,0.092925287,0.179794248
0.137891182,0.589375966,0.092933955,0.179798898
0.137960111,0.58929337,0.092943045,0.179803473
0.138028967,0.589210501,0.092952561,0.179807971
0.138097744,0.589127362,0.092962507,0.179812387
0.138166437,0.589043958,0.092972887,0.179816717
0.138235043,0.588960295,0.092983705,0.179820957
0.138303555,0.588876378,0.092994965,0.179825102
0.138371969,0.588792212,0.093006669,0.17982915
0.138440279,0.588707803,0.093018821,0.179833097
0.13850848,0.588623157,0.093031424,0.179836939
0.138576566,0.588538279,0.09304448,0.179840675
0.138644531,0.588453175,0.093057992,0.179844302
0.13871237,0.588367848,0.093071964,0.179847817
0.138780077,0.588282306,0.093086398,0.179851219
0.138847646,0.588196553,0.093101296,0.179854505
0.138915069,0.588110595,0.093116662,0.179857673
0.138982342,0.58802444,0.093132499,0.17986072
0.139049456,0.587938092,0.093148809,0.179863643
0.139116406,0.587851558,0.093165597,0.179866438
0.139183186,0.587764844,0.093182866,0.179869103
0.139249791,0.587677954,0.09320062,0.179871635
0.139316214,0.587590892,0.093218864,0.179874031
0.13938245,0.58750366,0.093237603,0.179876287
0.139448494,0.587416263,0.093256843,0.179878401
0.13951434,0.587328702,0.093276589,0.17988037
0.139579982,0.58724098,0.093296847,0.179882191
0.139645418,0.587153099,0.093317622,0.179883862
0.139710642,0.587065059,0.093338919,0.17988538
0.13977565,0.586976862,0.093360744,0.179886743
0.13984044,0.586888509,0.093383102,0.17988795
0.139905006,0.586799999,0.093405996,0.179889
0.139969345,0.586711333,0.093429432,0.179889891
0.140033453,0.586622512,0.093453413,0.179890622
0.140097327,0.586533535,0.093477944,0.179891194
0.140160962,0.586444404,0.093503028,0.179891606
0.140224355,0.586355119,0.09352867,0.179891856
0.140287503,0.58626568,0.093554872,0.179891946
0.140350401,0.586176087,0.093581638,0.179891874
0.140413046,0.58608634,0.093608973,0.179891641
0.140475435,0.58599644,0.093636878,0.179891248
0.140537563,0.585906388,0.093665356,0.179890693
0.140599428,0.585816185,0.093694411,0.179889976
0.140661026,0.585725833,0.093724045,0.179889096
0.140722353,0.585635335,0.093754259,0.179888053
0.140783405,0.585544693,0.093785055,0.179886847
0.140844179,0.585453907,0.093816436,0.179885478
0.140904672,0.58536298,0.093848403,0.179883945
0.140964879,0.585271914,0.093880956,0.17988225
0.141024799,0.58518071,0.093914098,0.179880393
0.141084428,0.585089372,0.093947827,0.179878372
0.141143763,0.584997902,0.093982145,0.179876191
0.141202799,0.584906301,0.094017051,0.179873849
0.141261534,0.584814571,0.094052545,0.17987135
0.141319964,0.584722716,0.094088627,0.179868694
0.141378086,0.584630735,0.094125295,0.179865884
0.141435896,0.584538633,0.094162549,0.179862921
0.141493393,0.584446412,0.094200389,0.179859807
0.141550572,0.584354074,0.094238811,0.179856542
0.141607432,0.584261624,0.094277817,0.179853127
0.141663969,0.584169066,0.094317403,0.179849563
0.14172018,0.584076401,0.094357568,0.17984585
0.141776064,0.583983634,0.094398312,0.17984199
0.141831618,0.583890766,0.094439633,0.179837983
0.141886839,0.5837978,0.094481531,0.17983383
0.141941726,0.583704736,0.094524006,0.179829532
0.141996276,0.583611576,0.094567059,0.179825089
0.142050487,0.583518321,0.09461069,0.179820502
0.142104358,0.583424971,0.094654901,0.17981577
0.142157886,0.583331529,0.094699694,0.179810891
0.142211069,0.583237993,0.094745074,0.179805864
0.142263905,0.583144362,0.094791047,0.179800687
0.14231639,0.583050634,0.094837618,0.179795358
0.142368524,0.582956807,0.094884795,0.179789874
0.142420304,0.582862882,0.094932581,0.179784233
0.142471728,0.582768855,0.094980984,0.179778432
0.142522795,0.582674728,0.095030008,0.179772469
0.142573502,0.5825805,0.095079658,0.179766341
0.142623847,0.582486169,0.09512994,0.179760044
0.142673828,0.582391736,0.095180858,0.179753577
0.142723444,0.5822972,0.095232419,0.179746937
0.142772692,0.582202561,0.095284626,0.179740121
0.14282157,0.582107818,0.095337485,0.179733127
0.142870077,0.582012972,0.095391,0.179725951
0.14291821,0.581918024,0.095445174,0.179718592
0.142965968,0.581822974,0.095500012,0.179711045
0.14301335,0.581727823,0.095555518,0.17970331
0.143060352,0.581632571,0.095611695,0.179695383
0.143106973,0.581537217,0.095668547,0.179687263
0.14315321,0.581441763,0.095726078,0.179678948
0.143199063,0.581346208,0.095784293,0.179670437
0.143244528,0.581250552,0.095843193,0.179661727
0.143289606,0.581154796,0.095902783,0.179652815
0.143334293,0.581058942,0.095963065,0.1796437
0.143378588,0.58096299,0.096024044,0.179634379
0.143422489,0.58086694,0.096085721,0.17962485
0.143465995,0.580770794,0.096148101,0.179615111
0.143509104,0.580674551,0.096211185,0.17960516
0.143551815,0.580578213,0.096274976,0.179594996
0.143594126,0.580481781,0.096339476,0.179584617
0.143636037,0.580385257,0.096404684,0.179574022
0.143677545,0.580288642,0.096470603,0.17956321
0.143718649,0.580191937,0.096537233,0.179552181
0.143759347,0.580095142,0.096604575,0.179540935
0.143799638,0.579998258,0.096672631,0.179529473
0.143839519,0.579901287,0.0967414,0.179517794
0.14387899,0.579804229,0.096810883,0.179505898
0.14391805,0.579707085,0.096881081,0.179493785
0.143956696,0.579609857,0.096951992,0.179481455
0.143994929,0.579512547,0.097023617,0.179468907
0.144032746,0.579415157,0.097095954,0.179456142
0.144070147,0.579317688,0.097169004,0.17944316
0.14410713,0.579220142,0.097242766,0.179429961
0.144143695,0.579122521,0.097317239,0.179416546
0.144179839,0.579024825,0.097392423,0.179402914
0.144215563,0.578927055,0.097468317,0.179389065
0.144250864,0.578829212,0.097544923,0.179375001
0.144285742,0.578731298,0.097622239,0.17936072
0.144320196,0.578633315,0.097700266,0.179346224
0.144354223,0.578535262,0.097779003,0.179331513
0.144387823,0.578437142,0.097858448,0.179316587
0.144420994,0.578338955,0.097938602,0.179301449
0.144453737,0.578240702,0.098019464,0.179286098
0.144486048,0.578142384,0.098101031,0.179270538
0.144517927,0.578044002,0.098183302,0.179254768
0.144549373,0.577945559,0.098266277,0.179238791
0.144580384,0.577847055,0.098349954,0.179222608
0.144610958,0.577748493,0.098434331,0.179206218
0.144641095,0.577649873,0.098519407,0.179189625
0.144670793,0.577551198,0.098605181,0.179172827
0.144700051,0.577452468,0.098691654,0.179155827
0.144728868,0.577353685,0.098778822,0.179138624
0.144757243,0.577254851,0.098866685,0.17912122
0.144785175,0.57715597,0.098955241,0.179103614
0.144812662,0.577057044,0.099044488,0.179085806
0.144839703,0.576958076,0.099134424,0.179067797
0.144866298,0.57685907,0.099225046,0.179049587
0.144892444,0.576760029,0.099316352,0.179031175
0.144918142,0.576660956,0.09940834,0.179012562
0.144943389,0.576561854,0.099501009,0.178993749
0.144968184,0.576462727,0.099594354,0.178974734
0.144992528,0.576363581,0.099688374,0.178955518
0.145016417,0.576264419,0.099783065,0.178936099
0.145039853,0.576165248,0.099878424,0.178916476
0.145062833,0.576066072,0.099974447,0.178896648
0.145085358,0.575966897,0.10007113,0.178876616
0.145107426,0.575867726,0.100168471,0.178856378
0.145129038,0.575768564,0.100266464,0.178835933
0.145150195,0.575669416,0.100365107,0.178815282
0.145170896,0.575570286,0.100464395,0.178794423
0.145191141,0.57547118,0.100564324,0.178773355
0.145210931,0.575372101,0.100664889,0.178752079
0.145230267,0.575273056,0.100766085,0.178730592
0.145249148,0.575174048,0.100867911,0.178708893
0.145267574,0.575075083,0.100970362,0.178686981
0.145285545,0.574976164,0.101073436,0.178664854
0.14530306,0.574877295,0.101177133,0.178642512
0.145320119,0.574778479,0.10128145,0.178619952
0.14533672,0.574679721,0.101386387,0.178597172
0.145352863,0.574581021,0.101491946,0.17857417
0.145368546,0.574482383,0.101598127,0.178550944
0.145383769,0.574383806,0.101704934,0.178527491
0.145398529,0.57428529,0.101812372,0.178503809
0.145412826,0.574186835,0.101920444,0.178479896
0.145426657,0.574088438,0.102029154,0.178455751
0.145440021,0.573990101,0.102138507,0.178431372
0.145452917,0.573891822,0.102248505,0.178406757
0.145465343,0.573793601,0.102359152,0.178381904
0.145477299,0.573695438,0.102470451,0.178356813
0.145488782,0.573597331,0.102582405,0.178331483
0.145499791,0.573499278,0.102695018,0.178305913
0.145510325,0.573401279,0.102808292,0.178280104
0.145520382,0.573303329,0.102922232,0.178254058
0.14552996,0.573205428,0.103036839,0.178227773
0.145539058,0.573107574,0.103152117,0.178201251
0.145547674,0.573009767,0.103268068,0.178174491
0.145555805,0.572912005,0.103384696,0.178147495
0.145563449,0.572814288,0.103502,0.178120262
0.145570605,0.572716615,0.103619985,0.178092795
0.145577271,0.572618985,0.103738651,0.178065093
0.145583445,0.572521397,0.103858,0.178037159
0.145589124,0.572423849,0.103978033,0.178008994
0.145594308,0.57232634,0.104098751,0.177980601
0.145598994,0.57222887,0.104220155,0.177951982
0.14560318,0.572131438,0.104342244,0.177923137
0.145606864,0.572034047,0.10446502,0.177894069
0.145610043,0.571936697,0.104588482,0.177864778
0.145612715,0.571839387,0.104712631,0.177835266
0.145614878,0.57174212,0.104837467,0.177805534
0.145616529,0.571644896,0.10496299,0.177775584
0.145617668,0.571547717,0.105089198,0.177745417
0.145618291,0.571450583,0.105216092,0.177715034
0.145618396,0.571353499,0.105343668,0.177684437
0.145617981,0.571256466,0.105471926,0.177653627
0.145617045,0.571159486,0.105600865,0.177622604
0.145615585,0.571062563,0.105730482,0.17759137
0.145613601,0.570965697,0.105860777,0.177559925
0.145611091,0.57086889,0.105991749,0.177528269
0.145608054,0.570772146,0.106123396,0.177496404
0.14560449,0.570675465,0.106255716,0.177464329
0.145600399,0.570578849,0.106388708,0.177432045
0.14559578,0.570482299,0.106522369,0.177399552
0.145590635,0.570385818,0.106656697,0.17736685
0.145584962,0.570289405,0.106791693,0.17733394
0.145578764,0.57019306,0.106927354,0.177300822
0.145572042,0.57009678,0.107063682,0.177267496
0.1455648,0.570000562,0.107200677,0.177233961
0.145557041,0.569904404,0.10733834,0.177200215
0.145548767,0.5698083,0.107476673,0.17716626
0.145539983,0.569712245,0.107615679,0.177132093
0.14553069,0.569616233,0.10775536,0.177097717
0.145520893,0.56952026,0.107895717,0.17706313
0.145510596,0.569424317,0.108036754,0.177028333
0.145499801,0.5693284,0.108178472,0.176993327
0.145488514,0.569232502,0.108320874,0.176958111
0.145476737,0.569136617,0.108463962,0.176922684
0.145464475,0.56904074,0.108607738,0.176887048
0.145451731,0.568944867,0.108752203,0.176851199
0.145438509,0.568848993,0.108897361,0.176815137
0.145424814,0.568753113,0.109043212,0.176778861
0.14541065,0.568657221,0.109189758,0.176742371
0.145396022,0.568561315,0.109336999,0.176705664
0.145380933,0.568465388,0.109484938,0.176668741
0.145365388,0.568369437,0.109633573,0.176631602
0.145349391,0.568273459,0.109782904,0.176594246
0.145332947,0.568177449,0.109932932,0.176556672
0.145316059,0.568081404,0.110083656,0.176518881
0.145298733,0.56798532,0.110235073,0.176480873
0.145280973,0.567889194,0.110387184,0.176442649
0.145262783,0.567793022,0.110539987,0.176404208
0.145244167,0.5676968,0.110693479,0.176365553
0.14522513,0.567600527,0.11084766,0.176326683
0.145205674,0.5675042,0.111002527,0.176287599
0.145185805,0.567407817,0.111158078,0.1762483
0.145165526,0.567311375,0.111314312,0.176208787
0.145144841,0.567214875,0.111471226,0.176169058
0.145123755,0.567118312,0.111628818,0.176129114
0.145102272,0.567021686,0.111787088,0.176088954
0.145080395,0.566924993,0.111946034,0.176048578
0.145058131,0.56682823,0.112105654,0.176007984
0.145035483,0.566731395,0.112265949,0.175967173
0.145012456,0.566634485,0.112426916,0.175926143
0.144989054,0.566537497,0.112588556,0.175884893
0.164341788,0.732120158,0.014575436,0.088962617
0.164365508,0.732049664,0.014570591,0.089014238
0.164389388,0.73197886,0.014565739,0.089066014
0.164413429,0.731907749,0.014560878,0.089117944
0.164437632,0.731836332,0.014556011,0.089170025
0.164461997,0.731764611,0.014551136,0.089222256
0.164486526,0.731692587,0.014546254,0.089274633
0.164511217,0.731620263,0.014541365,0.089327155
0.164536071,0.73154764,0.01453647,0.089379819
0.164561087,0.731474722,0.014531568,0.089432623
0.164586265,0.731401512,0.014526659,0.089485564
0.164611605,0.731328012,0.014521744,0.08953864
0.164637105,0.731254226,0.014516821,0.089591848
0.164662765,0.731180158,0.014511891,0.089645185
0.164688584,0.731105813,0.014506954,0.08969865
0.16471456,0.731031194,0.014502008,0.089752239
0.164740692,0.730956305,0.014497054,0.089805949
0.164766978,0.730881152,0.01449209,0.089859779
0.164793417,0.73080574,0.014487118,0.089913725
0.164820007,0.730730071,0.014482137,0.089967785
0.164846747,0.730654151,0.014477147,0.090021956
0.164873633,0.730577984,0.014472148,0.090076235
0.164900665,0.730501573,0.014467142,0.09013062
0.16492784,0.730424922,0.014462128,0.09018511
0.164955156,0.730348036,0.014457107,0.090239702
0.164982612,0.730270916,0.014452078,0.090294394
0.165010205,0.730193568,0.014447043,0.090349184
0.165037935,0.730115993,0.014442001,0.090404071
0.1650658,0.730038195,0.014436952,0.090459053
0.165093798,0.729960175,0.014431896,0.090514131
0.165121928,0.729881937,0.014426833,0.090569302
0.165150188,0.729803483,0.014421763,0.090624565
0.165178578,0.729724817,0.014416686,0.09067992
0.165207096,0.72964594,0.0144116,0.090735364
0.165235741,0.729566855,0.014406506,0.090790898
0.165264511,0.729487565,0.014401404,0.09084652
0.165293405,0.729408071,0.014396294,0.09090223
0.165322424,0.729328374,0.014391176,0.090958027
0.165351565,0.729248475,0.01438605,0.09101391
0.165380828,0.729168375,0.014380918,0.091069879
0.165410212,0.729088077,0.014375778,0.091125933
0.165439715,0.729007581,0.014370633,0.091182072
0.165469335,0.728926889,0.014365481,0.091238295
0.165499072,0.728846003,0.014360324,0.091294601
0.165528923,0.728764927,0.014355161,0.091350989
0.165558887,0.728683661,0.014349992,0.091407459
0.165588963,0.728602209,0.014344818,0.09146401
0.165619151,0.728520573,0.014339638,0.091520639
0.165649448,0.728438754,0.014334451,0.091577347
0.165679854,0.728356757,0.014329258,0.091634131
0.165710368,0.728274584,0.014324058,0.091690991
0.165740987,0.728192238,0.01431885,0.091747924
0.165771711,0.728109725,0.014313635,0.09180493
0.165802537,0.728027046,0.014308412,0.091862005
0.165833466,0.727944205,0.014303181,0.091919148
0.165864496,0.727861204,0.014297943,0.091976357
0.165895626,0.727778047,0.014292698,0.092033629
0.165926854,0.727694735,0.014287446,0.092090964
0.165958181,0.727611273,0.014282188,0.092148358
0.165989603,0.727527662,0.014276924,0.092205811
0.166021121,0.727443906,0.014271654,0.09226332
0.166052732,0.727360007,0.014266377,0.092320883
0.166084436,0.727275969,0.014261095,0.092378499
0.166116233,0.727191794,0.014255807,0.092436166
0.166148121,0.727107485,0.014250513,0.092493881
0.1661801,0.727023045,0.014245213,0.092551643
0.166212169,0.726938477,0.014239905,0.092609448
0.166244327,0.726853785,0.014234591,0.092667297
0.166276573,0.726768973,0.01422927,0.092725184
0.166308906,0.726684042,0.014223941,0.09278311
0.166341326,0.726598997,0.014218606,0.092841072
0.16637383,0.726513838,0.014213264,0.092899067
0.16640642,0.726428569,0.014207916,0.092957095
0.166439092,0.726343192,0.014202563,0.093015153
0.166471847,0.726257709,0.014197203,0.093073241
0.166504683,0.726172122,0.014191839,0.093131356
0.1665376,0.726086433,0.014186469,0.093189498
0.166570596,0.726000646,0.014181095,0.093247664
0.16660367,0.725914761,0.014175715,0.093305853
0.166636822,0.725828782,0.014170331,0.093364065
0.166670052,0.72574271,0.014164941,0.093422297
0.166703358,0.725656549,0.014159545,0.093480548
0.16673674,0.725570299,0.014154143,0.093538818
0.166770198,0.725483965,0.014148734,0.093597103
0.16680373,0.725397548,0.014143318,0.093655404
0.166837336,0.725311051,0.014137894,0.093713719
0.166871016,0.725224476,0.014132463,0.093772046
0.166904768,0.725137824,0.014127023,0.093830385
0.166938593,0.725051097,0.014121576,0.093888734
0.16697249,0.724964297,0.014116121,0.093947093
0.167006457,0.724877426,0.014110658,0.094005459
0.167040495,0.724790485,0.014105188,0.094063831
0.167074601,0.72470348,0.014099711,0.094122208
0.167108775,0.724616411,0.014094227,0.094180586
0.167143016,0.724529284,0.014088735,0.094238966
0.167177321,0.7244421,0.014083235,0.094297344
0.16721169,0.724354864,0.014077727,0.094355719
0.167246121,0.72426758,0.014072211,0.094414088
0.167280612,0.724180253,0.014066686,0.09447245
0.167315162,0.724092886,0.01406115,0.094530801
0.16734977,0.724005485,0.014055605,0.09458914
0.167384434,0.723918055,0.014050048,0.094647464
0.167419151,0.723830599,0.01404448,0.09470577
0.167453921,0.723743122,0.014038899,0.094764058
0.167488742,0.723655628,0.014033306,0.094822324
0.167523612,0.723568121,0.0140277,0.094880567
0.16755853,0.723480604,0.014022081,0.094938785
0.167593494,0.72339308,0.014016449,0.094996976
0.167628502,0.723305555,0.014010804,0.095055139
0.167663553,0.723218031,0.014005144,0.095113271
0.167698646,0.723130514,0.01399947,0.095171371
0.167733777,0.723043006,0.013993781,0.095229436
0.167768948,0.722955511,0.013988077,0.095287465
0.167804155,0.722868032,0.013982356,0.095345456
0.167839398,0.722780573,0.013976619,0.09540341
0.167874677,0.722693136,0.013970864,0.095461323
0.167909988,0.722605725,0.013965091,0.095519196
0.167945331,0.722518344,0.013959299,0.095577026
0.167980704,0.722430997,0.013953487,0.095634812
0.168016105,0.722343686,0.013947655,0.095692554
0.168051533,0.722256414,0.013941803,0.09575025
0.168086985,0.722169185,0.01393593,0.0958079
0.16812246,0.722082001,0.013930037,0.095865501
0.168157956,0.721994866,0.013924123,0.095923054
0.168193471,0.721907782,0.013918188,0.095980559
0.168229003,0.721820753,0.013912231,0.096038013
0.16826455,0.721733781,0.013906252,0.096095417
0.168300109,0.721646869,0.013900251,0.096152771
0.168335679,0.721560021,0.013894226,0.096210073
0.168371259,0.72147324,0.013888178,0.096267323
0.168406845,0.721386529,0.013882106,0.09632452
0.168442438,0.721299892,0.013876008,0.096381663
0.168478035,0.721213332,0.013869883,0.09643875
0.168513634,0.721126853,0.013863731,0.096495782
0.168549233,0.72104046,0.013857551,0.096552756
0.16858483,0.720954157,0.013851342,0.096609671
0.168620424,0.720867949,0.013845103,0.096666525
0.16865601,0.720781839,0.013838833,0.096723317
0.168691587,0.720695834,0.013832533,0.096780046
0.168727152,0.720609936,0.013826201,0.09683671
0.168762702,0.720524152,0.013819838,0.096893307
0.168798234,0.720438487,0.013813443,0.096949836
0.168833744,0.720352947,0.013807015,0.097006294
0.16886923,0.720267537,0.013800554,0.097062679
0.168904688,0.720182265,0.013794058,0.097118989
0.168940115,0.720097136,0.013787528,0.097175221
0.168975508,0.720012157,0.013780963,0.097231372
0.169010865,0.719927334,0.013774361,0.09728744
0.169046182,0.719842675,0.013767721,0.097343422
0.169081457,0.719758187,0.013761043,0.097399313
0.169116687,0.719673877,0.013754325,0.097455112
0.169151869,0.719589751,0.013747567,0.097510813
0.169187002,0.719505816,0.013740768,0.097566414
0.169222082,0.71942208,0.013733927,0.097621911
0.169257108,0.719338548,0.013727044,0.097677299
0.169292079,0.719255227,0.013720119,0.097732576
0.169326992,0.719172122,0.013713151,0.097787736
0.169361846,0.719089238,0.01370614,0.097842776
0.169396639,0.719006583,0.013699085,0.097897693
0.169431369,0.718924161,0.013691986,0.097952483
0.169466036,0.718841979,0.013684842,0.098007143
0.169500637,0.718760041,0.013677652,0.098061669
0.169535171,0.718678354,0.013670417,0.098116058
0.169569638,0.718596922,0.013663134,0.098170306
0.169604036,0.71851575,0.013655803,0.098224411
0.169638365,0.718434844,0.013648423,0.098278368
0.169672624,0.718354208,0.013640993,0.098332176
0.169706811,0.718273848,0.013633512,0.098385829
0.169740927,0.718193769,0.013625979,0.098439325
0.16977497,0.718113976,0.013618394,0.09849266
0.169808941,0.718034472,0.013610756,0.098545831
0.169842837,0.717955263,0.013603066,0.098598834
0.169876659,0.717876353,0.013595323,0.098651665
0.169910406,0.717797746,0.013587526,0.098704321
0.169944078,0.717719448,0.013579676,0.098756798
0.169977673,0.717641463,0.013571772,0.098809091
0.170011191,0.717563797,0.013563814,0.098861198
0.170044632,0.717486453,0.013555801,0.098913115
0.170077994,0.717409436,0.013547732,0.098964837
0.170111278,0.717332751,0.013539608,0.099016362
0.170144484,0.717256403,0.013531427,0.099067686
0.17017761,0.717180396,0.01352319,0.099118804
0.170210657,0.717104735,0.013514895,0.099169713
0.170243624,0.717029424,0.013506542,0.099220409
0.170276511,0.716954469,0.013498131,0.09927089
0.170309316,0.716879872,0.013489661,0.099321152
0.170342038,0.716805637,0.013481131,0.099371193
0.170374679,0.716731768,0.013472543,0.099421011
0.170407236,0.716658268,0.013463895,0.099470602
0.170439708,0.716585139,0.013455188,0.099519964
0.170472096,0.716512386,0.013446422,0.099569095
0.170504399,0.716440011,0.013437597,0.099617993
0.170536615,0.716368018,0.013428712,0.099666655
0.170568743,0.71629641,0.013419768,0.099715079
0.170600783,0.716225191,0.013410764,0.099763263
0.170632733,0.716154365,0.013401699,0.099811204
0.170664591,0.716083936,0.013392574,0.099858899
0.170696358,0.71601391,0.013383387,0.099906345
0.17072803,0.715944291,0.013374139,0.09995354
0.170759606,0.715875085,0.013364829,0.10000048
0.170791083,0.715806299,0.013355456,0.100047162
0.170822462,0.715737936,0.01334602,0.100093583
0.170853738,0.715670001,0.01333652,0.10013974
0.170884911,0.7156025,0.013326957,0.100185632
0.170915978,0.715535438,0.013317331,0.100231254
0.170946938,0.715468818,0.013307641,0.100276603
0.170977788,0.715402645,0.013297888,0.100321678
0.171008526,0.715336925,0.013288074,0.100366475
0.171039151,0.715271661,0.013278196,0.100410992
0.171069659,0.715206858,0.013268258,0.100455225
0.171100049,0.715142521,0.013258257,0.100499173
0.171130318,0.715078654,0.013248195,0.100542833
0.171160465,0.715015262,0.013238072,0.100586201
0.171190487,0.71495235,0.013227888,0.100629275
0.171220382,0.714889923,0.013217642,0.100672053
0.171250149,0.714827985,0.013207335,0.100714531
0.171279786,0.714766542,0.013196966,0.100756706
0.171309291,0.714705598,0.013186536,0.100798576
0.171338662,0.714645157,0.013176044,0.100840137
0.171367897,0.714585224,0.013165491,0.100881388
0.171396994,0.714525804,0.013154878,0.100922324
0.171425952,0.7144669,0.013144204,0.100962943
0.171454769,0.714408517,0.013133471,0.101003243
0.171483443,0.714350657,0.01312268,0.101043219
0.171511975,0.714293323,0.01311183,0.101082872
0.171540361,0.714236518,0.013100923,0.101122198
0.171568602,0.714180243,0.01308996,0.101161195
0.171596696,0.714124501,0.013078941,0.101199862
0.171624644,0.714069293,0.013067866,0.101238197
0.171652444,0.714014621,0.013056737,0.101276198
0.171680096,0.713960486,0.013045553,0.101313865
0.171707601,0.713906888,0.013034315,0.101351196
0.171734959,0.713853828,0.013023023,0.10138819
0.171762168,0.713801306,0.013011678,0.101424848
0.17178923,0.713749323,0.013000279,0.101461167
0.171816144,0.713697879,0.012988829,0.101497148
0.17184291,0.713646975,0.012977326,0.101532789
0.171869529,0.71359661,0.012965773,0.101568089
0.171896001,0.713546783,0.012954169,0.101603047
0.171922326,0.713497494,0.012942516,0.101637664
0.171948504,0.713448743,0.012930815,0.101671938
0.171974536,0.713400529,0.012919065,0.101705869
0.172000422,0.713352853,0.012907268,0.101739458
0.172026161,0.713305713,0.012895424,0.101772703
0.172051753,0.713259109,0.012883534,0.101805605
0.172077198,0.713213041,0.012871597,0.101838164
0.172102497,0.713167508,0.012859615,0.10187038
0.17212765,0.71312251,0.012847587,0.101902253
0.172152658,0.713078045,0.012835513,0.101933784
0.172177519,0.713034116,0.012823394,0.101964972
0.172202234,0.712990721,0.012811229,0.101995817
0.172226802,0.712947861,0.012799018,0.102026318
0.172251224,0.712905537,0.012786763,0.102056476
0.172275499,0.712863747,0.012774463,0.10208629
0.172299627,0.712822492,0.01276212,0.102115761
0.172323608,0.712781771,0.012749734,0.102144887
0.172347441,0.712741583,0.012737305,0.10217367
0.172371127,0.712701929,0.012724835,0.102202108
0.172394665,0.712662808,0.012712324,0.102230203
0.172418055,0.712624219,0.012699773,0.102257954
0.172441295,0.712586162,0.012687181,0.102285362
0.172464387,0.712548637,0.012674549,0.102312427
0.17248733,0.712511644,0.012661877,0.102339148
0.172510125,0.712475181,0.012649166,0.102365528
0.17253277,0.71243925,0.012636415,0.102391565
0.172555267,0.712403849,0.012623624,0.10241726
0.172577615,0.712368978,0.012610794,0.102442613
0.172599815,0.712334639,0.012597923,0.102467624
0.172621865,0.712300829,0.012585013,0.102492293
0.172643767,0.71226755,0.012572063,0.10251662
0.172665519,0.712234801,0.012559075,0.102540605
0.172687123,0.71220258,0.012546048,0.102564249
0.172708577,0.712170888,0.012532985,0.102587551
0.172729882,0.712139723,0.012519885,0.10261051
0.172751037,0.712109086,0.012506749,0.102633128
0.172772042,0.712078976,0.012493578,0.102655404
0.172792895,0.712049393,0.012480374,0.102677338
0.172813596,0.712020338,0.012467136,0.102698929
0.172834144,0.71199181,0.012453867,0.102720178
0.172854538,0.71196381,0.012440567,0.102741085
0.172874777,0.711936338,0.012427236,0.102761649
0.172894861,0.711909393,0.012413876,0.10278187
0.172914789,0.711882975,0.012400486,0.102801749
0.172934561,0.711857087,0.012387068,0.102821284
0.172954174,0.711831727,0.012373623,0.102840476
0.17297363,0.711806895,0.012360151,0.102859324
0.172992926,0.711782593,0.012346652,0.102877829
0.173012064,0.711758817,0.012333129,0.102895991
0.173031041,0.711735568,0.012319581,0.102913809
0.173049859,0.711712846,0.012306011,0.102931285
0.173068514,0.711690649,0.012292418,0.102948419
0.173087007,0.711668978,0.012278805,0.102965211
0.173105335,0.711647834,0.012265171,0.10298166
0.173123497,0.711627217,0.012251518,0.102997768
0.17314149,0.711607129,0.012237847,0.103013534
0.173159314,0.711587571,0.012224157,0.103028958
0.173176966,0.711568544,0.012210451,0.10304404
0.173194445,0.711550048,0.012196727,0.10305878
0.173211748,0.711532087,0.012182988,0.103073178
0.173228874,0.71151466,0.012169233,0.103087233
0.173245822,0.711497769,0.012155462,0.103100947
0.173262588,0.711481417,0.012141677,0.103114317
0.173279173,0.711465603,0.012127879,0.103127345
0.173295573,0.71145033,0.012114068,0.103140029
0.173311787,0.711435596,0.012100247,0.10315237
0.173327813,0.711421404,0.012086416,0.103164367
0.173343651,0.711407752,0.012072577,0.10317602
0.173359298,0.711394641,0.012058732,0.10318733
0.173374753,0.711382071,0.012044882,0.103198295
0.173390015,0.711370042,0.012031028,0.103208915
0.173405083,0.711358555,0.012017172,0.10321919
0.173419955,0.71134761,0.012003315,0.10322912
0.17343463,0.711337207,0.011989458,0.103238704
0.173449109,0.711327348,0.011975603,0.10324794
0.173463389,0.711318032,0.01196175,0.103256829
0.173477471,0.711309261,0.011947899,0.103265369
0.173491353,0.711301037,0.011934052,0.103273558
0.173505035,0.711293359,0.01192021,0.103281396
0.173518517,0.711286228,0.011906373,0.103288882
0.173531796,0.711279646,0.011892542,0.103296016
0.173544874,0.71127361,0.011878719,0.103302797
0.173557748,0.711268122,0.011864906,0.103309224
0.173570419,0.71126318,0.011851104,0.103315298
0.173582884,0.711258784,0.011837314,0.103321017
0.173595144,0.711254936,0.01182354,0.10332638
0.173607197,0.711251634,0.011809782,0.103331386
0.173619043,0.711248881,0.011796041,0.103336035
0.173630682,0.711246675,0.01178232,0.103340324
0.173642111,0.711245016,0.011768618,0.103344254
0.173653332,0.711243906,0.011754939,0.103347823
0.173664345,0.711243344,0.011741281,0.10335103
0.173675148,0.711243331,0.011727647,0.103353875
0.173685742,0.711243866,0.011714036,0.103356355
0.173696127,0.711244951,0.011700451,0.103358471
0.173706301,0.711246587,0.011686891,0.103360221
0.173716265,0.711248773,0.011673358,0.103361604
0.173726018,0.711251511,0.011659852,0.103362619
0.17373556,0.7112548,0.011646375,0.103363264
0.173744892,0.711258639,0.011632928,0.10336354
0.173754013,0.711263029,0.011619513,0.103363446
0.173762923,0.711267968,0.01160613,0.10336298
0.173771623,0.711273454,0.01159278,0.103362143
0.173780112,0.711279488,0.011579466,0.103360934
0.17378839,0.711286069,0.011566188,0.103359353
0.173796459,0.711293195,0.011552946,0.1033574
0.173804317,0.711300867,0.011539743,0.103355074
0.173811965,0.711309082,0.011526578,0.103352375
0.173819405,0.71131784,0.011513452,0.103349303
0.173826635,0.711327141,0.011500367,0.103345857
0.173833657,0.711336984,0.011487322,0.103342038
0.17384047,0.711347368,0.011474318,0.103337845
0.173847075,0.711358293,0.011461356,0.103333277
0.173853472,0.711369757,0.011448436,0.103328335
0.173859661,0.711381761,0.01143556,0.103323018
0.173865641,0.711394304,0.011422729,0.103317326
0.173871412,0.711407386,0.011409945,0.103311257
0.173876973,0.711421008,0.011397207,0.103304812
0.173882323,0.71143517,0.011384518,0.10329799
0.173887461,0.711449871,0.011371878,0.103290789
0.173892387,0.711465114,0.01135929,0.10328321
0.173897099,0.711480898,0.011346753,0.10327525
0.173901598,0.711497224,0.011334268,0.10326691
0.173905882,0.711514092,0.011321836,0.103258189
0.173909952,0.711531505,0.011309458,0.103249085
0.173913807,0.711549461,0.011297134,0.103239598
0.173917445,0.711567963,0.011284864,0.103229728
0.173920868,0.711587012,0.011272648,0.103219472
0.173924074,0.71160661,0.011260487,0.10320883
0.173927063,0.711626757,0.01124838,0.1031978
0.173929833,0.711647455,0.011236329,0.103186384
0.173932385,0.711668703,0.011224333,0.103174578
0.173934718,0.711690503,0.011212394,0.103162385
0.173936832,0.711712856,0.011200511,0.103149801
0.173938724,0.711735762,0.011188686,0.103136828
0.173940395,0.711759222,0.01117692,0.103123463
0.173941844,0.711783238,0.011165213,0.103109705
0.17394307,0.71180781,0.011153565,0.103095555
0.173944072,0.71183294,0.011141977,0.103081011
0.173944851,0.711858627,0.011130449,0.103066072
0.173945406,0.711884873,0.011118983,0.103050738
0.173945737,0.711911679,0.011107577,0.103035007
0.173945843,0.711939046,0.011096231,0.10301888
0.173945724,0.711966974,0.011084947,0.103002355
0.173945379,0.711995465,0.011073723,0.102985432
0.173944809,0.712024521,0.01106256,0.10296811
0.173944012,0.712054143,0.011051458,0.102950387
0.173942988,0.71208433,0.011040418,0.102932264
0.173941738,0.712115083,0.011029439,0.102913739
0.173940261,0.712146403,0.011018523,0.102894813
0.173938557,0.71217829,0.011007669,0.102875483
0.173936625,0.712210744,0.010996879,0.102855752
0.173934465,0.712243765,0.010986152,0.102835618
0.173932075,0.712277352,0.01097549,0.102815083
0.173929456,0.712311506,0.010964891,0.102794146
0.173926607,0.712346226,0.010954357,0.10277281
0.173923527,0.712381513,0.010943887,0.102751073
0.173920216,0.712417364,0.010933482,0.102728938
0.173916673,0.71245378,0.010923141,0.102706406
0.173912897,0.71249076,0.010912864,0.102683479
0.173908889,0.712528301,0.010902652,0.102660159
0.133692342,0.770453037,0.011344118,0.084510503
0.133700434,0.770456321,0.011332058,0.084511187
0.133708431,0.770459679,0.011320013,0.084511877
0.133716336,0.770463107,0.011307981,0.084512576
0.13372415,0.770466602,0.011295965,0.084513284
0.133731874,0.77047016,0.011283963,0.084514003
0.13373951,0.770473778,0.011271977,0.084514735
0.133747058,0.770477453,0.011260007,0.084515481
0.133754521,0.770481182,0.011248053,0.084516244
0.1337619,0.77048496,0.011236116,0.084517025
0.133769195,0.770488784,0.011224196,0.084517825
0.133776408,0.770492652,0.011212294,0.084518646
0.133783541,0.77049656,0.01120041,0.084519489
0.133790595,0.770500505,0.011188544,0.084520356
0.133797571,0.770504484,0.011176696,0.084521249
0.133804471,0.770508494,0.011164866,0.084522169
0.133811295,0.770512532,0.011153055,0.084523117
0.133818046,0.770516597,0.011141263,0.084524095
0.133824722,0.770520685,0.011129489,0.084525103
0.133831327,0.770524794,0.011117734,0.084526144
0.133837862,0.77052892,0.011105999,0.08452722
0.133844326,0.77053306,0.011094283,0.084528331
0.133850722,0.770537213,0.011082587,0.084529479
0.133857049,0.770541375,0.01107091,0.084530666
0.133863308,0.770545544,0.011059253,0.084531895
0.133869501,0.770549718,0.011047616,0.084533165
0.133875627,0.770553894,0.011036,0.08453448
0.133881687,0.770558069,0.011024405,0.084535839
0.133887682,0.770562242,0.011012831,0.084537245
0.133893613,0.770566409,0.011001279,0.084538699
0.133899481,0.770570569,0.010989748,0.084540202
0.133905286,0.770574717,0.010978241,0.084541755
0.13391103,0.770578852,0.010966757,0.084543361
0.133916713,0.770582969,0.010955296,0.084545021
0.133922337,0.770587067,0.01094386,0.084546736
0.133927903,0.770591141,0.010932449,0.084548508
0.13393341,0.770595189,0.010921063,0.084550337
0.133938862,0.770599208,0.010909703,0.084552227
0.133944257,0.770603195,0.010898371,0.084554177
0.133949598,0.770607144,0.010887068,0.08455619
0.133954884,0.770611053,0.010875795,0.084558268
0.133960116,0.770614917,0.010864554,0.084560414
0.133965295,0.77061873,0.010853346,0.084562629
0.133970421,0.770622489,0.010842173,0.084564917
0.133975495,0.770626189,0.010831036,0.08456728
0.133980517,0.770629827,0.010819937,0.084569719
0.133985488,0.770633398,0.010808877,0.084572236
0.133990408,0.770636899,0.010797859,0.084574833
0.133995277,0.770640327,0.010786883,0.084577512
0.134000096,0.770643677,0.010775952,0.084580275
0.134004865,0.770646947,0.010765067,0.084583122
0.134009583,0.770650133,0.010754228,0.084586056
0.134014252,0.770653232,0.010743439,0.084589077
0.134018871,0.77065624,0.010732701,0.084592188
0.134023442,0.770659155,0.010722014,0.084595389
0.134027964,0.770661974,0.010711381,0.08459868
0.134032439,0.770664695,0.010700803,0.084602063
0.134036865,0.770667316,0.010690281,0.084605538
0.134041245,0.770669833,0.010679817,0.084609105
0.134045577,0.770672245,0.010669413,0.084612765
0.134049862,0.770674549,0.010659071,0.084616518
0.1340541,0.770676741,0.010648794,0.084620365
0.134058291,0.77067882,0.010638585,0.084624304
0.134062437,0.770680781,0.010628445,0.084628337
0.134066536,0.770682624,0.010618377,0.084632463
0.13407059,0.770684346,0.010608383,0.084636681
0.134074599,0.770685945,0.010598466,0.08464099
0.134078563,0.77068742,0.010588627,0.084645391
0.134082483,0.770688768,0.010578868,0.084649881
0.134086359,0.770689988,0.010569192,0.084654461
0.134090193,0.770691077,0.010559601,0.08465913
0.134093984,0.770692035,0.010550095,0.084663886
0.134097733,0.770692859,0.010540678,0.084668731
0.134101439,0.770693548,0.010531351,0.084673662
0.134105104,0.770694101,0.010522115,0.08467868
0.134108727,0.770694518,0.010512971,0.084683783
0.134112308,0.770694797,0.010503923,0.084688971
0.134115848,0.770694939,0.01049497,0.084694243
0.134119345,0.770694941,0.010486115,0.084699599
0.134122801,0.770694803,0.010477359,0.084705037
0.134126217,0.770694523,0.010468702,0.084710559
0.134129592,0.770694099,0.010460146,0.084716162
0.134132927,0.770693532,0.010451693,0.084721848
0.134136223,0.770692818,0.010443343,0.084727616
0.134139481,0.770691958,0.010435097,0.084733464
0.1341427,0.77069095,0.010426957,0.084739394
0.134145882,0.770689792,0.010418923,0.084745404
0.134149027,0.770688482,0.010410997,0.084751494
0.134152136,0.770687021,0.010403179,0.084757664
0.134155208,0.770685405,0.010395472,0.084763914
0.134158245,0.770683635,0.010387876,0.084770243
0.134161246,0.77068171,0.010380393,0.084776651
0.134164211,0.77067963,0.010373024,0.084783136
0.134167138,0.770677393,0.01036577,0.084789699
0.134170029,0.770675001,0.010358633,0.084796338
0.134172881,0.770672451,0.010351614,0.084803054
0.134175695,0.770669744,0.010344714,0.084809846
0.13417847,0.770666879,0.010337936,0.084816714
0.134181205,0.770663855,0.010331281,0.084823659
0.134183898,0.770660671,0.010324751,0.084830681
0.134186548,0.770657325,0.010318347,0.084837779
0.134189155,0.770653817,0.010312072,0.084844956
0.134191716,0.770650144,0.010305927,0.084852213
0.134194231,0.770646304,0.010299915,0.08485955
0.134196699,0.770642294,0.010294036,0.084866971
0.134199118,0.770638111,0.010288294,0.084874477
0.134201486,0.770633755,0.010282689,0.084882071
0.134203801,0.770629221,0.010277223,0.084889755
0.134206064,0.770624508,0.010271897,0.084897531
0.134208271,0.770619614,0.010266715,0.0849054
0.134210421,0.770614537,0.010261677,0.084913365
0.134212514,0.770609274,0.010256785,0.084921428
0.134214546,0.770603824,0.010252041,0.084929589
0.134216518,0.770598183,0.010247447,0.084937852
0.134218428,0.77059235,0.010243006,0.084946216
0.134220273,0.770586322,0.010238722,0.084954683
0.134222052,0.770580097,0.010234598,0.084963254
0.134223762,0.770573671,0.010230638,0.084971929
0.134225402,0.770567043,0.010226846,0.084980709
0.13422697,0.770560209,0.010223227,0.084989594
0.134228463,0.770553167,0.010219785,0.084998585
0.13422988,0.770545913,0.010216527,0.085007681
0.134231216,0.770538444,0.010213457,0.085016884
0.134232471,0.770530755,0.010210581,0.085026193
0.134233641,0.770522843,0.010207907,0.085035609
0.134234724,0.770514702,0.010205441,0.085045133
0.134235718,0.770506327,0.010203191,0.085054765
0.134236621,0.770497711,0.010201163,0.085064505
0.13423743,0.770488846,0.010199369,0.085074354
0.134238145,0.770479726,0.010197817,0.085084312
0.134238763,0.77047034,0.010196519,0.085094378
0.134239282,0.770460681,0.010195484,0.085104553
0.134239701,0.770450739,0.010194724,0.085114836
0.134240016,0.770440504,0.010194251,0.085125229
0.134240226,0.770429967,0.010194077,0.085135731
0.134240327,0.770419115,0.010194215,0.085146343
0.134240317,0.770407938,0.010194679,0.085157066
0.134240194,0.770396423,0.010195484,0.085167898
0.134239955,0.77038456,0.010196644,0.085178841
0.134239596,0.770372337,0.010198173,0.085189893
0.134239115,0.770359742,0.010200086,0.085201057
0.134238508,0.770346763,0.010202397,0.085212332
0.134237772,0.770333386,0.010205121,0.08522372
0.134236903,0.7703196,0.010208273,0.085235223
0.134235899,0.770305391,0.010211869,0.085246841
0.134234756,0.770290746,0.010215922,0.085258576
0.134233471,0.770275651,0.010220449,0.085270429
0.134232039,0.770260095,0.010225465,0.085282401
0.134230457,0.770244063,0.010230984,0.085294495
0.134228722,0.770227545,0.010237021,0.085306713
0.13422683,0.770210525,0.010243589,0.085319056
0.134224777,0.770192992,0.010250705,0.085331526
0.134222559,0.770174929,0.010258386,0.085344126
0.134220174,0.770156321,0.010266647,0.085356857
0.134217618,0.770137152,0.010275507,0.085369723
0.134214888,0.770117405,0.010284982,0.085382725
0.134211982,0.770097063,0.010295089,0.085395865
0.134208897,0.770076112,0.010305844,0.085409147
0.13420563,0.770054533,0.010317264,0.085422573
0.13420218,0.770032311,0.010329365,0.085436144
0.134198545,0.770009428,0.010342163,0.085449864
0.134194722,0.769985868,0.010355676,0.085463734
0.134190713,0.769961611,0.010369921,0.085477756
0.134186516,0.769936638,0.010384913,0.085491933
0.134182131,0.769910931,0.010400671,0.085506267
0.134177559,0.76988447,0.010417211,0.08552076
0.1341728,0.769857234,0.01043455,0.085535416
0.134167854,0.769829205,0.010452704,0.085550237
0.134162722,0.769800362,0.01047169,0.085565226
0.134157405,0.769770685,0.010491525,0.085580385
0.134151903,0.769740152,0.010512226,0.085595719
0.134146219,0.769708742,0.010533809,0.08561123
0.134140353,0.769676436,0.01055629,0.085626921
0.134134307,0.769643212,0.010579684,0.085642798
0.134128082,0.76960905,0.010604007,0.085658862
0.134121678,0.769573932,0.010629274,0.085675116
0.134115098,0.769537835,0.010655502,0.085691565
0.134108341,0.769500741,0.010682709,0.085708209
0.134101409,0.769462629,0.01071091,0.085725053
0.134094302,0.769423478,0.010740123,0.085742097
0.134087022,0.769383268,0.010770365,0.085759345
0.13407957,0.76934198,0.010801653,0.085776798
0.134071947,0.769299592,0.010834004,0.085794458
0.134064154,0.769256084,0.010867437,0.085812326
0.134056192,0.769211435,0.010901969,0.085830404
0.134048062,0.769165625,0.01093762,0.085848693
0.134039767,0.769118632,0.010974406,0.085867194
0.134031307,0.769070436,0.011012348,0.085885909
0.134022685,0.769021014,0.011051462,0.085904839
0.134013902,0.768970346,0.011091768,0.085923984
0.13400496,0.768918406,0.011133288,0.085943346
0.133995862,0.768865171,0.011176043,0.085962925
0.133986609,0.768810612,0.011220056,0.085982722
0.133977204,0.768754704,0.011265352,0.08600274
0.133967649,0.768697419,0.011311953,0.086022979
0.133957944,0.768638727,0.011359886,0.086043443
0.133948092,0.768578601,0.011409173,0.086064134
0.133938097,0.76851701,0.011459838,0.086085055
0.13392796,0.768453925,0.011511907,0.086106208
0.133917686,0.768389312,0.011565403,0.086127598
0.133907278,0.768323138,0.011620355,0.086149229
0.133896738,0.768255365,0.01167679,0.086171107
0.133886069,0.768185958,0.011734737,0.086193235
0.133875272,0.768114881,0.011794226,0.086215621
0.133864349,0.768042097,0.011855285,0.08623827
0.133853302,0.76796757,0.011917943,0.086261185
0.133842132,0.767891267,0.011982229,0.086284372
0.133830842,0.767813152,0.012048172,0.086307834
0.133819433,0.767733193,0.012115798,0.086331576
0.133807908,0.767651355,0.012185137,0.086355601
0.133796266,0.767567605,0.012256217,0.086379912
0.133784509,0.767481911,0.012329067,0.086404513
0.133772636,0.767394235,0.012403721,0.086429408
0.133760644,0.767304544,0.012480211,0.086454601
0.133748532,0.767212799,0.012558575,0.086480094
0.133736296,0.767118965,0.012638849,0.086505891
0.133723932,0.767023003,0.012721071,0.086531994
0.133711436,0.766924872,0.012805286,0.086558406
0.133698804,0.76682453,0.01289154,0.086585126
0.133686028,0.766721931,0.012979883,0.086612157
0.133673104,0.766617028,0.013070368,0.0866395
0.133660024,0.766509774,0.013163046,0.086667157
0.133646781,0.766400125,0.013257966,0.086695128
0.133633369,0.766288034,0.01335518,0.086723417
0.133619782,0.766173456,0.013454738,0.086752024
0.133606013,0.766056347,0.013556689,0.086780951
0.133592058,0.76593666,0.013661084,0.086810198
0.13357791,0.765814352,0.013767971,0.086839766
0.133563565,0.765689379,0.013877399,0.086869656
0.133549021,0.765561696,0.013989416,0.086899868
0.133534275,0.765431258,0.014104067,0.0869304
0.133519328,0.765298021,0.014221398,0.086961254
0.133504178,0.76516194,0.014341454,0.086992428
0.133488827,0.765022971,0.014464279,0.087023924
0.133473275,0.764881068,0.014589917,0.08705574
0.133457524,0.764736188,0.014718411,0.087087877
0.133441574,0.764588287,0.014849804,0.087120335
0.133425429,0.764437322,0.014984137,0.087153112
0.13340909,0.764283248,0.015121454,0.087186208
0.133392561,0.764126023,0.015261794,0.087219622
0.133375845,0.763965601,0.015405199,0.087253356
0.133358947,0.76380194,0.015551705,0.087287408
0.133341871,0.763634997,0.015701351,0.087321782
0.133324621,0.763464731,0.015854171,0.087356476
0.133307203,0.763291103,0.016010202,0.087391493
0.133289619,0.763114074,0.016169476,0.087426831
0.133271874,0.762933609,0.016332025,0.087462492
0.133253971,0.762749672,0.016497882,0.087498474
0.133235913,0.762562232,0.016667076,0.087534779
0.133217703,0.762371256,0.016839636,0.087571404
0.133199345,0.762176714,0.017015591,0.087608351
0.133180841,0.761978575,0.017194966,0.087645618
0.133162195,0.761776812,0.017377788,0.087683205
0.133143409,0.761571399,0.017564082,0.08772111
0.133124488,0.761362308,0.017753871,0.087759333
0.133105432,0.761149517,0.017947179,0.087797872
0.133086244,0.760933002,0.018144028,0.087836726
0.133066924,0.760712744,0.018344439,0.087875892
0.133047475,0.760488723,0.018548432,0.087915369
0.133027898,0.760260922,0.018756026,0.087955154
0.133008194,0.760029325,0.018967238,0.087995243
0.132988363,0.759793916,0.019182087,0.088035634
0.132968406,0.75955468,0.01940059,0.088076324
0.132948322,0.759311602,0.019622766,0.088117309
0.132928112,0.759064671,0.019848632,0.088158586
0.132907772,0.758813872,0.020078205,0.08820015
0.132887303,0.758559195,0.020311503,0.088241999
0.132866703,0.758300626,0.020548542,0.088284129
0.132845972,0.758038151,0.020789342,0.088326536
0.132825109,0.757771757,0.021033919,0.088369215
0.132804114,0.757501429,0.021282294,0.088412163
0.132782987,0.757227153,0.021534485,0.088455375
0.132761727,0.756948917,0.021790508,0.088498847
0.132740334,0.756666709,0.022050382,0.088542575
0.132718808,0.756380517,0.022314122,0.088586554
0.132697148,0.756090328,0.022581744,0.08863078
0.132675356,0.755796129,0.022853268,0.088675248
0.132653431,0.755497907,0.023128709,0.088719953
0.132631375,0.755195648,0.023408085,0.088764892
0.132609189,0.754889336,0.023691416,0.088810059
0.132586872,0.754578957,0.02397872,0.088855452
0.132564426,0.754264496,0.024270014,0.088901064
0.132541852,0.75394594,0.024565315,0.088946893
0.132519149,0.753623276,0.024864642,0.088992933
0.132496319,0.753296492,0.025168008,0.089039181
0.132473361,0.752965574,0.02547543,0.089085635
0.132450278,0.752630511,0.02578692,0.089132291
0.132427069,0.75229129,0.026102492,0.089179149
0.132403736,0.751947899,0.026422157,0.089226208
0.13238028,0.751600327,0.026745927,0.089273465
0.132356702,0.751248564,0.027073813,0.089320921
0.132333003,0.750892601,0.027405824,0.089368571
0.132309184,0.75053243,0.027741971,0.089416415
0.132285245,0.750168041,0.028082261,0.089464452
0.132261187,0.749799427,0.028426704,0.089512681
0.132237009,0.749426581,0.028775308,0.089561101
0.132212713,0.749049497,0.02912808,0.08960971
0.132188297,0.74866817,0.029485027,0.089658507
0.132163761,0.748282595,0.029846153,0.089707491
0.132139103,0.747892769,0.030211468,0.08975666
0.132114323,0.747498686,0.030580978,0.089806013
0.132089418,0.74710034,0.030954692,0.089855549
0.132064386,0.746697725,0.031332622,0.089905267
0.132039224,0.746290834,0.031714776,0.089955166
0.13201393,0.74587966,0.032101164,0.090005246
0.1319885,0.745464194,0.0324918,0.090055506
0.131962929,0.745044426,0.032886698,0.090105946
0.131937214,0.744620343,0.033285874,0.090156568
0.131911349,0.744191934,0.033689345,0.090207372
0.131885329,0.743759186,0.034097126,0.09025836
0.131859147,0.743322089,0.034509232,0.090309532
0.1318328,0.742880633,0.034925676,0.090360891
0.131806281,0.742434808,0.035346473,0.090412438
0.131779583,0.741984602,0.035771638,0.090464177
0.1317527,0.741530006,0.036201185,0.090516109
0.131725625,0.741071009,0.03663513,0.090568236
0.131698349,0.7406076,0.037073491,0.09062056
0.131670865,0.740139772,0.037516283,0.09067308
0.131643165,0.739667513,0.037963522,0.0907258
0.131615239,0.739190817,0.038415223,0.09077872
0.131587079,0.738709676,0.038871405,0.090831841
0.131558675,0.73822408,0.039332082,0.090885162
0.131530018,0.737734021,0.039797275,0.090938687
0.131501096,0.737239488,0.040267002,0.090992414
0.131471901,0.736740473,0.040741279,0.091046347
0.131442421,0.736236968,0.041220124,0.091100486
0.131412648,0.735728969,0.041703551,0.091154832
0.131382571,0.735216471,0.042191574,0.091209384
0.13135218,0.734699469,0.042684206,0.091264144
0.131321464,0.734177959,0.043181466,0.091319112
0.13129041,0.733651934,0.04368337,0.091374286
0.131259007,0.733121389,0.044189938,0.091429667
0.131227241,0.732586316,0.04470119,0.091485253
0.1311951,0.73204671,0.045217146,0.091541045
0.131162569,0.731502563,0.045737826,0.091597042
0.131129637,0.730953867,0.046263253,0.091653243
0.131096288,0.730400613,0.046793451,0.091709648
0.131062508,0.729842795,0.047328442,0.091766255
0.131028283,0.729280406,0.047868248,0.091823062
0.130993599,0.728713444,0.048412888,0.091880069
0.130958443,0.728141905,0.048962377,0.091937275
0.1309228,0.727565789,0.04951673,0.091994681
0.130886656,0.726985096,0.05007596,0.092052287
0.130849999,0.726399828,0.050640078,0.092110095
0.130812815,0.725809986,0.051209091,0.092168108
0.130775091,0.725215572,0.051783007,0.09222633
0.130736815,0.724616591,0.052361829,0.092284765
0.130697975,0.724013043,0.052945563,0.092343418
0.130658559,0.723404934,0.053534211,0.092402296
0.130618554,0.722792266,0.054127774,0.092461405
0.130577948,0.722175045,0.054726255,0.092520752
0.130536729,0.721553272,0.055329655,0.092580345
0.130494883,0.720926949,0.055937974,0.092640193
0.1304524,0.720296077,0.056551216,0.092700308
0.130409264,0.719660653,0.057169383,0.092760699
0.130365464,0.719020678,0.05779248,0.092821378
0.130320986,0.718376153,0.058420507,0.092882355
0.130275816,0.717727079,0.059053465,0.09294364
0.130229943,0.717073457,0.059691357,0.093005243
0.130183352,0.716415287,0.060334185,0.093067176
0.13013603,0.715752569,0.060981952,0.093129449
0.130087962,0.715085302,0.061634662,0.093192074
0.130039136,0.714413486,0.062292316,0.093255062
0.129989537,0.713737124,0.062954913,0.093318426
0.129939154,0.713056218,0.063622452,0.093382176
0.129887973,0.712370774,0.064294929,0.093446325
0.129835981,0.711680796,0.064972338,0.093510884
0.129783168,0.710986292,0.065654675,0.093575866
0.129729519,0.710287267,0.066341933,0.093641281
0.129675024,0.709583729,0.067034105,0.093707141
0.129619671,0.708875688,0.067731183,0.093773458
0.129563448,0.708163154,0.068433156,0.093840242
0.129506345,0.707446139,0.069140014,0.093907501
0.129448352,0.706724657,0.069851744,0.093975247
0.129389459,0.705998724,0.070568331,0.094043486
0.129329657,0.705268355,0.071289759,0.094112229
0.129268936,0.704533572,0.07201601,0.094181482
0.129207287,0.703794394,0.072747063,0.094251255
0.129144703,0.703050842,0.073482897,0.094321558
0.129081174,0.702302936,0.074223489,0.094392401
0.129016691,0.701550697,0.074968816,0.094463795
0.128951248,0.700794147,0.075718853,0.094535753
0.128884836,0.700033309,0.076473571,0.094608285
0.128817448,0.699268206,0.077232943,0.094681403
0.128749078,0.698498864,0.077996937,0.09475512
0.12867972,0.697725309,0.078765522,0.09482945
0.128609367,0.696947565,0.079538663,0.094904405
0.128538015,0.69616566,0.080316326,0.094979999
0.128465658,0.695379619,0.081098476,0.095056247
0.128392291,0.694589468,0.08188508,0.09513316
0.128317909,0.693795233,0.082676105,0.095210752
0.128242505,0.692996941,0.083471519,0.095289035
0.128166074,0.692194618,0.084271288,0.09536802
0.12808861,0.691388294,0.085075378,0.095447719
0.128010107,0.690577995,0.085883753,0.095528145
0.127930561,0.689763753,0.086696377,0.095609309
0.127849967,0.688945593,0.087513213,0.095691227
0.12776832,0.688123545,0.088334225,0.09577391
0.127685615,0.687297641,0.089159374,0.09585737
0.127601845,0.686467915,0.08998862,0.09594162
0.125511801,0.772671586,0.017732579,0.084084034
0.125420292,0.772735007,0.017730686,0.084114014
0.125328857,0.772798356,0.017728742,0.084144045
0.125237496,0.772861633,0.017726744,0.084174126
0.125146211,0.772924839,0.017724694,0.084204256
0.125055001,0.772987974,0.017722592,0.084234433
0.124963867,0.773051039,0.017720436,0.084264658
0.124872811,0.773114033,0.017718228,0.084294927
0.124781834,0.773176959,0.017715966,0.084325241
0.124690935,0.773239815,0.017713651,0.084355598
0.124600116,0.773302605,0.017711281,0.084385997
0.124509378,0.773365329,0.017708857,0.084416436
0.124418719,0.773427989,0.017706377,0.084446915
0.124328142,0.773490587,0.017703841,0.084477431
0.124237646,0.773553123,0.017701248,0.084507983
0.124147231,0.773615599,0.017698599,0.08453857
0.124056899,0.773678018,0.017695893,0.084569191
0.123966649,0.77374038,0.017693129,0.084599843
0.123876482,0.773802686,0.017690307,0.084630525
0.123786399,0.773864939,0.017687427,0.084661236
0.123696399,0.773927139,0.017684489,0.084691973
0.123606485,0.773989288,0.017681491,0.084722736
0.123516657,0.774051386,0.017678434,0.084753523
0.123426915,0.774113436,0.017675317,0.084784332
0.12333726,0.774175438,0.01767214,0.084815161
0.123247694,0.774237393,0.017668903,0.08484601
0.123158218,0.774299303,0.017665603,0.084876875
0.123068832,0.774361169,0.017662242,0.084907757
0.122979539,0.774422991,0.017658818,0.084938652
0.122890338,0.774484771,0.01765533,0.084969561
0.122801233,0.77454651,0.017651778,0.085000479
0.122712224,0.774608207,0.017648162,0.085031407
0.122623313,0.774669864,0.01764448,0.085062342
0.122534502,0.774731482,0.017640733,0.085093283
0.122445792,0.77479306,0.017636921,0.085124227
0.122357184,0.7748546,0.017633043,0.085155173
0.122268681,0.774916102,0.017629099,0.085186119
0.122180282,0.774977566,0.017625089,0.085217063
0.122091989,0.775038994,0.017621012,0.085248004
0.122003804,0.775100386,0.017616869,0.08527894
0.121915727,0.775161744,0.01761266,0.085309869
0.121827761,0.775223067,0.017608383,0.085340788
0.121739905,0.775284358,0.017604039,0.085371698
0.121652162,0.775345616,0.017599628,0.085402594
0.121564533,0.775406843,0.017595148,0.085433477
0.121477018,0.77546804,0.017590599,0.085464343
0.12138962,0.775529208,0.01758598,0.085495192
0.12130234,0.775590348,0.017581291,0.085526021
0.121215179,0.775651461,0.017576533,0.085556828
0.121128139,0.775712546,0.017571703,0.085587612
0.121041223,0.775773603,0.017566803,0.085618372
0.120954432,0.775834632,0.017561831,0.085649105
0.120867769,0.775895632,0.017556789,0.08567981
0.120781236,0.775956603,0.017551676,0.085710485
0.120694836,0.776017544,0.017546491,0.08574113
0.120608571,0.776078454,0.017541234,0.085771741
0.120522444,0.776139333,0.017535906,0.085802317
0.120436458,0.776200179,0.017530506,0.085832857
0.120350617,0.776260992,0.017525033,0.085863359
0.120264924,0.77632177,0.017519486,0.08589382
0.120179382,0.776382511,0.017513867,0.085924239
0.120093996,0.776443216,0.017508173,0.085954615
0.120008768,0.776503882,0.017502405,0.085984945
0.119923702,0.776564509,0.017496562,0.086015227
0.119838803,0.776625094,0.017490644,0.086045459
0.119754072,0.776685638,0.01748465,0.08607564
0.119669516,0.776746137,0.017478581,0.086105766
0.119585138,0.776806589,0.017472436,0.086135837
0.119500942,0.776866992,0.017466215,0.08616585
0.119416932,0.776927346,0.017459918,0.086195804
0.119333112,0.776987647,0.017453545,0.086225695
0.119249485,0.777047895,0.017447097,0.086255524
0.119166054,0.777108087,0.017440572,0.086285287
0.119082823,0.777168223,0.01743397,0.086314984
0.118999795,0.7772283,0.017427293,0.086344612
0.118916973,0.777288318,0.017420539,0.08637417
0.118834361,0.777348274,0.017413708,0.086403658
0.118751961,0.777408167,0.0174068,0.086433072
0.118669777,0.777467996,0.017399816,0.086462412
0.11858781,0.777527761,0.017392753,0.086491676
0.118506065,0.77758746,0.017385613,0.086520862
0.118424543,0.777647092,0.017378395,0.086549969
0.118343248,0.777706656,0.017371099,0.086578996
0.118262182,0.777766151,0.017363726,0.086607941
0.118181347,0.777825575,0.017356275,0.086636803
0.118100746,0.777884927,0.017348746,0.08666558
0.118020381,0.777944206,0.01734114,0.086694272
0.117940253,0.778003412,0.017333457,0.086722878
0.117860364,0.778062542,0.017325697,0.086751396
0.117780716,0.778121598,0.017317861,0.086779825
0.117701311,0.778180577,0.017309947,0.086808165
0.117622149,0.778239481,0.017301956,0.086836415
0.117543232,0.778298307,0.017293888,0.086864573
0.117464561,0.778357056,0.017285742,0.086892641
0.117386137,0.778415728,0.017277518,0.086920616
0.117307962,0.778474323,0.017269217,0.086948498
0.117230037,0.778532839,0.017260836,0.086976287
0.117152363,0.778591277,0.017252378,0.087003982
0.117074942,0.778649635,0.01724384,0.087031582
0.116997776,0.778707913,0.017235224,0.087059087
0.116920865,0.778766109,0.01722653,0.087086495
0.116844212,0.778824222,0.017217758,0.087113808
0.116767818,0.778882249,0.017208908,0.087141024
0.116691686,0.77894019,0.017199981,0.087168143
0.116615817,0.778998043,0.017190976,0.087195165
0.116540213,0.779055805,0.017181894,0.087222088
0.116464877,0.779113477,0.017172735,0.087248912
0.11638981,0.779171055,0.017163499,0.087275636
0.116315015,0.77922854,0.017154186,0.08730226
0.116240493,0.779285929,0.017144795,0.087328782
0.116166248,0.779343222,0.017135328,0.087355203
0.11609228,0.779400417,0.017125783,0.08738152
0.116018592,0.779457514,0.01711616,0.087407734
0.115945186,0.779514512,0.017106459,0.087433842
0.115872064,0.77957141,0.017096681,0.087459845
0.115799228,0.779628207,0.017086825,0.08748574
0.115726678,0.779684903,0.017076892,0.087511527
0.115654418,0.779741497,0.017066881,0.087537205
0.115582448,0.779797987,0.017056793,0.087562773
0.11551077,0.779854373,0.017046628,0.08758823
0.115439386,0.779910654,0.017036386,0.087613574
0.115368297,0.77996683,0.017026068,0.087638805
0.115297506,0.780022899,0.017015674,0.087663921
0.115227014,0.780078861,0.017005204,0.087688921
0.115156823,0.780134715,0.016994659,0.087713803
0.115086935,0.78019046,0.016984037,0.087738567
0.115017353,0.780246096,0.01697334,0.087763211
0.114948078,0.780301621,0.016962567,0.087787734
0.114879112,0.780357035,0.016951718,0.087812135
0.114810456,0.780412338,0.016940793,0.087836412
0.114742112,0.78046753,0.016929793,0.087860565
0.114674082,0.780522608,0.016918717,0.087884593
0.114606367,0.780577572,0.016907567,0.087908494
0.11453897,0.78063242,0.016896342,0.087932268
0.114471892,0.780687151,0.016885042,0.087955915
0.114405136,0.780741763,0.01687367,0.087979432
0.114338702,0.780796254,0.016862224,0.08800282
0.114272592,0.780850624,0.016850707,0.088026077
0.114206809,0.780904871,0.016839118,0.088049202
0.114141354,0.780958994,0.016827457,0.088072195
0.114076228,0.781012992,0.016815726,0.088095055
0.114011434,0.781066863,0.016803924,0.08811778
0.113946972,0.781120606,0.016792052,0.08814037
0.113882846,0.781174219,0.01678011,0.088162824
0.113819056,0.781227703,0.016768099,0.088185142
0.113755605,0.781281054,0.016756019,0.088207322
0.113692494,0.781334272,0.016743869,0.088229365
0.113629725,0.781387356,0.016731651,0.088251268
0.113567299,0.781440304,0.016719364,0.088273033
0.113505219,0.781493113,0.01670701,0.088294658
0.113443485,0.781545782,0.016694589,0.088316144
0.1133821,0.781598309,0.016682101,0.08833749
0.113321064,0.78165069,0.016669549,0.088358697
0.113260378,0.781702925,0.016656931,0.088379765
0.113200044,0.781755011,0.01664425,0.088400695
0.113140063,0.781806945,0.016631506,0.088421485
0.113080436,0.781858727,0.0166187,0.088442138
0.113021163,0.781910353,0.016605832,0.088462652
0.112962246,0.781961822,0.016592903,0.088483029
0.112903685,0.782013132,0.016579914,0.088503268
0.112845483,0.782064281,0.016566865,0.088523372
0.112787638,0.782115267,0.016553756,0.088543339
0.112730153,0.782166089,0.016540587,0.088563171
0.112673027,0.782216745,0.016527359,0.088582868
0.112616262,0.782267234,0.016514073,0.088602431
0.112559858,0.782317552,0.01650073,0.08862186
0.112503815,0.782367699,0.016487329,0.088641157
0.112448134,0.782417672,0.016473873,0.088660321
0.112392816,0.78246747,0.016460361,0.088679354
0.112337861,0.782517089,0.016446795,0.088698255
0.112283269,0.782566528,0.016433177,0.088717026
0.112229041,0.782615785,0.016419506,0.088735668
0.112175178,0.782664858,0.016405785,0.088754179
0.112121679,0.782713744,0.016392015,0.088772562
0.112068545,0.782762442,0.016378196,0.088790817
0.112015776,0.78281095,0.016364331,0.088808944
0.111963373,0.782859265,0.016350419,0.088826943
0.111911335,0.782907386,0.016336462,0.088844816
0.111859665,0.782955311,0.016322461,0.088862563
0.111808361,0.783003039,0.016308418,0.088880183
0.111757426,0.783050566,0.016294332,0.088897676
0.111706858,0.783097892,0.016280206,0.088915044
0.11165666,0.783145014,0.01626604,0.088932286
0.111606831,0.783191931,0.016251836,0.088949402
0.111557372,0.78323864,0.016237596,0.088966393
0.111508282,0.78328514,0.01622332,0.088983259
0.111459562,0.783331428,0.016209009,0.089
0.111411212,0.783377505,0.016194666,0.089016617
0.111363232,0.783423369,0.01618029,0.08903311
0.111315621,0.783469018,0.016165883,0.089049478
0.11126838,0.783514453,0.016151446,0.089065721
0.111221508,0.783559673,0.01613698,0.08908184
0.111175005,0.783604678,0.016122485,0.089097832
0.111128871,0.783649467,0.016107962,0.089113699
0.111083106,0.783694041,0.016093413,0.08912944
0.111037709,0.7837384,0.016078836,0.089145055
0.11099268,0.783782543,0.016064234,0.089160542
0.110948019,0.783826471,0.016049608,0.089175903
0.110903726,0.783870182,0.016034957,0.089191135
0.110859802,0.783913677,0.016020282,0.089206239
0.110816247,0.783956953,0.016005586,0.089221214
0.110773061,0.78400001,0.015990868,0.089236061
0.110730244,0.784042848,0.015976131,0.089250777
0.110687798,0.784085464,0.015961375,0.089265364
0.11064572,0.784127859,0.015946601,0.08927982
0.110604012,0.784170031,0.015931811,0.089294146
0.110562673,0.78421198,0.015917006,0.089308341
0.110521703,0.784253705,0.015902187,0.089322405
0.110481104,0.784295204,0.015887354,0.089336337
0.110440876,0.784336476,0.015872509,0.089350138
0.110401021,0.784377519,0.015857653,0.089363806
0.110361539,0.784418332,0.015842786,0.089377343
0.110322431,0.784458913,0.01582791,0.089390746
0.110283698,0.784499261,0.015813025,0.089404016
0.110245343,0.784539373,0.015798131,0.089417153
0.110207365,0.784579249,0.015783231,0.089430155
0.110169769,0.784618884,0.015768324,0.089443023
0.110132554,0.784658276,0.015753413,0.089455757
0.110095725,0.784697422,0.015738498,0.089468355
0.110059282,0.78473632,0.01572358,0.089480819
0.110023228,0.784774965,0.01570866,0.089493147
0.109987565,0.784813354,0.01569374,0.089505341
0.109952295,0.784851486,0.015678819,0.0895174
0.10991742,0.784889356,0.0156639,0.089529324
0.109882943,0.784926961,0.015648983,0.089541112
0.109848866,0.784964299,0.015634069,0.089552767
0.109815189,0.785001367,0.015619157,0.089564287
0.109781915,0.785038163,0.01560425,0.089575673
0.109749045,0.785074684,0.015589346,0.089586925
0.10971658,0.78511093,0.015574448,0.089598043
0.109684522,0.785146897,0.015559555,0.089609027
0.109652872,0.785182583,0.015544668,0.089619877
0.109621631,0.785217987,0.015529787,0.089630595
0.109590801,0.785253104,0.015514914,0.08964118
0.109560383,0.785287934,0.01550005,0.089651633
0.109530377,0.785322475,0.015485194,0.089661954
0.109500784,0.785356724,0.015470349,0.089672143
0.109471604,0.785390681,0.015455515,0.089682201
0.109442839,0.785424344,0.015440691,0.089692125
0.109414488,0.785457714,0.01542588,0.089701917
0.109386553,0.785490789,0.015411082,0.089711576
0.109359034,0.785523568,0.015396298,0.0897211
0.109331932,0.785556052,0.015381527,0.089730489
0.109305247,0.78558824,0.015366772,0.089739741
0.10927898,0.785620133,0.015352032,0.089748855
0.10925313,0.785651731,0.015337308,0.08975783
0.109227697,0.785683035,0.015322602,0.089766665
0.109202683,0.785714045,0.015307914,0.089775358
0.109178086,0.78574476,0.015293246,0.089783908
0.109153908,0.78577518,0.015278598,0.089792314
0.10913015,0.785805304,0.015263972,0.089800573
0.109106813,0.785835133,0.015249369,0.089808685
0.109083898,0.785864665,0.01523479,0.089816647
0.109061405,0.7858939,0.015220236,0.089824458
0.109039335,0.78592284,0.015205708,0.089832117
0.109017689,0.785951483,0.015191208,0.08983962
0.108996467,0.78597983,0.015176735,0.089846968
0.108975671,0.786007881,0.015162292,0.089854156
0.1089553,0.786035636,0.015147879,0.089861185
0.108935356,0.786063095,0.015133498,0.089868052
0.108915839,0.786090259,0.015119148,0.089874754
0.10889675,0.786117128,0.015104832,0.08988129
0.108878089,0.786143704,0.01509055,0.089887657
0.108859858,0.786169986,0.015076302,0.089893854
0.108842058,0.786195974,0.015062091,0.089899877
0.108824688,0.786221668,0.015047917,0.089905727
0.108807751,0.786247066,0.015033783,0.0899114
0.108791245,0.78627217,0.015019689,0.089916896
0.108775173,0.786296979,0.015005637,0.089922211
0.108759533,0.786321493,0.014991628,0.089927346
0.108744326,0.786345712,0.014977664,0.089932298
0.108729551,0.786369638,0.014963746,0.089937065
0.10871521,0.786393269,0.014949874,0.089941647
0.108701301,0.786416606,0.014936051,0.089946042
0.108687825,0.786439649,0.014922278,0.089950248
0.108674783,0.7864624,0.014908555,0.089954263
0.108662173,0.786484857,0.014894883,0.089958086
0.108649997,0.786507023,0.014881263,0.089961717
0.108638254,0.786528896,0.014867697,0.089965153
0.108626945,0.786550476,0.014854185,0.089968394
0.108616069,0.786571765,0.014840728,0.089971438
0.108605627,0.786592762,0.014827326,0.089974285
0.108595621,0.786613465,0.014813983,0.089976931
0.10858605,0.786633876,0.014800697,0.089979378
0.108576914,0.786653992,0.014787471,0.089981622
0.108568216,0.786673814,0.014774306,0.089983664
0.108559955,0.78669334,0.014761203,0.089985502
0.108552133,0.786712569,0.014748163,0.089987135
0.108544748,0.786731501,0.014735187,0.089988564
0.108537802,0.786750133,0.014722277,0.089989788
0.108531295,0.786768464,0.014709434,0.089990807
0.108525228,0.786786494,0.014696658,0.08999162
0.1085196,0.786804222,0.014683951,0.089992227
0.108514412,0.786821647,0.014671313,0.089992629
0.108509663,0.786838768,0.014658745,0.089992824
0.108505354,0.786855587,0.014646247,0.089992812
0.108501484,0.786872101,0.014633821,0.089992593
0.108498052,0.786888312,0.014621468,0.089992168
0.108495057,0.78690422,0.014609187,0.089991536
0.108492498,0.786919823,0.014596981,0.089990697
0.108490374,0.786935123,0.014584851,0.089989652
0.108488683,0.786950118,0.014572797,0.089988402
0.108487424,0.786964807,0.01456082,0.089986948
0.108486597,0.78697919,0.014548923,0.089985291
0.108486199,0.786993265,0.014537105,0.089983431
0.10848623,0.787007031,0.014525369,0.08998137
0.108486689,0.787020486,0.014513714,0.089979111
0.108487574,0.78703363,0.014502142,0.089976655
0.108488884,0.78704646,0.014490653,0.089974003
0.108490618,0.787058976,0.014479248,0.089971157
0.108492774,0.787071177,0.014467929,0.08996812
0.108495351,0.787083063,0.014456694,0.089964891
0.108498347,0.787094634,0.014445545,0.089961473
0.108501761,0.78710589,0.014434483,0.089957867
0.108505591,0.787116829,0.014423507,0.089954073
0.108509837,0.787127453,0.014412618,0.089950093
0.108514497,0.787137758,0.014401817,0.089945927
0.108519572,0.787147746,0.014391106,0.089941577
0.10852506,0.787157413,0.014380484,0.089937044
0.108530961,0.787166759,0.014369952,0.089932328
0.108537274,0.787175784,0.014359512,0.08992743
0.108543997,0.787184486,0.014349164,0.089922352
0.10855113,0.787192866,0.014338909,0.089917094
0.108558673,0.787200922,0.014328747,0.089911658
0.108566624,0.787208654,0.014318678,0.089906044
0.108574985,0.78721606,0.014308704,0.089900251
0.108583756,0.787223139,0.014298823,0.089894281
0.108592938,0.78722989,0.014289038,0.089888135
0.10860253,0.78723631,0.014279347,0.089881813
0.108612535,0.787242398,0.014269751,0.089875316
0.108622951,0.787248151,0.014260251,0.089868648
0.108633781,0.787253565,0.014250847,0.089861808
0.108645023,0.787258638,0.01424154,0.089854798
0.108656679,0.787263367,0.014232331,0.089847622
0.108668747,0.787267748,0.014223222,0.089840283
0.108681228,0.787271777,0.014214213,0.089832783
0.10869412,0.787275449,0.014205304,0.089825127
0.108707423,0.78727876,0.014196498,0.089817319
0.108721137,0.787281706,0.014187795,0.089809362
0.108735263,0.787284281,0.014179195,0.089801262
0.1087498,0.787286479,0.0141707,0.089793021
0.108764748,0.787288297,0.01416231,0.089784645
0.108780108,0.787289728,0.014154026,0.089776138
0.108795878,0.787290768,0.014145849,0.089767505
0.108812059,0.787291414,0.014137779,0.089758749
0.108828648,0.78729166,0.014129817,0.089749875
0.108845647,0.787291504,0.014121962,0.089740887
0.108863054,0.78729094,0.014114217,0.089731789
0.108880868,0.787289964,0.014106582,0.089722586
0.10889909,0.787288572,0.014099058,0.089713281
0.108917718,0.78728676,0.014091646,0.089703876
0.108936753,0.787284523,0.014084348,0.089694376
0.108956195,0.787281857,0.014077164,0.089684784
0.108976043,0.787278759,0.014070096,0.089675102
0.108996297,0.787275223,0.014063145,0.089665335
0.109016957,0.787271246,0.014056311,0.089655487
0.109038023,0.787266822,0.014049595,0.08964556
0.109059493,0.787261948,0.014042999,0.08963556
0.10908137,0.78725662,0.014036523,0.089625488
0.10910365,0.787250833,0.014030168,0.089615348
0.109126335,0.787244585,0.014023935,0.089605144
0.109149424,0.787237872,0.014017824,0.089594879
0.109172915,0.787230691,0.014011837,0.089584557
0.109196809,0.787223038,0.014005973,0.089574179
0.109221105,0.78721491,0.014000234,0.089563751
0.109245802,0.787206302,0.01399462,0.089553277
0.109270898,0.787197211,0.013989133,0.089542758
0.109296394,0.787187634,0.013983773,0.089532199
0.109322287,0.787177568,0.013978541,0.089521603
0.109348577,0.78716701,0.01397344,0.089510974
0.109375263,0.787155956,0.013968468,0.089500313
0.109402344,0.787144404,0.013963628,0.089489624
0.109429818,0.787132352,0.01395892,0.08947891
0.109457685,0.787119796,0.013954346,0.089468173
0.109485945,0.787106735,0.013949905,0.089457415
0.109514596,0.787093166,0.013945598,0.08944664
0.109543637,0.787079088,0.013941427,0.089435849
0.109573067,0.787064497,0.013937391,0.089425045
0.109602886,0.787049394,0.013933491,0.08941423
0.10963309,0.787033776,0.013929727,0.089403407
0.109663679,0.787017641,0.013926101,0.08939258
0.10969465,0.787000988,0.013922611,0.089381751
0.109726002,0.786983813,0.01391926,0.089370925
0.109757733,0.786966113,0.013916048,0.089360107
0.109789839,0.786947883,0.013912976,0.089349303
0.109822318,0.786929118,0.013910045,0.089338519
0.109855168,0.786909813,0.013907257,0.089327762
0.109888387,0.786889963,0.013904612,0.089317037
0.109921973,0.786869563,0.013902112,0.089306352
0.109955923,0.786848607,0.013899758,0.089295713
0.109990234,0.786827088,0.01389755,0.089285129
0.110024904,0.786805,0.013895489,0.089274607
0.110059932,0.786782336,0.013893576,0.089264155
0.110095317,0.786759089,0.013891812,0.089253782
0.110131058,0.78673525,0.013890197,0.089243495
0.110167155,0.786710813,0.013888731,0.089233301
0.110203608,0.786685769,0.013887416,0.089223207
0.11024042,0.78666011,0.01388625,0.089213219
0.110277591,0.786633827,0.013885237,0.089203345
0.110315125,0.786606908,0.013884375,0.089193591
