0.098224996,0.348719589,0.265949007,0.287106407
0.099198796,0.34776577,0.265355495,0.287679939
0.10018399,0.346802551,0.264754712,0.288258747
0.101180712,0.345829864,0.264146586,0.288842837
0.102189096,0.344847642,0.263531046,0.289432216
0.103209275,0.343855819,0.26290802,0.290026887
0.10424138,0.342854329,0.262277437,0.290626854
0.105285545,0.341843108,0.261639227,0.29123212
0.106341899,0.340822093,0.26099332,0.291842689
0.107410573,0.339791222,0.260339645,0.29245856
0.108491697,0.338750434,0.259678133,0.293079736
0.1095854,0.337699671,0.259008715,0.293706214
0.11069181,0.336638874,0.258331323,0.294337994
0.111811055,0.335567987,0.257645886,0.294975072
0.112943263,0.334486955,0.256952338,0.295617444
0.114088561,0.333395724,0.25625061,0.296265105
0.115247075,0.332294241,0.255540635,0.296918048
0.11641893,0.331182456,0.254822347,0.297576267
0.117604252,0.330060318,0.25409568,0.29823975
0.118803165,0.32892778,0.253360568,0.298908488
0.120015795,0.327784792,0.252616946,0.299582467
0.12124227,0.326631308,0.251864751,0.300261671
0.122482716,0.325467283,0.251103918,0.300946083
0.123737263,0.324292671,0.250334383,0.301635682
0.125006043,0.323107429,0.249556084,0.302330445
0.126289188,0.321911512,0.248768956,0.303030345
0.127586833,0.320704877,0.247972936,0.303735354
0.128899113,0.319487484,0.247167963,0.30444544
0.130226162,0.318259293,0.246353977,0.305160567
0.131568114,0.317020266,0.24553092,0.305880701
0.132925101,0.315770368,0.244698732,0.3066058
0.134297257,0.314509565,0.243857356,0.307335822
0.135684717,0.313237825,0.243006734,0.308070723
0.137087618,0.311955119,0.242146811,0.308810453
0.138506094,0.310661417,0.24127753,0.30955496
0.139940282,0.309356692,0.240398835,0.310304191
0.14139032,0.308040922,0.239510671,0.311058087
0.142856346,0.306714086,0.238612983,0.311816585
0.144338495,0.305376165,0.237705719,0.312579621
0.145836902,0.304027146,0.236788826,0.313347126
0.147351699,0.302667017,0.235862254,0.314119029
0.148883017,0.301295772,0.234925954,0.314895257
0.150430983,0.299913404,0.23397988,0.315675734
0.151995721,0.298519913,0.233023986,0.31646038
0.153577355,0.2971153,0.23205823,0.317249114
0.155176006,0.29569957,0.231082571,0.318041853
0.156791791,0.294272732,0.230096968,0.318838509
0.158424826,0.292834797,0.229101383,0.319638995
0.160075223,0.291385781,0.22809578,0.320443217
0.16174309,0.289925702,0.227080124,0.321251083
0.163428534,0.288454584,0.226054384,0.322062498
0.165131655,0.286972452,0.225018527,0.322877366
0.166852552,0.285479335,0.223972526,0.323695587
0.168591318,0.283975267,0.222916354,0.324517061
0.170348042,0.282460286,0.221849989,0.325341683
0.172122812,0.280934435,0.220773407,0.326169346
0.173915709,0.279397761,0.219686592,0.326999938
0.175726812,0.277850314,0.218589528,0.327833346
0.177556197,0.276292152,0.217482201,0.328669451
0.179403933,0.274723333,0.216364602,0.329508132
0.181270085,0.273143924,0.215236725,0.330349266
0.183154715,0.271553995,0.214098567,0.331192723
0.185057874,0.269953623,0.212950128,0.332038375
0.186979611,0.268342891,0.211791412,0.332886086
0.188919967,0.266721884,0.210622427,0.333735721
0.19087898,0.265090693,0.209443187,0.33458714
0.192856679,0.263449414,0.208253707,0.3354402
0.19485309,0.261798146,0.207054007,0.336294757
0.196868234,0.260136992,0.205844111,0.337150663
0.198902125,0.258466065,0.204624045,0.338007766
0.200954771,0.256785478,0.20339384,0.338865911
0.203026175,0.255095353,0.202153533,0.33972494
0.205116327,0.253395819,0.200903161,0.340584693
0.207225215,0.251687007,0.199642771,0.341445007
0.209352816,0.249969056,0.19837241,0.342305717
0.211499103,0.248242111,0.197092131,0.343166655
0.213664039,0.246506321,0.195801991,0.34402765
0.215847581,0.244761842,0.19450205,0.344888526
0.218049679,0.243008838,0.193192374,0.345749109
0.220270274,0.241247475,0.191873032,0.346609219
0.222509297,0.239477928,0.190544099,0.347468677
0.224766672,0.237700375,0.189205652,0.348327301
0.227042315,0.235915,0.187857776,0.34918491
0.229336132,0.234121992,0.186500556,0.35004132
0.231648023,0.232321544,0.185134087,0.350896346
0.23397788,0.230513857,0.183758463,0.3517498
0.236325584,0.228699133,0.182373787,0.352601495
0.238691011,0.226877584,0.180980166,0.353451239
0.241074025,0.225049425,0.17957771,0.35429884
0.243474484,0.223214878,0.178166535,0.355144104
0.245892236,0.221374168,0.176746761,0.355986834
0.248327124,0.219527529,0.175318515,0.356826832
0.25077898,0.217675195,0.173881927,0.357663899
0.253247629,0.215817407,0.172437132,0.358497832
0.255732888,0.213954414,0.170984269,0.359328429
0.258234565,0.212086465,0.169523483,0.360155486
0.260752458,0.21021382,0.168054924,0.360978798
0.263286356,0.208336742,0.166578746,0.361798157
0.265836036,0.206455499,0.165095109,0.362613356
0.268401267,0.204570365,0.16360418,0.363424187
0.27098181,0.20268162,0.162106129,0.364230441
0.273577415,0.200789545,0.16060113,0.36503191
0.276187824,0.198894429,0.159089363,0.365828384
0.27881277,0.196996563,0.157571012,0.366619655
0.281451977,0.195096242,0.156046267,0.367405513
0.284105162,0.193193769,0.154515322,0.368185748
0.286772033,0.191289446,0.152978373,0.368960147
0.289452294,0.189383584,0.151435623,0.369728499
0.292145641,0.187476495,0.149887277,0.370490586
0.294851764,0.185568496,0.148333545,0.371246195
0.297570344,0.183659908,0.14677464,0.371995108
0.300301054,0.181751056,0.145210778,0.372737112
0.30304356,0.179842268,0.14364218,0.373471991
0.30579752,0.177933878,0.142069072,0.37419953
0.308562586,0.176026223,0.140491681,0.37491951
0.311338402,0.174119643,0.138910242,0.375631713
0.314124606,0.172214481,0.137324994,0.37633592
0.316920829,0.170311083,0.135736178,0.37703191
0.319726697,0.168409798,0.134144044,0.377719461
0.322541828,0.166510977,0.13254884,0.378398355
0.325365831,0.164614976,0.130950822,0.379068371
0.328198308,0.162722151,0.129350249,0.379729293
0.331038851,0.160832861,0.127747381,0.380380907
0.333887048,0.158947467,0.126142486,0.381022999
0.33674248,0.157066328,0.124535831,0.381655361
0.339604723,0.155189806,0.122927689,0.382277782
0.342473347,0.153318263,0.121318334,0.382890055
0.345347917,0.151452064,0.119708044,0.383491975
0.348227992,0.149591572,0.118097099,0.384083337
0.351113125,0.147737155,0.11648578,0.38466394
0.354002861,0.145889179,0.114874375,0.385233585
0.356896744,0.144048009,0.113263171,0.385792076
0.35979431,0.142214012,0.111652459,0.38633922
0.362695094,0.140387551,0.110042529,0.386874825
0.365598629,0.138568992,0.108433677,0.387398703
0.36850444,0.136758696,0.106826196,0.387910669
0.371412052,0.134957025,0.105220382,0.388410541
0.374320984,0.133164341,0.103616533,0.388898142
0.377230754,0.131381002,0.102014947,0.389373298
0.380140876,0.129607364,0.10041592,0.38983584
0.383050862,0.127843782,0.098819753,0.390285603
0.385960221,0.126090607,0.097226743,0.390722429
0.388868461,0.124348187,0.095637191,0.391146161
0.391775087,0.122616867,0.094051395,0.391556651
0.394679605,0.120896987,0.092469654,0.391953754
0.39758152,0.119188887,0.090892264,0.392337329
0.400480333,0.117492903,0.089319523,0.392707242
0.403375547,0.115809365,0.087751727,0.393063361
0.406266666,0.114138603,0.086189168,0.393405563
0.409153193,0.11248094,0.08463214,0.393733727
0.412034637,0.110836693,0.083080933,0.394047737
0.414910508,0.109206178,0.081535834,0.394347481
0.41778032,0.107589702,0.07999713,0.394632847
0.420643588,0.105987572,0.078465106,0.394903734
0.423499828,0.104400085,0.076940043,0.395160045
0.426348555,0.102827534,0.07542222,0.395401691
0.429189287,0.101270208,0.073911916,0.395628589
0.432021545,0.099728386,0.072409405,0.395840664
0.434844851,0.098202345,0.070914959,0.396037845
0.437658731,0.096692354,0.069428845,0.396220071
0.440462714,0.095198675,0.067951328,0.396387282
0.443256334,0.093721566,0.06648267,0.396539431
0.446039126,0.092261275,0.065023127,0.396676472
0.448810631,0.090818046,0.063572955,0.396798369
0.45157039,0.089392114,0.062132401,0.396905095
0.454317952,0.087983707,0.060701712,0.396996629
0.457052869,0.086593046,0.059281128,0.397072957
0.4597747,0.085220344,0.057870886,0.397134071
0.462483008,0.083865804,0.056471216,0.397179971
0.465177366,0.082529625,0.055082347,0.397210662
0.467857352,0.081211996,0.0537045,0.397226152
0.470522551,0.0799131,0.052337893,0.397226456
0.473172556,0.078633114,0.05098274,0.39721159
0.475806968,0.077372207,0.049639248,0.397181577
0.478425393,0.076130538,0.048307621,0.397136448
0.481027444,0.074908261,0.046988058,0.397076237
0.483612743,0.07370552,0.045680752,0.397000985
0.486180918,0.07252245,0.044385891,0.39691074
0.488731604,0.071359181,0.043103659,0.396805556
0.491264442,0.070215833,0.041834233,0.396685492
0.493779079,0.069092518,0.040577788,0.396550614
0.49627517,0.067989342,0.039334492,0.396400996
0.498752379,0.066906399,0.038104508,0.396236714
0.501210379,0.065843778,0.036887992,0.396057851
0.503648851,0.064801556,0.035685095,0.395864498
0.506067485,0.063779803,0.034495962,0.39565675
0.508465983,0.062778579,0.033320732,0.395434706
0.510844053,0.061797936,0.032159536,0.395198475
0.513201413,0.060837917,0.031012501,0.394948168
0.515537792,0.059898559,0.029879746,0.394683903
0.517852925,0.058979891,0.028761383,0.3944058
0.520146561,0.058081934,0.027657521,0.394113984
0.522418452,0.057204701,0.026568259,0.393808588
0.524668364,0.056348199,0.025493691,0.393489746
0.526896071,0.055512425,0.024433904,0.393157599
0.529101355,0.054697373,0.023388981,0.392812291
0.531284012,0.053903026,0.022358995,0.392453967
0.533443847,0.053129363,0.021344016,0.392082775
0.535580674,0.052376355,0.020344106,0.391698866
0.53769432,0.051643967,0.019359321,0.391302393
0.539784621,0.050932157,0.018389712,0.39089351
0.541851426,0.050240878,0.017435323,0.390472373
0.54389459,0.049570077,0.016496194,0.390039139
0.545913981,0.048919693,0.015572358,0.389593968
0.547909474,0.048289662,0.01466384,0.389137024
0.549880959,0.047679909,0.013770661,0.38866847
0.551828334,0.047090353,0.012892839,0.388188474
0.553751507,0.046520907,0.012030381,0.387697205
0.555650395,0.045971478,0.011183294,0.387194834
0.557524922,0.045441966,0.010351577,0.386681535
0.55937502,0.044932268,0.009535225,0.386157486
0.56120063,0.044442275,0.008734227,0.385622868
0.563001701,0.043971872,0.007948566,0.38507786
0.56477819,0.04352094,0.007178224,0.384522646
0.566530064,0.043089351,0.006423174,0.38395741
0.568257297,0.042676975,0.005683388,0.38338234
0.569959868,0.042283676,0.00495883,0.382797626
0.571637767,0.041909311,0.004249462,0.382203461
0.57329099,0.041553734,0.003555239,0.381600037
0.574919543,0.041216793,0.002876115,0.380987549
0.57652344,0.040898331,0.002212036,0.380366193
0.578102704,0.040598188,0.001562946,0.379736163
0.579657365,0.040316196,0.000928783,0.379097657
0.58118746,0.040052185,0.000309482,0.378450874
0.582693036,0.039805979,-0.000295027,0.377796011
0.584174145,0.039577401,-0.000884816,0.37713327
0.585630847,0.039366268,-0.001459963,0.376462848
0.58706321,0.039172398,-0.00202055,0.375784942
0.588471309,0.038995602,-0.002566659,0.375099748
0.589855225,0.038835694,-0.003098378,0.374407458
0.591215048,0.038692484,-0.003615796,0.373708264
0.592550873,0.038565782,-0.004119008,0.373002353
0.593862802,0.038455394,-0.004608109,0.372289913
0.595150941,0.038361127,-0.005083199,0.371571132
0.596415404,0.038282783,-0.00554438,0.370846194
0.597656309,0.038220164,-0.005991758,0.370115285
0.598873781,0.038173069,-0.006425441,0.36937859
0.600067948,0.038141296,-0.006845538,0.368636294
0.601238944,0.038124638,-0.007252162,0.367888579
0.602386907,0.038122891,-0.007645428,0.36713563
0.603511982,0.038135843,-0.008025455,0.36637763
0.604614317,0.038163286,-0.008392362,0.365614758
0.605694067,0.038205009,-0.00874627,0.364847195
0.606751386,0.0382608,-0.009087303,0.364075117
0.607786436,0.038330448,-0.009415584,0.3632987
0.60879938,0.038413745,-0.00973124,0.362518116
0.609790385,0.03851048,-0.010034398,0.361733533
0.610759622,0.038620445,-0.010325186,0.360945119
0.611707266,0.038743431,-0.010603734,0.360153038
0.612633495,0.03887923,-0.010870176,0.359357451
0.613538493,0.039027633,-0.011124644,0.358558518
0.614422443,0.039188434,-0.011367271,0.357756394
0.615285533,0.039361429,-0.011598194,0.356951232
0.616127953,0.039546415,-0.011817548,0.35614318
0.616949892,0.039743191,-0.012025467,0.355332384
0.617751547,0.039951554,-0.012222091,0.35451899
0.618533114,0.040171302,-0.012407556,0.35370314
0.619294793,0.040402236,-0.012582003,0.352884974
0.620036785,0.040644152,-0.01274557,0.352064633
0.620759293,0.04089685,-0.012898399,0.351242256
0.621462521,0.041160133,-0.013040632,0.350417977
0.622146673,0.041433805,-0.013172409,0.349591931
0.622811953,0.041717671,-0.013293872,0.348764248
0.623458563,0.042011541,-0.01340516,0.347935056
0.62408671,0.042315223,-0.013506416,0.347104483
0.624696598,0.042628527,-0.013597777,0.346272652
0.625288435,0.042951264,-0.013679385,0.345439687
0.625862427,0.043283247,-0.013751381,0.344605706
0.626418784,0.04362429,-0.013813903,0.343770829
0.626957714,0.043974208,-0.013867092,0.342935171
0.627479425,0.044332817,-0.01391109,0.342098847
0.62798413,0.044699934,-0.013946034,0.34126197
0.628472038,0.045075377,-0.013972065,0.340424651
0.628943362,0.045458964,-0.013989323,0.339586998
0.629398313,0.045850514,-0.013997946,0.338749119
0.629837105,0.046249848,-0.013998074,0.337911121
0.630259949,0.046656788,-0.013989844,0.337073107
0.630667056,0.047071156,-0.013973395,0.336235182
0.631058637,0.04749278,-0.013948864,0.335397447
0.631434902,0.047921485,-0.013916388,0.334560002
0.63179606,0.048357102,-0.013876105,0.333722943
0.632142319,0.048799463,-0.01382815,0.332886369
0.632473886,0.049248401,-0.013772658,0.332050372
0.632790968,0.04970375,-0.013709764,0.331215046
0.63309377,0.050165348,-0.0136396,0.330380483
0.633382497,0.050633032,-0.0135623,0.329546771
0.633657354,0.051106643,-0.013477994,0.328713997
0.633918545,0.051586022,-0.013386814,0.327882247
0.634166273,0.052071011,-0.01328889,0.327051606
0.634400741,0.052561455,-0.013184349,0.326222153
0.634622152,0.053057202,-0.013073322,0.325393967
0.634830708,0.053558099,-0.012955934,0.324567126
0.63502661,0.054063996,-0.012832311,0.323741705
0.635210059,0.054574744,-0.012702579,0.322917776
0.635381254,0.055090197,-0.012566861,0.32209541
0.635540394,0.055610209,-0.01242528,0.321274677
0.635687675,0.05613464,-0.012277958,0.320455643
0.635823295,0.056663347,-0.012125015,0.319638373
0.635947446,0.057196194,-0.011966571,0.318822931
0.636060322,0.057733045,-0.011802743,0.318009376
0.636162112,0.058273766,-0.011633648,0.317197769
0.636253006,0.058818227,-0.0114594,0.316388167
0.636333189,0.059366296,-0.011280114,0.315580628
0.636402847,0.059917849,-0.011095902,0.314775207
0.636462163,0.060472758,-0.010906877,0.313971956
0.63651132,0.0610309,-0.010713148,0.313170928
0.636550499,0.061592155,-0.010514826,0.312372172
0.636579879,0.062156401,-0.010312017,0.311575737
0.636599637,0.062723522,-0.010104829,0.31078167
0.63660995,0.063293401,-0.009893368,0.309990017
0.636610992,0.063865923,-0.009677737,0.309200822
0.636602936,0.064440978,-0.009458041,0.308414127
0.636585951,0.065018454,-0.009234379,0.307629975
0.636560204,0.065598244,-0.009006853,0.306848406
0.636525859,0.066180243,-0.008775561,0.306069458
0.636483079,0.066764348,-0.008540597,0.30529317
0.636432022,0.067350457,-0.008302058,0.304519578
0.636372845,0.067938472,-0.008060034,0.303748717
0.636305703,0.068528294,-0.007814616,0.302980619
0.63623075,0.069119828,-0.007565895,0.302215317
0.636148136,0.06971298,-0.007313957,0.301452841
0.636058011,0.070307656,-0.007058891,0.300693223
0.635960523,0.070903767,-0.006800781,0.29993649
0.635855818,0.071501224,-0.006539712,0.299182669
0.635744041,0.072099941,-0.006275767,0.298431786
0.635625333,0.072699831,-0.006009029,0.297683865
0.635499836,0.073300812,-0.005739578,0.29693893
0.635367688,0.0739028,-0.005467493,0.296197005
0.635229025,0.074505716,-0.005192852,0.295458111
0.635083983,0.075109479,-0.004915733,0.294722271
0.634932692,0.075714013,-0.004636211,0.293989505
0.634775284,0.076319244,-0.00435436,0.293259832
0.634611886,0.076925098,-0.004070253,0.292533269
0.634442623,0.077531506,-0.003783962,0.291809833
0.634267622,0.078138397,-0.003495558,0.291089539
0.634087004,0.078745705,-0.003205109,0.290372399
0.633900893,0.079353365,-0.002912684,0.289658426
0.633709408,0.079961313,-0.00261835,0.288947629
0.633512667,0.080569486,-0.002322171,0.288240018
0.633310788,0.081177823,-0.002024213,0.287535603
0.633103884,0.081786263,-0.00172454,0.286834392
0.632892072,0.082394747,-0.001423213,0.286136393
0.632675464,0.083003217,-0.001120293,0.285441612
0.632454172,0.083611615,-0.000815843,0.284750056
0.632228305,0.084219886,-0.00050992,0.28406173
0.631997971,0.084827973,-0.000202583,0.283376639
0.631763277,0.085435825,0.000106111,0.282694787
0.631524328,0.086043388,0.000416105,0.282016179
0.631281227,0.086650613,0.000727345,0.281340815
0.631034075,0.08725745,0.001039778,0.280668698
0.63078297,0.087863852,0.00135335,0.279999828
0.630528013,0.088469772,0.001668011,0.279334204
0.6302693,0.089075166,0.001983709,0.278671825
0.630006927,0.089679989,0.002300396,0.278012687
0.629740989,0.090284198,0.002618024,0.27735679
0.629471578,0.090887748,0.002936545,0.276704128
0.629198788,0.091490601,0.003255914,0.276054698
0.628922708,0.092092714,0.003576084,0.275408495
0.628643426,0.092694048,0.003897012,0.274765514
0.62836103,0.093294566,0.004218654,0.27412575
0.628075606,0.093894229,0.004540969,0.273489196
0.627787236,0.094493002,0.004863915,0.272855847
0.627496005,0.095090849,0.005187452,0.272225695
0.627201991,0.095687736,0.005511539,0.271598733
0.626905276,0.096283631,0.005836139,0.270974953
0.626605938,0.096878502,0.006161212,0.270354348
0.626304055,0.097472315,0.006486722,0.269736908
0.625999702,0.098065042,0.006812631,0.269122626
0.625692955,0.09865665,0.007138902,0.268511493
0.625383886,0.09924711,0.007465501,0.267903503
0.625072569,0.099836394,0.007792391,0.267298645
0.624759075,0.100424473,0.00811954,0.266696913
0.624443472,0.10101132,0.008446911,0.266098297
0.62412583,0.101596907,0.008774473,0.265502789
0.623806217,0.102181209,0.009102193,0.264910381
0.623484699,0.1027642,0.009430038,0.264321062
0.623161341,0.103345856,0.009757978,0.263734825
0.622836207,0.103926152,0.01008598,0.26315166
0.622509361,0.104505066,0.010414016,0.262571557
0.622180863,0.105082576,0.010742055,0.261994505
0.621850775,0.10565866,0.011070069,0.261420496
0.621519155,0.106233297,0.01139803,0.260849518
0.621186062,0.106806467,0.01172591,0.260281561
0.620851554,0.107378148,0.012053682,0.259716616
0.620515684,0.107948322,0.012381323,0.259154671
0.620178509,0.108516967,0.012708806,0.258595717
0.619840082,0.109084067,0.013036108,0.258039743
0.619500454,0.109649601,0.013363205,0.25748674
0.619159677,0.110213552,0.013690075,0.256936696
0.618817803,0.110775902,0.014016693,0.256389602
0.618474881,0.111336633,0.014343039,0.255845447
0.61813096,0.111895729,0.01466909,0.255304221
0.617786088,0.112453174,0.014994824,0.254765914
0.617440312,0.113008951,0.015320222,0.254230515
0.617093677,0.113563046,0.015645264,0.253698013
0.616746227,0.114115444,0.01596993,0.2531684
0.616398007,0.11466613,0.016294201,0.252641662
0.61604906,0.115215091,0.016618059,0.25211779
0.615699428,0.115762314,0.016941486,0.251596772
0.615349152,0.116307787,0.017264465,0.251078596
0.614998274,0.116851498,0.017586977,0.25056325
0.614646836,0.117393435,0.017909007,0.250050723
0.614294877,0.117933586,0.018230537,0.249541001
0.613942436,0.11847194,0.018551552,0.249034071
0.613589553,0.11900849,0.018872036,0.248529922
0.613236265,0.119543223,0.019191973,0.248028539
0.612882609,0.120076131,0.01951135,0.24752991
0.612528622,0.120607206,0.019830151,0.247034022
0.612174339,0.121136439,0.020148362,0.24654086
0.611819796,0.121663822,0.020465969,0.246050413
0.611465027,0.122189349,0.020782959,0.245562665
0.611110064,0.122713013,0.021099319,0.245077604
0.610754939,0.123234809,0.021415036,0.244595216
0.610399684,0.123754731,0.021730099,0.244115486
0.610044328,0.124272773,0.022044497,0.243638402
0.609688903,0.124788931,0.022358218,0.243163948
0.609333435,0.125303202,0.022671253,0.24269211
0.608977951,0.125815584,0.022983591,0.242222875
0.608622476,0.126326075,0.023295223,0.241756226
0.608267035,0.126834675,0.023606139,0.241292151
0.60791165,0.127341386,0.023916331,0.240830633
0.607556344,0.127846209,0.02422579,0.240371658
0.607201135,0.128349148,0.024534507,0.23991521
0.606846045,0.128850206,0.024842475,0.239461274
0.606491091,0.129349389,0.025149686,0.239009834
0.606136293,0.1298467,0.025456133,0.238560874
0.605781667,0.130342144,0.025761809,0.23811438
0.605427231,0.130835726,0.026066708,0.237670335
0.605073001,0.131327452,0.026370822,0.237228725
0.604718992,0.131817328,0.026674147,0.236789534
0.604365219,0.132305359,0.026976676,0.236352747
0.604011695,0.132791552,0.027278403,0.23591835
0.603658435,0.133275913,0.027579325,0.235486327
0.603305451,0.13375845,0.027879435,0.235056664
0.602952757,0.134239168,0.028178729,0.234629346
0.602600365,0.134718075,0.028477202,0.234204358
0.602248287,0.135195176,0.02877485,0.233781687
0.601896536,0.135670479,0.029071666,0.233361318
0.601545124,0.136143991,0.029367649,0.232943237
0.601194061,0.136615717,0.029662792,0.232527429
0.600843358,0.137085667,0.029957093,0.232113882
0.600493024,0.137553849,0.030250547,0.23170258
0.600143069,0.138020272,0.03054315,0.231293509
0.599793502,0.138484945,0.030834898,0.230886655
0.599444329,0.13894788,0.031125789,0.230482003
0.599095558,0.139409085,0.031415819,0.230079538
0.598747196,0.139868573,0.031704985,0.229679246
0.598399249,0.140326355,0.031993284,0.229281112
0.598051722,0.140782441,0.032280715,0.228885122
0.597704622,0.141236842,0.032567274,0.228491263
0.597357952,0.141689571,0.032852958,0.228099519
0.597011718,0.142140638,0.033137767,0.227709876
0.596665925,0.142590055,0.033421698,0.227322321
0.596320577,0.143037834,0.03370475,0.22693684
0.595975678,0.143483984,0.03398692,0.226553418
0.595631231,0.143928519,0.034268207,0.226172043
0.595287238,0.14437145,0.034548611,0.2257927
0.594943703,0.144812789,0.034828131,0.225415377
0.594600626,0.145252549,0.035106766,0.225040058
0.594258009,0.145690745,0.035384516,0.224666731
0.593915852,0.146127388,0.03566138,0.224295381
0.593574154,0.146562494,0.035937358,0.223925994
0.593232916,0.146996078,0.03621245,0.223558556
0.592892134,0.147428155,0.036486657,0.223193054
0.592551808,0.147858741,0.036759979,0.222829473
0.592211935,0.148287851,0.037032416,0.222467798
0.591872512,0.148715502,0.037303969,0.222108017
0.591533538,0.149141708,0.037574639,0.221750116
0.591195009,0.149566484,0.037844427,0.221394079
0.590856924,0.149989846,0.038113336,0.221039894
0.590519278,0.150411809,0.038381366,0.220687547
0.59018207,0.150832388,0.038648518,0.220337024
0.589845296,0.151251598,0.038914795,0.219988311
0.589508951,0.151669455,0.039180197,0.219641397
0.589173031,0.152085974,0.039444726,0.219296269
0.588837532,0.152501172,0.039708383,0.218952913
0.588502448,0.152915067,0.039971169,0.218611316
0.588167772,0.153327676,0.040233086,0.218271466
0.587833499,0.153739016,0.040494135,0.21793335
0.587499622,0.154149105,0.040754318,0.217596955
0.587166134,0.154557961,0.041013637,0.217262268
0.586833031,0.1549656,0.041272092,0.216929278
0.586500303,0.155372041,0.041529685,0.216597971
0.586167945,0.1557773,0.041786418,0.216268337
0.58583595,0.156181395,0.042042293,0.215940362
0.585504311,0.156584342,0.04229731,0.215614036
0.585173022,0.156986158,0.042551473,0.215289347
0.584842075,0.157386859,0.042804783,0.214966283
0.584511466,0.157786459,0.043057243,0.214644832
0.584181186,0.158184974,0.043308855,0.214324985
0.583851229,0.158582419,0.043559622,0.214006729
0.583521589,0.158978808,0.043809547,0.213690056
0.583192258,0.159374154,0.044058634,0.213374954
0.58286323,0.159768471,0.044306884,0.213061414
0.582534498,0.160161773,0.044554303,0.212749426
0.582206054,0.160554073,0.044800893,0.21243898
0.58187789,0.160945384,0.04504666,0.212130065
0.581549998,0.161335721,0.045291609,0.211822671
0.581222369,0.161725097,0.045535744,0.211516789
0.580894996,0.162113526,0.045779071,0.211212407
0.58056787,0.162501019,0.046021594,0.210909517
0.580240984,0.162887591,0.046263317,0.210608107
0.57991433,0.163273253,0.046504247,0.210308169
0.579587901,0.163658019,0.046744387,0.210009693
0.57926169,0.164041899,0.046983743,0.209712668
0.578935688,0.164424906,0.04722232,0.209417086
0.578609888,0.164807052,0.047460122,0.209122938
0.578284284,0.165188348,0.047697154,0.208830214
0.577958866,0.165568807,0.047933421,0.208538906
0.577633627,0.16594844,0.048168928,0.208249005
0.577308558,0.166327261,0.04840368,0.2079605
0.576983651,0.166705282,0.048637683,0.207673384
0.576658896,0.167082517,0.048870941,0.207387646
0.576334284,0.167458979,0.049103459,0.207103278
0.576009807,0.16783468,0.049335242,0.206820271
0.575685456,0.168209633,0.049566296,0.206538615
0.575361221,0.168583851,0.049796624,0.206258303
0.575037094,0.168957346,0.050026234,0.205979326
0.574713067,0.169330131,0.050255128,0.205701674
0.574389128,0.169702218,0.050483314,0.205425339
0.57406527,0.170073621,0.050710795,0.205150313
0.573741483,0.170444352,0.050937578,0.204876587
0.573417756,0.170814425,0.051163667,0.204604153
0.573094078,0.171183855,0.051389067,0.204333
0.572770441,0.171552655,0.051613783,0.204063121
0.572446832,0.17192084,0.051837821,0.203794507
0.572123243,0.172288423,0.052061185,0.20352715
0.571799661,0.172655419,0.052283881,0.203261039
0.571476077,0.173021843,0.052505913,0.202996167
0.571152479,0.173387709,0.052727287,0.202732524
0.570828856,0.173753033,0.052948008,0.202470102
0.570505197,0.174117828,0.053168083,0.202208892
0.570181492,0.174482109,0.053387515,0.201948884
0.569857731,0.174845888,0.053606311,0.201690069
0.569533903,0.17520918,0.053824476,0.20143244
0.569209998,0.175571998,0.054042015,0.201175988
0.568886008,0.175934355,0.054258934,0.200920704
0.568561921,0.176296262,0.054475238,0.200666579
0.568237729,0.176657734,0.054690932,0.200413606
0.567913422,0.17701878,0.054906022,0.200161775
0.567588991,0.177379415,0.055120514,0.199911081
0.567264427,0.177739648,0.055334413,0.199661513
0.566939721,0.17809949,0.055547724,0.199413064
0.566614865,0.178458954,0.055760455,0.199165727
0.56628985,0.178818048,0.055972609,0.198919493
0.565964669,0.179176784,0.056184193,0.198674354
0.565639311,0.179535172,0.056395213,0.198430303
0.56531377,0.179893222,0.056605675,0.198187333
0.564988036,0.180250945,0.056815584,0.197945435
0.564662103,0.18060835,0.057024946,0.197704602
0.564335961,0.180965446,0.057233767,0.197464826
0.564009604,0.181322245,0.057442051,0.1972261
0.563683024,0.181678754,0.057649806,0.196988417
0.563356213,0.182034983,0.057857035,0.196751769
0.563029164,0.182390943,0.058063744,0.196516149
0.562701869,0.182746641,0.058269939,0.196281551
0.562374322,0.183102087,0.058475625,0.196047966
0.562046514,0.18345729,0.058680807,0.195815389
0.56171844,0.183812258,0.058885489,0.195583813
0.561390091,0.184167001,0.059089678,0.19535323
0.561061462,0.184521525,0.059293378,0.195123634
0.560732545,0.184875841,0.059496595,0.194895019
0.560403334,0.185229955,0.059699332,0.194667379
0.560073821,0.185583877,0.059901595,0.194440707
0.559743999,0.185937613,0.060103389,0.194214999
0.55941386,0.186291172,0.06030472,0.193990248
0.559083397,0.18664456,0.060505591,0.193766452
0.558752603,0.186997785,0.060706008,0.193543604
0.55842147,0.187350855,0.060905975,0.1933217
0.558089991,0.187703774,0.061105497,0.193100737
0.55775816,0.188056551,0.06130458,0.19288071
0.557425969,0.188409191,0.061503227,0.192661614
0.557093412,0.188761699,0.061701443,0.192443445
0.556760483,0.189114084,0.061899234,0.192226199
0.556427175,0.189466349,0.062096604,0.192009872
0.556093484,0.1898185,0.062293557,0.191794459
0.555759402,0.190170544,0.062490097,0.191579957
0.555424925,0.190522485,0.062686231,0.191366359
0.555090046,0.190874329,0.062881962,0.191153663
0.55475476,0.191226082,0.063077295,0.190941864
0.554419061,0.191577748,0.063272235,0.190730957
0.554082943,0.191929333,0.063466787,0.190520937
0.553746401,0.192280843,0.063660955,0.1903118
0.553409429,0.192632283,0.063854745,0.190103543
0.553072022,0.192983658,0.064048161,0.189896159
0.552734174,0.193334973,0.064241207,0.189689646
0.552395881,0.193686232,0.064433888,0.189483999
0.552057137,0.194037442,0.064626208,0.189279213
0.551717936,0.194388606,0.064818173,0.189075285
0.551378273,0.194739729,0.065009786,0.188872212
0.551038142,0.195090817,0.065201053,0.188669988
0.550697537,0.195441874,0.065391978,0.188468611
0.550356453,0.195792905,0.065582565,0.188268076
0.550014884,0.196143914,0.065772821,0.188068382
0.549672823,0.196494906,0.065962748,0.187869523
0.549330266,0.196845885,0.066152352,0.187671497
0.548987205,0.197196856,0.066341639,0.1874743
0.548643635,0.197547824,0.066530613,0.187277928
0.548299549,0.197898794,0.066719279,0.187082378
0.547954941,0.198249769,0.066907643,0.186887646
0.01831574,0.414079195,0.28475406,0.282851004
0.018223625,0.414290475,0.284830702,0.282655198
0.01813211,0.414500382,0.28490764,0.282459868
0.018041193,0.41470892,0.284984869,0.282265018
0.017950871,0.414916094,0.285062384,0.282070652
0.017861141,0.415121909,0.28514018,0.28187677
0.017772003,0.415326368,0.285218252,0.281683377
0.017683453,0.415529477,0.285296595,0.281490475
0.017595489,0.415731241,0.285375204,0.281298066
0.017508109,0.415931665,0.285454073,0.281106153
0.017421311,0.416130753,0.285533196,0.280914739
0.017335093,0.416328512,0.285612569,0.280723827
0.017249451,0.416524946,0.285692185,0.280533418
0.017164385,0.416720059,0.285772039,0.280343517
0.017079892,0.416913855,0.285852127,0.280154126
0.01699597,0.41710634,0.285932442,0.279965248
0.016912616,0.417297517,0.286012982,0.279776886
0.016829828,0.41748739,0.28609374,0.279589042
0.016747604,0.417675965,0.286174712,0.279401719
0.016665941,0.417863245,0.286255894,0.27921492
0.016584838,0.418049235,0.28633728,0.279028646
0.016504293,0.418233939,0.286418868,0.278842901
0.016424301,0.418417361,0.286500651,0.278657686
0.016344863,0.418599507,0.286582626,0.278473004
0.016265975,0.418780384,0.286664787,0.278288855
0.016187634,0.418959996,0.286747129,0.278105241
0.016109839,0.419138351,0.286829647,0.277922164
0.016032587,0.419315456,0.286912335,0.277739622
0.015955876,0.419491319,0.286995188,0.277557618
0.015879703,0.419665946,0.287078201,0.27737615
0.015804066,0.419839347,0.287161368,0.277195219
0.015728963,0.420011528,0.287244685,0.277014825
0.01565439,0.420182497,0.287328147,0.276834966
0.015580347,0.420352263,0.287411748,0.276655642
0.01550683,0.420520834,0.287495485,0.276476852
0.015433837,0.420688218,0.287579351,0.276298595
0.015361365,0.420854424,0.287663343,0.276120869
0.015289412,0.42101946,0.287747455,0.275943673
0.015217977,0.421183333,0.287831684,0.275767006
0.015147056,0.421346053,0.287916024,0.275590867
0.015076646,0.421507627,0.288000472,0.275415255
0.015006747,0.421668062,0.288085022,0.275240168
0.014937356,0.421827366,0.288169671,0.275065607
0.01486847,0.421985547,0.288254413,0.27489157
0.014800087,0.422142612,0.288339246,0.274718056
0.014732205,0.422298568,0.288424164,0.274545063
0.014664822,0.422453422,0.288509164,0.274372592
0.014597935,0.422607183,0.288594241,0.274200641
0.014531543,0.422759857,0.288679391,0.274029208
0.014465644,0.422911452,0.288764611,0.273858293
0.014400234,0.423061975,0.288849895,0.273687895
0.014335313,0.423211433,0.288935241,0.273518013
0.014270878,0.423359833,0.289020643,0.273348646
0.014206928,0.423507182,0.289106098,0.273179793
0.014143459,0.423653486,0.289191601,0.273011455
0.01408047,0.423798753,0.289277147,0.27284363
0.01401796,0.423942988,0.289362734,0.272676318
0.013955925,0.4240862,0.289448355,0.27250952
0.013894365,0.424228394,0.289534007,0.272343235
0.013833277,0.424369577,0.289619685,0.272177462
0.013772659,0.424509755,0.289705385,0.272012201
0.01371251,0.424648936,0.289791102,0.271847452
0.013652827,0.424787126,0.289876834,0.271683214
0.013593609,0.42492433,0.289962574,0.271519488
0.013534853,0.425060555,0.290048319,0.271356273
0.013476559,0.425195807,0.290134064,0.27119357
0.013418725,0.425330092,0.290219806,0.271031378
0.013361349,0.425463414,0.29030554,0.270869697
0.013304431,0.425595781,0.290391262,0.270708526
0.013247968,0.425727198,0.290476968,0.270547867
0.013191959,0.425857669,0.290562654,0.270387717
0.013136403,0.425987202,0.290648317,0.270228078
0.013081299,0.426115801,0.290733951,0.270068949
0.013026646,0.426243472,0.290819554,0.269910329
0.012972442,0.42637022,0.29090512,0.269752218
0.012918687,0.426496051,0.290990646,0.269594616
0.01286538,0.42662097,0.291076129,0.269437521
0.012812519,0.426744983,0.291161563,0.269280935
0.012760104,0.426868094,0.291246947,0.269124855
0.012708134,0.42699031,0.291332275,0.268969281
0.012656607,0.427111636,0.291417544,0.268814212
0.012605523,0.427232078,0.291502752,0.268659648
0.01255488,0.42735164,0.291587894,0.268505586
0.012504677,0.427470329,0.291672968,0.268352026
0.012454914,0.427588149,0.29175797,0.268198967
0.012405588,0.427705107,0.291842897,0.268046408
0.0123567,0.427821206,0.291927747,0.267894348
0.012308247,0.427936452,0.292012516,0.267742785
0.012260228,0.428050851,0.292097202,0.26759172
0.012212642,0.428164406,0.292181801,0.267441151
0.012165489,0.428277122,0.292266312,0.267291077
0.012118766,0.428389005,0.292350731,0.267141498
0.012072473,0.428500058,0.292435056,0.266992413
0.012026608,0.428610287,0.292519284,0.266843822
0.01198117,0.428719695,0.292603412,0.266695723
0.011936158,0.428828287,0.292687439,0.266548116
0.011891571,0.428936068,0.292771362,0.266400999
0.011847408,0.429043041,0.292855178,0.266254373
0.011803667,0.429149212,0.292938884,0.266108237
0.011760348,0.429254584,0.293022479,0.26596259
0.01171745,0.429359161,0.293105958,0.265817431
0.011674971,0.429462947,0.293189321,0.265672762
0.011632911,0.429565946,0.293272563,0.26552858
0.011591269,0.429668162,0.293355682,0.265384886
0.011550046,0.429769598,0.293438676,0.26524168
0.011509239,0.429870259,0.293521541,0.265098961
0.011468849,0.429970147,0.293604275,0.264956729
0.011428874,0.430069267,0.293686876,0.264814983
0.011389315,0.430167622,0.29376934,0.264673723
0.011350171,0.430265216,0.293851664,0.264532949
0.011311442,0.430362052,0.293933847,0.26439266
0.011273126,0.430458133,0.294015886,0.264252855
0.011235224,0.430553465,0.294097778,0.264113533
0.011197736,0.430648049,0.29417952,0.263974695
0.01116066,0.430741889,0.294261111,0.26383634
0.011123997,0.430834988,0.294342548,0.263698467
0.011087746,0.430927351,0.294423828,0.263561075
0.011051907,0.431018979,0.29450495,0.263424163
0.01101648,0.431109877,0.294585911,0.263287731
0.010981465,0.431200048,0.294666709,0.263151778
0.010946861,0.431289495,0.294747342,0.263016302
0.010912668,0.431378223,0.294827807,0.262881302
0.010878887,0.431466233,0.294908103,0.262746777
0.010845515,0.431553531,0.294988228,0.262612726
0.010812554,0.431640119,0.29506818,0.262479147
0.010780004,0.431726,0.295147958,0.262346039
0.010747863,0.431811179,0.295227559,0.2622134
0.010716132,0.431895658,0.295306982,0.262081229
0.01068481,0.431979441,0.295386224,0.261949525
0.010653897,0.432062532,0.295465286,0.261818285
0.010623394,0.432144934,0.295544163,0.261687509
0.0105933,0.43222665,0.295622856,0.261557194
0.010563615,0.432307683,0.295701363,0.26142734
0.010534338,0.432388036,0.295779682,0.261297944
0.010505471,0.432467712,0.29585781,0.261169006
0.010477013,0.432546714,0.295935748,0.261040525
0.010448963,0.432625044,0.296013493,0.2609125
0.010421323,0.432702704,0.296091044,0.260784929
0.010394092,0.432779698,0.296168399,0.260657812
0.01036727,0.432856027,0.296245557,0.260531147
0.010340857,0.432931693,0.296322516,0.260404934
0.010314855,0.433006699,0.296399274,0.260279172
0.010289262,0.433081047,0.296475831,0.26015386
0.010264079,0.433154739,0.296552185,0.260028998
0.010239306,0.433227777,0.296628334,0.259904584
0.010214944,0.433300162,0.296704276,0.259780617
0.010190993,0.433371898,0.296780012,0.259657097
0.010167453,0.433442986,0.296855538,0.259534022
0.010144324,0.433513428,0.296930855,0.259411392
0.010121607,0.433583226,0.297005961,0.259289207
0.010099301,0.433652381,0.297080854,0.259167464
0.010077407,0.433720895,0.297155534,0.259046163
0.010055925,0.433788771,0.29723,0.258925304
0.010034855,0.433856009,0.297304251,0.258804886
0.010014196,0.43392261,0.297378286,0.258684908
0.00999395,0.433988577,0.297452103,0.25856537
0.009974115,0.43405391,0.297525703,0.258446272
0.009954692,0.434118611,0.297599083,0.258327614
0.009935681,0.434182681,0.297672242,0.258209396
0.009917083,0.43424612,0.29774518,0.258091617
0.009898897,0.434308931,0.297817894,0.257974277
0.009881124,0.434371115,0.297890385,0.257857377
0.009863763,0.434432672,0.297962649,0.257740915
0.009846816,0.434493604,0.298034688,0.257624892
0.009830281,0.434553913,0.298106499,0.257509307
0.00981416,0.434613599,0.29817808,0.257394161
0.009798453,0.434672663,0.298249431,0.257279453
0.009783158,0.434731106,0.298320551,0.257165184
0.009768278,0.434788929,0.298391438,0.257051356
0.009753811,0.43484613,0.29846209,0.256937968
0.009739758,0.434902712,0.298532507,0.256825023
0.009726118,0.434958674,0.298602687,0.256712521
0.009712892,0.435014015,0.298672629,0.256600464
0.00970008,0.435068737,0.29874233,0.256488852
0.009687683,0.43512284,0.298811791,0.256377686
0.009675699,0.435176324,0.298881009,0.256266969
0.009664129,0.435229189,0.298949982,0.2561567
0.009652974,0.435281435,0.299018711,0.256046881
0.009642233,0.435333064,0.299087192,0.255937511
0.009631906,0.435384075,0.299155426,0.255828593
0.009621995,0.43543447,0.29922341,0.255720126
0.009612498,0.435484248,0.299291143,0.255612112
0.009603416,0.435533411,0.299358624,0.25550455
0.009594748,0.435581959,0.299425851,0.255397441
0.009586496,0.435629894,0.299492824,0.255290786
0.009578659,0.435677215,0.299559541,0.255184585
0.009571238,0.435723923,0.299626001,0.255078838
0.009564232,0.43577002,0.299692202,0.254973546
0.009557642,0.435815505,0.299758143,0.254868709
0.009551467,0.43586038,0.299823824,0.254764328
0.009545709,0.435904645,0.299889242,0.254660403
0.009540367,0.435948301,0.299954397,0.254556935
0.009535441,0.435991348,0.300019288,0.254453923
0.009530931,0.436033787,0.300083914,0.254351368
0.009526838,0.436075617,0.300148274,0.254249271
0.009523162,0.43611684,0.300212367,0.254147631
0.009519903,0.436157456,0.300276192,0.254046449
0.009517061,0.436197465,0.300339749,0.253945725
0.009514636,0.436236867,0.300403037,0.25384546
0.009512629,0.436275663,0.300466054,0.253745654
0.00951104,0.436313853,0.300528799,0.253646308
0.009509869,0.436351436,0.300591273,0.253547422
0.009509117,0.436388413,0.300653474,0.253448996
0.009508783,0.436424783,0.300715402,0.253351032
0.009508867,0.436460548,0.300777056,0.253253529
0.009509372,0.436495705,0.300838434,0.253156489
0.009510295,0.436530256,0.300899537,0.253059912
0.009511639,0.436564199,0.300960363,0.252963799
0.009513404,0.436597535,0.301020912,0.252868149
0.009515589,0.436630264,0.301081183,0.252772964
0.009518196,0.436662385,0.301141176,0.252678243
0.009521226,0.436693898,0.301200889,0.252583987
0.009524678,0.436724803,0.301260323,0.252490196
0.009528553,0.4367551,0.301319476,0.25239687
0.009532853,0.436784789,0.301378348,0.25230401
0.009537579,0.436813868,0.301436939,0.252211614
0.009542731,0.436842339,0.301495247,0.252119683
0.009548311,0.4368702,0.301553272,0.252028217
0.00955432,0.436897452,0.301611014,0.251937215
0.009560758,0.436924093,0.301668472,0.251846677
0.009567626,0.436950124,0.301725645,0.251756604
0.009574927,0.436975545,0.301782534,0.251666995
0.00958266,0.437000354,0.301839137,0.251577849
0.009590828,0.437024551,0.301895454,0.251489166
0.009599431,0.437048137,0.301951486,0.251400946
0.00960847,0.437071109,0.302007231,0.251313189
0.009617947,0.437093468,0.302062691,0.251225894
0.009627863,0.437115213,0.302117863,0.25113906
0.00963822,0.437136342,0.30217275,0.251052689
0.009649017,0.437156855,0.302227349,0.250966779
0.009660257,0.437176749,0.302281663,0.250881331
0.009671941,0.437196025,0.30233569,0.250796344
0.00968407,0.437214681,0.30238943,0.250711819
0.009696645,0.437232716,0.302442884,0.250627755
0.009709667,0.437250129,0.302496052,0.250544152
0.009723138,0.437266919,0.302548933,0.250461011
0.009737058,0.437283085,0.302601527,0.25037833
0.009751429,0.437298626,0.302653834,0.250296111
0.009766252,0.437313542,0.302705854,0.250214352
0.009781527,0.43732783,0.302757588,0.250133055
0.009797256,0.437341492,0.302809034,0.250052218
0.00981344,0.437354525,0.302860193,0.249971843
0.00983008,0.437366929,0.302911064,0.249891928
0.009847176,0.437378702,0.302961648,0.249812474
0.009864732,0.437389844,0.303011943,0.249733481
0.009882746,0.437400354,0.30306195,0.24965495
0.009901221,0.43741023,0.303111668,0.24957688
0.009920158,0.437419472,0.303161097,0.249499273
0.009939557,0.437428078,0.303210236,0.249422128
0.009959421,0.437436048,0.303259086,0.249345446
0.00997975,0.437443379,0.303307644,0.249269227
0.010000546,0.437450072,0.303355911,0.249193472
0.010021809,0.437456123,0.303403887,0.249118181
0.010043542,0.437461533,0.303451571,0.249043354
0.010065745,0.437466299,0.303498962,0.248968994
0.010088419,0.43747042,0.303546061,0.2488951
0.010111567,0.437473895,0.303592865,0.248821673
0.010135188,0.437476721,0.303639376,0.248748714
0.010159286,0.437478898,0.303685592,0.248676224
0.010183859,0.437480424,0.303731513,0.248604204
0.010208911,0.437481296,0.303777138,0.248532655
0.010234442,0.437481514,0.303822467,0.248461577
0.010260453,0.437481076,0.303867499,0.248390972
0.010286946,0.437479981,0.303912232,0.248320841
0.010313923,0.437478227,0.303956666,0.248251185
0.010341384,0.437475813,0.304000799,0.248182004
0.01036933,0.437472739,0.304044631,0.248113299
0.010397764,0.437469003,0.304088161,0.248045073
0.010426686,0.437464602,0.304131387,0.247977325
0.010456099,0.437459537,0.304174307,0.247910058
0.010486003,0.437453804,0.304216921,0.247843273
0.0105164,0.437447402,0.304259226,0.247776972
0.010547293,0.437440329,0.304301221,0.247711157
0.010578681,0.437432583,0.304342905,0.24764583
0.010610569,0.437424162,0.304384276,0.247580993
0.010642956,0.437415065,0.304425332,0.247516648
0.010675845,0.437405289,0.304466071,0.247452796
0.010709237,0.437394832,0.304506492,0.247389439
0.010743136,0.437383694,0.304546592,0.247326579
0.010777541,0.437371871,0.304586371,0.247264217
0.010812455,0.437359362,0.304625827,0.247202356
0.010847881,0.437346166,0.304664957,0.247140996
0.010883819,0.43733228,0.304703761,0.247080139
0.010920273,0.437317703,0.304742237,0.247019787
0.010957244,0.437302432,0.304780382,0.246959942
0.010994734,0.437286467,0.304818196,0.246900603
0.011032745,0.437269804,0.304855677,0.246841774
0.011071279,0.437252442,0.304892824,0.246783455
0.011110338,0.437234379,0.304929634,0.246725648
0.011149925,0.437215613,0.304966107,0.246668355
0.011190041,0.437196142,0.30500224,0.246611577
0.011230689,0.437175964,0.305038033,0.246555315
0.01127187,0.437155076,0.305073482,0.246499571
0.011313588,0.437133478,0.305108588,0.246444346
0.011355844,0.437111167,0.305143347,0.246389642
0.011398642,0.43708814,0.305177757,0.246335461
0.011441983,0.437064395,0.305211818,0.246281804
0.01148587,0.43703993,0.305245528,0.246228672
0.011530306,0.437014743,0.305278884,0.246176067
0.011575294,0.436988831,0.305311884,0.246123992
0.011620836,0.436962191,0.305344527,0.246072447
0.011666934,0.436934821,0.30537681,0.246021435
0.011713593,0.436906718,0.305408732,0.245970957
0.011760813,0.436877879,0.305440291,0.245921016
0.011808599,0.436848302,0.305471485,0.245871614
0.011856953,0.436817984,0.305502311,0.245822751
0.011905878,0.436786922,0.305532769,0.245774431
0.011955377,0.436755113,0.305562856,0.245726654
0.012005453,0.436722554,0.305592569,0.245679424
0.012056108,0.436689242,0.305621907,0.245632742
0.012107347,0.436655174,0.305650868,0.245586611
0.012159171,0.436620347,0.30567945,0.245541032
0.012211585,0.436584757,0.305707649,0.245496009
0.01226459,0.436548403,0.305735465,0.245451543
0.01231819,0.436511279,0.305762894,0.245407637
0.012372387,0.436473384,0.305789936,0.245364293
0.012427185,0.436434715,0.305816587,0.245321513
0.012482587,0.436395268,0.305842845,0.2452793
0.012538595,0.43635504,0.305868709,0.245237656
0.012595212,0.436314028,0.305894176,0.245196584
0.012652442,0.43627223,0.305919244,0.245156085
0.012710286,0.436229641,0.305943912,0.245116161
0.012768748,0.43618626,0.305968177,0.245076816
0.01282783,0.436142082,0.305992038,0.24503805
0.012887536,0.436097106,0.306015493,0.244999865
0.012947869,0.436051327,0.306038541,0.244962264
0.013008831,0.436004742,0.306061179,0.244925248
0.013070426,0.435957349,0.306083408,0.244888818
0.013132656,0.435909144,0.306105224,0.244852976
0.013195526,0.435860122,0.306126628,0.244817724
0.013259038,0.435810281,0.306147618,0.244783063
0.013323197,0.435759616,0.306168191,0.244748995
0.013388005,0.435708125,0.306188348,0.244715522
0.013453468,0.435655802,0.306208085,0.244682645
0.01351959,0.435602644,0.306227401,0.244650365
0.013586374,0.435548646,0.306246294,0.244618685
0.013653827,0.435493803,0.306264762,0.244587607
0.013721954,0.43543811,0.306282803,0.244557133
0.013790759,0.435381563,0.306300415,0.244527264
0.013860248,0.435324156,0.306317594,0.244498003
0.013930426,0.435265885,0.306334338,0.244469351
0.014001298,0.435206745,0.306350645,0.244441312
0.01407287,0.43514673,0.306366512,0.244413888
0.014145147,0.435085836,0.306381937,0.24438708
0.014218135,0.435024057,0.306396917,0.244360891
0.01429184,0.434961388,0.306411449,0.244335323
0.014366266,0.434897824,0.306425531,0.24431038
0.014441419,0.434833359,0.306439159,0.244286062
0.014517306,0.434767988,0.306452331,0.244262374
0.014593932,0.434701706,0.306465045,0.244239317
0.014671303,0.434634507,0.306477296,0.244216894
0.014749424,0.434566385,0.306489081,0.244195109
0.014828302,0.434497336,0.306500398,0.244173964
0.014907942,0.434427352,0.306511243,0.244153464
0.014988349,0.434356427,0.306521613,0.24413361
0.015069531,0.434284557,0.306531504,0.244114409
0.015151493,0.434211733,0.306540912,0.244095862
0.01523424,0.434137951,0.306549834,0.244077975
0.01531778,0.434063205,0.306558265,0.244060751
0.015402118,0.433987486,0.306566201,0.244044194
0.015487261,0.433910789,0.306573639,0.24402831
0.015573214,0.433833108,0.306580575,0.244013104
0.015659983,0.433754434,0.306587004,0.243998579
0.015747575,0.433674762,0.306592922,0.243984742
0.015835995,0.433594084,0.306598324,0.243971597
0.015925252,0.433512394,0.306603205,0.24395915
0.01601535,0.433429683,0.306607562,0.243947405
0.016106297,0.433345945,0.306611388,0.243936369
0.0161981,0.433261173,0.306614681,0.243926046
0.016290766,0.433175359,0.306617433,0.243916442
0.016384302,0.433088495,0.306619641,0.243907562
0.016478716,0.433000575,0.3066213,0.24389941
0.016574015,0.43291159,0.306622403,0.243891992
0.016670206,0.432821533,0.306622947,0.243885313
0.016767299,0.432730397,0.306622925,0.243879379
0.0168653,0.432638173,0.306622333,0.243874194
0.016964217,0.432544854,0.306621165,0.243869764
0.017064059,0.432450431,0.306619415,0.243866095
0.017164833,0.432354896,0.306617078,0.243863193
0.017266548,0.432258241,0.306614148,0.243861063
0.017369212,0.432160458,0.306610619,0.243859711
0.017472833,0.432061537,0.306606485,0.243859144
0.017577419,0.431961471,0.30660174,0.24385937
0.017682979,0.431860248,0.306596377,0.243860395
0.017789522,0.431757862,0.30659039,0.243862226
0.017897055,0.431654301,0.306583773,0.243864871
0.018005588,0.431549557,0.306576519,0.243868335
0.018115129,0.431443621,0.306568623,0.243872627
0.018225686,0.431336483,0.306560076,0.243877754
0.018337269,0.431228134,0.306550874,0.243883724
0.018449885,0.431118564,0.306541008,0.243890543
0.018563544,0.431007763,0.306530472,0.243898221
0.018678255,0.430895721,0.306519258,0.243906767
0.018794026,0.430782427,0.306507359,0.243916188
0.018910865,0.430667871,0.306494767,0.243926496
0.019028783,0.430552042,0.306481475,0.243937699
0.019147789,0.43043493,0.306467476,0.243949806
0.019267891,0.430316523,0.30645276,0.243962826
0.019389099,0.430196811,0.306437322,0.243976768
0.019511423,0.430075783,0.306421152,0.243991642
0.019634873,0.429953427,0.306404243,0.244007457
0.019759459,0.429829733,0.306386588,0.24402422
0.019885191,0.42970469,0.306368178,0.244041942
0.020012079,0.429578284,0.306349005,0.244060631
0.020140135,0.429450506,0.306329062,0.244080297
0.020269367,0.429321343,0.30630834,0.244100949
0.020399788,0.429190783,0.306286831,0.244122598
0.020531407,0.429058814,0.306264526,0.244145253
0.020664236,0.428925422,0.306241417,0.244168924
0.020798286,0.428790597,0.306217496,0.24419362
0.020933568,0.428654325,0.306192755,0.244219352
0.021070093,0.428516594,0.306167184,0.244246128
0.021207873,0.428377391,0.306140776,0.24427396
0.021346919,0.428236704,0.306113522,0.244302856
0.021487242,0.42809452,0.306085413,0.244332826
0.021628854,0.427950825,0.30605644,0.24436388
0.021771767,0.427805608,0.306026596,0.244396029
0.021915993,0.427658854,0.30599587,0.244429283
0.022061543,0.427510551,0.305964254,0.244463652
0.022208429,0.427360685,0.305931738,0.244499148
0.022356663,0.427209242,0.305898314,0.24453578
0.022506257,0.42705621,0.305863972,0.24457356
0.022657224,0.426901575,0.305828702,0.244612499
0.022809577,0.426745321,0.305792494,0.244652609
0.022963327,0.426587435,0.305755338,0.2446939
0.023118489,0.426427903,0.305717224,0.244736384
0.023275076,0.426266709,0.305678142,0.244780073
0.023433101,0.42610384,0.305638081,0.244824978
0.023592578,0.42593928,0.30559703,0.244871111
0.023753521,0.425773016,0.30555498,0.244918483
0.023915945,0.42560503,0.305511918,0.244967107
0.024079863,0.425435308,0.305467835,0.245016994
0.02424529,0.425263834,0.305422718,0.245068157
0.024412243,0.425090592,0.305376558,0.245120608
0.024580734,0.424915565,0.305329341,0.24517436
0.024750781,0.424738735,0.305281057,0.245229427
0.024922398,0.424560088,0.305231693,0.245285821
0.025095603,0.424379604,0.305181237,0.245343557
0.02527041,0.424197266,0.305129676,0.245402648
0.025446838,0.424013057,0.305076996,0.245463109
0.025624902,0.423826959,0.305023186,0.245524952
0.025804621,0.423638954,0.304968232,0.245588193
0.025986012,0.423449023,0.304912121,0.245652844
0.026169093,0.423257148,0.304854838,0.245718921
0.026353883,0.42306331,0.304796371,0.245786436
0.0265404,0.42286749,0.304736704,0.245855406
0.026728662,0.42266967,0.304675825,0.245925843
0.02691869,0.42246983,0.304613718,0.245997762
0.027110502,0.422267951,0.30455037,0.246071178
0.027304117,0.422064014,0.304485765,0.246146104
0.027499555,0.421857999,0.304419889,0.246222557
0.027696836,0.421649886,0.304352727,0.24630055
0.027895981,0.421439656,0.304284263,0.246380099
0.028097011,0.421227287,0.304214483,0.246461219
0.028299948,0.421012759,0.304143369,0.246543924
0.028504813,0.420796049,0.304070907,0.24662823
0.028711631,0.420577138,0.303997079,0.246714152
0.028920423,0.420356002,0.30392187,0.246801705
0.029131215,0.420132621,0.303845262,0.246890903
0.02934403,0.41990697,0.303767237,0.246981763
0.029558896,0.419679028,0.303687778,0.247074298
0.029775839,0.41944877,0.303606866,0.247168525
0.029994885,0.419216172,0.303524485,0.247264458
0.030216063,0.418981212,0.303440614,0.247362112
0.030439398,0.418743864,0.303355237,0.247461502
0.030664919,0.418504104,0.303268334,0.247562644
0.030892653,0.418261907,0.303179887,0.247665553
0.031122628,0.418017249,0.303089878,0.247770245
0.031354871,0.417770104,0.302998288,0.247876737
0.031589412,0.417520446,0.302905097,0.247985045
0.031826277,0.417268249,0.302810287,0.248095186
0.032065497,0.417013488,0.302713839,0.248207176
0.0323071,0.416756135,0.302615733,0.248321032
0.032551116,0.416496164,0.30251595,0.24843677
0.032797574,0.416233548,0.302414471,0.248554407
0.033046504,0.415968259,0.302311275,0.248673962
0.033297938,0.415700268,0.302206342,0.248795452
0.033551905,0.415429548,0.302099652,0.248918895
0.033808435,0.415156068,0.301991185,0.249044311
0.034067561,0.414879801,0.301880919,0.249171719
0.034329312,0.414600716,0.301768834,0.249301139
0.034593719,0.414318783,0.301654907,0.249432591
0.034860814,0.414033973,0.301539117,0.249566096
0.035130628,0.413746255,0.301421443,0.249701674
0.035403194,0.413455599,0.301301862,0.249839346
0.035678542,0.413161973,0.301180352,0.249979133
0.035956705,0.412865348,0.301056891,0.250121056
0.036237717,0.412565692,0.300931455,0.250265137
0.036521609,0.412262974,0.300804022,0.250411395
0.036808417,0.411957164,0.300674568,0.250559851
0.037098175,0.411648229,0.300543069,0.250710526
0.037390918,0.411336138,0.300409502,0.250863442
0.037686679,0.41102086,0.300273841,0.251018619
0.037985496,0.410702363,0.300136063,0.251176079
0.038287402,0.410380614,0.299996142,0.251335842
0.038592434,0.410055582,0.299854053,0.251497931
0.038900628,0.409727233,0.299709771,0.251662368
0.03921202,0.409395535,0.299563271,0.251829173
0.039526648,0.409060455,0.299414528,0.25199837
0.039844548,0.408721959,0.299263515,0.252169978
0.040165759,0.408380013,0.299110207,0.252344021
0.040490318,0.408034581,0.298954578,0.252520522
0.040818265,0.40768563,0.298796602,0.252699503
0.041149639,0.407333122,0.298636252,0.252880987
0.041484478,0.406977023,0.2984735,0.253064999
0.041822823,0.406617295,0.298308321,0.253251561
0.042164713,0.406253904,0.298140686,0.253440698
0.042510188,0.405886811,0.297970567,0.253632434
0.042859289,0.40551598,0.297797936,0.253826795
0.043212056,0.405141374,0.297622764,0.254023805
0.043568531,0.404762955,0.297445022,0.254223492
0.043928755,0.404380684,0.29726468,0.254425882
0.044292769,0.403994523,0.297081709,0.254631
0.044660615,0.403604433,0.296896078,0.254838874
0.045032337,0.403210375,0.296707757,0.255049532
0.045407976,0.40281231,0.296516714,0.255263
0.045787576,0.402410198,0.296322919,0.255479307
0.04617118,0.402003998,0.29612634,0.255698482
0.04655883,0.401593669,0.295926944,0.255920556
0.046950571,0.40117917,0.2957247,0.256145559
0.047346446,0.400760457,0.295519575,0.256373522
0.0477465,0.400337488,0.295311534,0.256604478
0.048150779,0.399910219,0.295100546,0.256838457
0.048559331,0.399478604,0.294886575,0.257075491
0.048972202,0.399042597,0.294669585,0.257315615
0.049389444,0.398602153,0.294449543,0.257558861
0.049811104,0.398157223,0.294226411,0.257805262
0.050237234,0.397707761,0.294000153,0.258054851
0.050667887,0.397253718,0.293770732,0.258307663
0.051103114,0.396795044,0.293538112,0.25856373
0.05154297,0.396331689,0.293302254,0.258823086
0.05198751,0.395863604,0.293063122,0.259085764
0.052436791,0.395390737,0.292820675,0.259351797
0.05289087,0.394913036,0.292574876,0.259621218
0.053349806,0.394430448,0.292325684,0.259894061
0.053813658,0.393942921,0.292073061,0.26017036
0.054282487,0.393450402,0.291816965,0.260450147
0.054756355,0.392952834,0.291557356,0.260733455
0.055235327,0.392450163,0.291294192,0.261020318
0.055719467,0.391942334,0.291027429,0.26131077
0.056208843,0.39142929,0.290757024,0.261604844
0.056703519,0.390910975,0.290482933,0.261902573
0.057203562,0.390387332,0.290205113,0.262203993
0.057709042,0.389858303,0.289923518,0.262509137
0.058220025,0.389323831,0.289638103,0.26281804
0.058736581,0.388783857,0.289348824,0.263130737
0.05925878,0.388238323,0.289055634,0.263447262
0.059786691,0.38768717,0.288758488,0.263767651
0.060320385,0.387130337,0.288457339,0.264091939
0.060859933,0.386567767,0.288152139,0.264420161
0.061405406,0.385999397,0.287842843,0.264752354
0.061956878,0.385425169,0.287529402,0.265088551
0.062514423,0.38484502,0.28721177,0.265428787
0.063078114,0.38425889,0.286889897,0.265773099
0.063648027,0.383666718,0.286563736,0.26612152
0.064224238,0.383068439,0.286233238,0.266474085
0.064806823,0.382463993,0.285898354,0.266830829
0.065395862,0.381853316,0.285559035,0.267191787
0.06599144,0.381236342,0.285215229,0.267556989
0.06659364,0.380613006,0.284866884,0.26792647
0.067202551,0.379983244,0.284513947,0.268300258
0.067818262,0.379346988,0.284156364,0.268678386
0.068440866,0.378704172,0.28379408,0.269060882
0.06907046,0.378054726,0.283427038,0.269447776
0.069707142,0.37739858,0.28305518,0.269839097
0.070351013,0.376735665,0.282678447,0.270234874
0.071002173,0.376065911,0.28229678,0.270635135
0.071660722,0.375389249,0.281910121,0.271039908
0.072326762,0.374705606,0.281518409,0.271449222
0.073000395,0.374014914,0.281121586,0.271863106
0.073681722,0.373317101,0.280719591,0.272281586
0.074370846,0.372612096,0.280312365,0.272704693
0.075067869,0.371899829,0.279899849,0.273132454
0.075772894,0.371180227,0.279481981,0.273564897
0.076486025,0.370453221,0.279058702,0.274002052
0.077207365,0.369718738,0.278629951,0.274443946
0.077937018,0.368976707,0.278195668,0.274890606
0.07867509,0.368227058,0.277755792,0.275342061
0.079421684,0.367469718,0.27731026,0.275798337
0.080176908,0.366704617,0.276859012,0.276259463
0.080940867,0.365931685,0.276401985,0.276725463
0.081713666,0.365150853,0.275939117,0.277196365
0.08249541,0.364362049,0.275470347,0.277672193
0.083286206,0.363565206,0.274995612,0.278152975
0.08408616,0.362760253,0.27451485,0.278638737
0.084895379,0.361947119,0.274027997,0.279129504
0.085713973,0.361125735,0.273534989,0.279625303
0.086542053,0.360296028,0.273035762,0.280126157
0.08737973,0.359457929,0.27253025,0.28063209
0.08822712,0.358611365,0.272018388,0.281143128
0.089084338,0.357756264,0.271500108,0.28165929
0.089951506,0.356892552,0.270975344,0.282180598
0.090828749,0.356020156,0.270444026,0.282707069
0.091716195,0.355139001,0.269906083,0.28323872
0.092613974,0.354249016,0.269361444,0.283775565
0.093522216,0.353350126,0.268810039,0.284317618
0.094441053,0.352442259,0.268251796,0.284864891
0.095370617,0.351525343,0.267686643,0.285417396
0.09631104,0.350599306,0.267114509,0.285975144
0.097262455,0.349664078,0.266535321,0.286538145
0.090304749,0.432452487,0.356459095,0.120783669
0.090454887,0.432715985,0.355814394,0.121014734
0.090605134,0.432977775,0.355173448,0.121243643
0.090755478,0.433237859,0.354536272,0.121470392
0.090905904,0.433496231,0.353902882,0.121694983
0.091056401,0.433752887,0.353273298,0.121917414
0.091206954,0.434007821,0.352647541,0.122137685
0.091357548,0.43426103,0.35202563,0.122355793
0.091508168,0.434512513,0.351407582,0.122571737
0.0916588,0.434762275,0.350793413,0.122785513
0.091809428,0.43501032,0.350183135,0.122997116
0.09196004,0.435256653,0.349576764,0.123206543
0.092110622,0.435501276,0.348974313,0.123413789
0.092261159,0.435744194,0.348375799,0.123618847
0.092411638,0.435985409,0.347781238,0.123821716
0.092562043,0.436224925,0.347190644,0.124022389
0.09271236,0.436462746,0.346604033,0.124220862
0.092862573,0.436698877,0.346021419,0.124417131
0.093012669,0.436933326,0.345442815,0.12461119
0.093162633,0.437166102,0.344868231,0.124803034
0.093312452,0.437397214,0.344297678,0.124992656
0.093462116,0.437626669,0.343731165,0.125180051
0.093611615,0.437854469,0.343168704,0.125365212
0.093760941,0.438080615,0.34261031,0.125548134
0.093910085,0.438305108,0.342055994,0.125728813
0.094059037,0.438527944,0.341505773,0.125907246
0.094207787,0.438749121,0.340959659,0.126083432
0.094356328,0.438968638,0.340417664,0.12625737
0.09450465,0.439186495,0.339879795,0.12642906
0.094652747,0.43940269,0.339346061,0.126598502
0.094800613,0.439617223,0.338816466,0.126765697
0.094948243,0.439830096,0.338291018,0.126930643
0.095095631,0.440041307,0.337769719,0.127093343
0.095242771,0.440250857,0.337252573,0.127253799
0.095389656,0.440458745,0.336739583,0.127412016
0.095536281,0.440664971,0.336230752,0.127567997
0.095682639,0.440869533,0.335726081,0.127721747
0.095828725,0.441072427,0.335225575,0.127873273
0.095974534,0.441273651,0.334729238,0.128022577
0.096120063,0.441473203,0.334237072,0.128169663
0.096265306,0.44167108,0.333749082,0.128314532
0.09641026,0.441867283,0.333265268,0.128457189
0.096554921,0.44206181,0.332785632,0.128597637
0.096699284,0.44225466,0.332310175,0.128735881
0.096843341,0.442445831,0.331838899,0.128871928
0.096987088,0.442635321,0.331371805,0.129005786
0.097130518,0.442823127,0.330908893,0.129137462
0.097273623,0.44300925,0.330450163,0.129266963
0.097416398,0.443193693,0.329995614,0.129394295
0.097558835,0.44337646,0.329545242,0.129519464
0.097700927,0.443557553,0.329099045,0.129642475
0.097842668,0.443736976,0.32865702,0.129763337
0.097984052,0.443914729,0.328219162,0.129882057
0.098125074,0.444090811,0.327785466,0.129998648
0.098265727,0.444265218,0.327355929,0.130113125
0.098406007,0.444437945,0.326930545,0.130225504
0.098545907,0.444608985,0.326509308,0.1303358
0.098685424,0.444778333,0.326092212,0.130444031
0.098824552,0.444945978,0.32567925,0.130550219
0.098963283,0.445111912,0.325270415,0.13065439
0.099101611,0.445276124,0.324865692,0.130756573
0.099239526,0.445438608,0.324465065,0.1308568
0.099377024,0.445599359,0.324068514,0.130955102
0.099514097,0.445758374,0.323676018,0.13105151
0.099650742,0.445915651,0.323287555,0.131146052
0.099786954,0.446071185,0.322903105,0.131238755
0.099922734,0.44622497,0.32252265,0.131329647
0.100058079,0.446376998,0.322146172,0.131418752
0.100192991,0.446527258,0.321773657,0.131506095
0.10032747,0.446675737,0.321405092,0.131591701
0.100461519,0.446822422,0.321040464,0.131675594
0.100595142,0.446967297,0.320679761,0.1317578
0.100728342,0.447110346,0.320322969,0.131838344
0.100861126,0.447251549,0.31997007,0.131917255
0.100993504,0.447390888,0.319621046,0.131994562
0.101125485,0.447528343,0.319275875,0.132070297
0.101257082,0.447663893,0.318934534,0.132144491
0.101388304,0.447797517,0.318597001,0.132217177
0.101519166,0.447929192,0.31826325,0.132288392
0.101649677,0.448058893,0.317933258,0.132358172
0.10177985,0.448186589,0.317606995,0.132426565
0.101909694,0.44831225,0.317284436,0.13249362
0.10203922,0.44843584,0.316965552,0.132559387
0.102168436,0.448557321,0.316650319,0.132623924
0.10229735,0.44867665,0.316338712,0.132687288
0.102425969,0.44879378,0.316030711,0.132749541
0.1025543,0.448908659,0.315726293,0.132810748
0.102682351,0.449021236,0.315425439,0.132870974
0.102810129,0.449131459,0.315128128,0.132930284
0.102937644,0.449239274,0.314834335,0.132988747
0.103064907,0.449344623,0.314544039,0.133046431
0.103191928,0.449447449,0.314257217,0.133103405
0.103318723,0.449547688,0.31397385,0.13315974
0.103445302,0.449645276,0.313693919,0.133215503
0.103571679,0.449740144,0.313417416,0.133270761
0.103697863,0.449832228,0.313144333,0.133325576
0.103823866,0.449921463,0.312874662,0.133380009
0.103949698,0.450007792,0.312608392,0.133434117
0.104075375,0.450091158,0.312345512,0.133487956
0.104200911,0.450171503,0.31208601,0.133541576
0.104326323,0.450248769,0.311829878,0.133595029
0.10445163,0.450322896,0.311577109,0.133648365
0.104576847,0.45039382,0.311327702,0.133701631
0.104701989,0.450461476,0.311081663,0.133754872
0.104827067,0.450525794,0.310839008,0.133808131
0.104952091,0.450586702,0.310599758,0.133861448
0.105077069,0.450644131,0.310363939,0.133914861
0.105202008,0.450698008,0.310131579,0.133968405
0.105326914,0.450748264,0.309902709,0.134022112
0.105451794,0.450794828,0.309677361,0.134076017
0.105576655,0.450837628,0.309455565,0.134130153
0.105701505,0.450876592,0.309237349,0.134184554
0.105826354,0.45091165,0.309022743,0.134239254
0.105951212,0.450942732,0.308811773,0.134294283
0.10607609,0.450969767,0.30860447,0.134349673
0.106200998,0.450992685,0.308400864,0.134405452
0.106325946,0.451011413,0.308200994,0.134461646
0.106450945,0.451025873,0.308004903,0.134518279
0.106576003,0.45103598,0.307812644,0.134575373
0.106701129,0.451041645,0.307624277,0.134632948
0.106826329,0.451042777,0.307439868,0.134691027
0.106951607,0.45103928,0.307259484,0.134749629
0.107076965,0.45103106,0.307083201,0.134808775
0.107202401,0.451018016,0.3069111,0.134868482
0.107327913,0.451000048,0.306743265,0.134928773
0.107453495,0.450977056,0.306579778,0.134989671
0.107579138,0.450948944,0.306420715,0.135051203
0.107704829,0.450915623,0.306266152,0.135113395
0.107830554,0.450877006,0.306116171,0.135176269
0.107956295,0.450833008,0.305970854,0.135239843
0.108082033,0.45078354,0.305830292,0.135304135
0.108207747,0.450728522,0.30569457,0.135369161
0.108333416,0.450667881,0.305563767,0.135434936
0.108459016,0.450601556,0.305437955,0.135501474
0.108584523,0.450529486,0.3053172,0.135568791
0.108709916,0.450451615,0.305201563,0.135636906
0.108835171,0.450367889,0.305091098,0.135705842
0.108960265,0.450278259,0.304985855,0.135775621
0.109085176,0.450182683,0.304885877,0.135846265
0.109209878,0.450081119,0.304791203,0.1359178
0.109334349,0.449973528,0.304701871,0.135990252
0.109458566,0.449859864,0.304617919,0.13606365
0.109582507,0.449740079,0.304539389,0.136138025
0.109706153,0.449614118,0.304466324,0.136213406
0.109829482,0.449481924,0.304398771,0.136289822
0.109952475,0.449343436,0.304336781,0.136367308
0.11007511,0.449198588,0.304280404,0.136445898
0.110197367,0.449047308,0.304229693,0.136525632
0.110319219,0.448889517,0.304184705,0.136606559
0.110440638,0.44872513,0.3041455,0.136688731
0.110561593,0.448554057,0.304112144,0.136772207
0.11068205,0.448376204,0.304084703,0.136857042
0.110801976,0.448191483,0.304063242,0.136943299
0.110921335,0.447999805,0.304047816,0.137031043
0.111040093,0.447801085,0.304038474,0.137120349
0.111158212,0.447595237,0.304035258,0.137211293
0.111275659,0.447382183,0.304038203,0.137303954
0.1113924,0.447161846,0.304047342,0.137398412
0.111508404,0.446934151,0.304062703,0.137494742
0.111623641,0.446699026,0.304084317,0.137593016
0.11173808,0.446456401,0.304112214,0.137693305
0.111851693,0.446206211,0.30414642,0.137795675
0.111964453,0.445948398,0.304186954,0.137900195
0.112076333,0.445682909,0.304233827,0.13800693
0.112187312,0.445409695,0.304287043,0.13811595
0.112297367,0.445128715,0.304346596,0.138227322
0.112406475,0.444839927,0.304412479,0.138341118
0.112514613,0.444543295,0.304484679,0.138457413
0.112621757,0.444238783,0.304563178,0.138576283
0.112727883,0.443926354,0.304647958,0.138697805
0.112832966,0.443605979,0.304738996,0.138822059
0.112936981,0.443277627,0.30483627,0.138949121
0.113039907,0.442941275,0.304939751,0.139079067
0.113141719,0.442596907,0.305049407,0.139211968
0.113242398,0.442244508,0.305165201,0.139347893
0.113341923,0.441884072,0.305287097,0.139486909
0.113440273,0.441515597,0.305415053,0.139629076
0.113537427,0.441139084,0.305549035,0.139774454
0.11363336,0.440754534,0.305689013,0.139923094
0.113728044,0.44036195,0.305834963,0.140075043
0.113821451,0.439961341,0.305986866,0.140230342
0.113913549,0.439552721,0.306144696,0.140389034
0.114004308,0.439136105,0.306308423,0.140551165
0.114093693,0.438711502,0.306478012,0.140716794
0.114181671,0.438278919,0.306653422,0.140885988
0.114268209,0.437838365,0.306834604,0.141058822
0.114353274,0.437389851,0.307021504,0.141235372
0.114436833,0.436933385,0.307214054,0.141415728
0.114518851,0.43646897,0.307412183,0.141599996
0.114599291,0.435996608,0.307615808,0.141788293
0.11467811,0.4355163,0.307824845,0.141980745
0.114755264,0.435028049,0.30803921,0.142177477
0.114830705,0.434531863,0.308258824,0.142378607
0.114904387,0.434027757,0.308483608,0.142584247
0.114976261,0.433515752,0.308713482,0.142794505
0.115046275,0.432995869,0.308948371,0.143009484
0.11511438,0.432468128,0.3091882,0.143229293
0.115180523,0.431932533,0.309432901,0.143454043
0.11524465,0.43138908,0.309682415,0.143683855
0.115306711,0.430837762,0.309936676,0.143918851
0.115366656,0.430278569,0.31019562,0.144159155
0.115424443,0.429711497,0.310459176,0.144404885
0.115480029,0.429136542,0.310727269,0.14465616
0.11553337,0.4285537,0.310999826,0.144913104
0.11558442,0.427962961,0.311276773,0.145175847
0.115633133,0.427364306,0.311558042,0.145444518
0.115679472,0.426757713,0.311843571,0.145719244
0.115723407,0.426143162,0.312133294,0.146000137
0.115764914,0.425520641,0.312427142,0.146287303
0.115803976,0.424890146,0.312725044,0.146580834
0.115840576,0.424251682,0.313026924,0.146880818
0.115874698,0.423605262,0.313332707,0.147187333
0.115906329,0.422950897,0.313642319,0.147500455
0.115935452,0.422288599,0.313955687,0.147820261
0.11596205,0.421618377,0.314272742,0.14814683
0.115986105,0.420940237,0.314593417,0.14848024
0.116007599,0.420254187,0.314917645,0.148820569
0.116026514,0.419560236,0.315245363,0.149167887
0.116042835,0.4188584,0.315576504,0.149522261
0.116056545,0.418148695,0.315910999,0.149883761
0.116067629,0.417431138,0.316248768,0.150252466
0.116076069,0.416705742,0.316589728,0.150628461
0.116081847,0.415972523,0.316933799,0.151011831
0.116084944,0.4152315,0.317280904,0.151402652
0.116085341,0.414482697,0.317630966,0.151800996
0.116083018,0.413726149,0.31798391,0.152206924
0.116077956,0.4129619,0.318339658,0.152620486
0.116070139,0.412190003,0.318698136,0.153041722
0.116059548,0.411410521,0.319059271,0.153470659
0.116046171,0.410623523,0.319422992,0.153907314
0.116029998,0.40982908,0.319789232,0.15435169
0.116011022,0.409027269,0.320157928,0.154803781
0.115989238,0.408218165,0.320529024,0.155263573
0.115964642,0.407401838,0.320902467,0.155731053
0.115937227,0.406578348,0.32127821,0.156206215
0.115906991,0.405747744,0.321656212,0.156689054
0.115873928,0.404910066,0.322036444,0.157179562
0.115838038,0.404065345,0.322418894,0.157677723
0.115799316,0.403213603,0.322803563,0.158183518
0.115757751,0.402354847,0.323190465,0.158696936
0.115713328,0.401489077,0.323579616,0.159217979
0.115666024,0.400616293,0.323971025,0.159746657
0.115615817,0.399736507,0.324364697,0.160282979
0.115562684,0.398849735,0.324760631,0.16082695
0.115506599,0.397956003,0.325158827,0.161378571
0.115447538,0.397055343,0.325559285,0.161937834
0.115385473,0.396147799,0.325962001,0.162504727
0.11532038,0.395233422,0.326366968,0.16307923
0.115252239,0.394312273,0.326774173,0.163661316
0.115181031,0.393384417,0.327183596,0.164250956
0.11510674,0.39244993,0.327595215,0.164848115
0.115029353,0.391508899,0.328009002,0.165452746
0.114948854,0.390561422,0.328424934,0.166064789
0.114865232,0.389607608,0.328842983,0.166684177
0.114778472,0.388647575,0.329263121,0.167310832
0.114688566,0.387681449,0.329685314,0.167944671
0.114595502,0.386709361,0.330109535,0.168585602
0.114499269,0.385731447,0.33053576,0.169233523
0.114399858,0.384747846,0.330963976,0.16988832
0.114297258,0.383758697,0.331394176,0.170549868
0.114191461,0.382764137,0.331826363,0.171218039
0.114082458,0.381764307,0.332260541,0.171892694
0.113970238,0.380759351,0.332696724,0.172573687
0.113854793,0.379749414,0.333134932,0.173260861
0.113736108,0.378734651,0.333575197,0.173954043
0.113614171,0.377715218,0.334017563,0.174653048
0.113488966,0.376691277,0.334462076,0.175357681
0.113360481,0.375662994,0.334908787,0.176067738
0.11322871,0.374630541,0.335357741,0.176783008
0.113093648,0.373594096,0.335808977,0.177503279
0.112955294,0.372553845,0.336262524,0.178228337
0.112813646,0.371509982,0.336718398,0.178957974
0.112668709,0.3704627,0.337176603,0.179691989
0.112520485,0.369412197,0.337637133,0.180430185
0.112368986,0.36835867,0.338099973,0.181172372
0.11221422,0.36730232,0.338565101,0.181918359
0.112056202,0.36624335,0.339032483,0.182667965
0.111894947,0.365181962,0.339502077,0.183421015
0.111730473,0.364118355,0.339973827,0.184177345
0.111562804,0.363052728,0.340447667,0.1849368
0.111391966,0.361985278,0.340923519,0.185699237
0.11121799,0.360916204,0.34140129,0.186464517
0.111040907,0.359845704,0.341880881,0.187232508
0.110860751,0.358773983,0.34236219,0.188003076
0.110677558,0.35770124,0.342845114,0.188776088
0.110491365,0.356627672,0.343329552,0.18955141
0.110302209,0.355553474,0.343815403,0.190328913
0.110110129,0.354478832,0.344302573,0.191108466
0.109915165,0.353403928,0.344790972,0.191889935
0.109717363,0.352328943,0.345280508,0.192673187
0.109516774,0.351254059,0.345771086,0.19345808
0.109313454,0.350179463,0.346262604,0.194244479
0.109107458,0.349105342,0.346754953,0.195032247
0.108898846,0.348031885,0.34724802,0.195821249
0.108687679,0.346959279,0.347741695,0.196611347
0.108474021,0.345887714,0.348235865,0.1974024
0.108257938,0.34481738,0.34873042,0.198194262
0.108039499,0.343748463,0.349225251,0.198986787
0.107818774,0.342681152,0.349720249,0.199779825
0.107595835,0.341615635,0.350215303,0.200573227
0.107370755,0.340552103,0.3507103,0.201366841
0.107143606,0.339490744,0.351205131,0.202160519
0.106914457,0.338431739,0.351699692,0.202954112
0.10668338,0.33737526,0.352193889,0.203747471
0.106450442,0.336321483,0.352687627,0.204540447
0.106215711,0.335270583,0.353180812,0.205332894
0.105979247,0.334222738,0.353673352,0.206124663
0.105741108,0.33317812,0.354165169,0.206915603
0.105501347,0.332136892,0.35465619,0.207705571
0.105260018,0.331099213,0.355146345,0.208494424
0.105017173,0.330065238,0.355635561,0.209282029
0.104772864,0.329035122,0.356123757,0.210068257
0.104527142,0.328009026,0.356610847,0.210852985
0.104280056,0.326987113,0.357096735,0.211636095
0.104031655,0.325969553,0.357581323,0.212417469
0.103781988,0.324956512,0.358064516,0.213196984
0.103531099,0.323948158,0.358546225,0.213974518
0.103279035,0.32294465,0.359026368,0.214749947
0.103025839,0.32194614,0.359504873,0.215523147
0.102771553,0.32095277,0.35998168,0.216293997
0.102516218,0.319964678,0.360456731,0.217062373
0.102259874,0.318982,0.360929971,0.217828155
0.102002563,0.318004875,0.361401342,0.218591219
0.101744327,0.317033441,0.361870784,0.219351447
0.101485208,0.316067834,0.362338237,0.22010872
0.10122525,0.315108185,0.36280364,0.220862924
0.100964496,0.314154618,0.363266931,0.221613954
0.10070299,0.313207252,0.363728048,0.22236171
0.100440777,0.312266198,0.364186927,0.223106099
0.100177901,0.311331565,0.364643505,0.223847029
0.099914408,0.310403454,0.36509772,0.224584419
0.099650342,0.30948196,0.365549507,0.225318191
0.099385749,0.30856717,0.365998801,0.22604828
0.099120671,0.307659166,0.36644554,0.226774623
0.098855149,0.306758024,0.366889664,0.227497162
0.098589224,0.305863818,0.367331122,0.228215837
0.098322931,0.304976622,0.367769864,0.228930583
0.098056308,0.304096512,0.368205842,0.229641338
0.097789388,0.303223563,0.368639014,0.230348035
0.097522205,0.302357847,0.36906934,0.231050608
0.097254792,0.301499427,0.369496781,0.231749
0.096987179,0.300648363,0.369921296,0.232443162
0.096719398,0.299804705,0.370342839,0.233133057
0.096451479,0.2989685,0.370761369,0.233818652
0.09618345,0.298139786,0.371176847,0.234499917
0.095915341,0.297318597,0.37158924,0.235176822
0.095647182,0.296504961,0.371998521,0.235849336
0.095379001,0.295698904,0.372404671,0.236517423
0.095110825,0.294900445,0.372807682,0.237181048
0.094842677,0.294109602,0.37320755,0.237840171
0.094574584,0.293326388,0.373604276,0.238494751
0.094306569,0.292550814,0.373997874,0.239144743
0.094038654,0.291782879,0.374388367,0.2397901
0.093770858,0.291022582,0.374775782,0.240430778
0.093503202,0.290269917,0.37516015,0.241066731
0.093235704,0.289524878,0.375541504,0.241697914
0.09296838,0.288787455,0.375919887,0.242324279
0.092701243,0.288057638,0.376295351,0.242945769
0.092434307,0.287335418,0.376667949,0.243562327
0.092167586,0.286620783,0.377037737,0.244173894
0.091901093,0.285913723,0.377404772,0.244780413
0.091634842,0.285214225,0.377769107,0.245381826
0.091368848,0.28452228,0.378130796,0.245978077
0.091103124,0.283837878,0.378489889,0.246569109
0.090837685,0.283161009,0.378846436,0.24715487
0.090572546,0.28249166,0.379200484,0.247735311
0.090307719,0.281829815,0.379552077,0.248310389
0.090043219,0.281175456,0.379901255,0.24888007
0.08977906,0.280528555,0.380248059,0.249444327
0.089515252,0.279889078,0.380592526,0.250003144
0.089251807,0.279256988,0.380934698,0.250556508
0.088988733,0.278632245,0.381274609,0.251104413
0.088726038,0.278014809,0.381612292,0.251646861
0.088463727,0.277404635,0.38194777,0.252183868
0.088201805,0.276801677,0.382281062,0.252715456
0.087940276,0.276205886,0.382612184,0.253241653
0.087679144,0.275617215,0.382941151,0.253762491
0.087418413,0.275035614,0.383267974,0.254277999
0.087158089,0.274461038,0.383592666,0.254788208
0.086898176,0.273893439,0.383915234,0.25529315
0.08663868,0.273332772,0.384235687,0.255792861
0.086379605,0.272778987,0.38455403,0.256287378
0.086120958,0.272232032,0.384870267,0.256776742
0.085862745,0.271691857,0.385184399,0.257260999
0.085604972,0.271158404,0.385496427,0.257740197
0.085347646,0.27063162,0.385806349,0.258214384
0.085090775,0.270111449,0.386114167,0.258683609
0.084834366,0.269597835,0.38641988,0.25914792
0.084578427,0.26909072,0.38672349,0.259607362
0.084322967,0.268590049,0.387025004,0.26006198
0.084067995,0.268095762,0.387324428,0.260511815
0.083813519,0.267607802,0.387621772,0.260956907
0.083559548,0.26712611,0.387917049,0.261397294
0.08330609,0.266650627,0.388210277,0.261833006
0.083053153,0.266181295,0.388501478,0.262264074
0.082800745,0.265718052,0.388790676,0.262690527
0.082548874,0.265260838,0.3890779,0.263112388
0.082297547,0.26480959,0.389363182,0.26352968
0.082046771,0.264364248,0.389646557,0.263942424
0.081796552,0.263924753,0.389928055,0.26435064
0.081546896,0.263491053,0.390207704,0.264754346
0.081297808,0.263063104,0.390485529,0.265153558
0.081049292,0.262640866,0.390761552,0.265548289
0.080801352,0.262224306,0.391035791,0.265938551
0.08055399,0.261813393,0.39130826,0.266324357
0.080307209,0.261408097,0.391578971,0.266705723
0.080061012,0.261008388,0.391847934,0.267082666
0.079815402,0.260614234,0.392115155,0.267455209
0.079570384,0.260225603,0.392380641,0.267823372
0.079325961,0.259842463,0.392644398,0.268187178
0.079082138,0.259464781,0.392906435,0.268546646
0.078838919,0.259092527,0.393166762,0.268901792
0.078596309,0.258725671,0.39342539,0.26925263
0.07835431,0.258364185,0.393682333,0.269599171
0.078112927,0.258008043,0.393937605,0.269941425
0.077872162,0.257657219,0.394191219,0.2702794
0.077632018,0.257311686,0.39444319,0.270613106
0.077392497,0.256971413,0.394693533,0.270942557
0.077153603,0.256636369,0.394942261,0.271267766
0.076915338,0.256306528,0.395189389,0.271588746
0.076677703,0.255981861,0.395434926,0.27190551
0.076440702,0.255662343,0.395678882,0.272218074
0.076204334,0.255347944,0.395921265,0.272526457
0.075968604,0.255038632,0.396162087,0.272830677
0.075733512,0.254734374,0.396401358,0.273130756
0.075499059,0.254435135,0.396639087,0.273426719
0.075265247,0.254140882,0.396875284,0.273718587
0.075032078,0.253851584,0.397109955,0.274006384
0.074799553,0.253567211,0.397343105,0.274290131
0.074567673,0.253287735,0.39757474,0.274569851
0.074336439,0.253013128,0.397804864,0.274845569
0.074105854,0.252743358,0.398033479,0.275117309
0.073875918,0.252478397,0.39826059,0.275385095
0.073646632,0.252218218,0.398486198,0.275648952
0.073417999,0.251962797,0.398710299,0.275908905
0.073190017,0.251712118,0.39893289,0.276164974
0.072962688,0.251466168,0.399153966,0.276417177
0.072736012,0.251224931,0.399373523,0.276665534
0.072509988,0.250988388,0.399591561,0.276910063
0.072284618,0.25075652,0.399808078,0.277150784
0.072059903,0.250529303,0.400023077,0.277387717
0.071835841,0.250306717,0.400236555,0.277620887
0.071612435,0.25008874,0.40044851,0.277850315
0.07138968,0.249875357,0.400658939,0.278076024
0.071167575,0.249666557,0.400867839,0.27829803
0.070946116,0.249462328,0.401075207,0.278516348
0.0707253,0.249262664,0.401281042,0.278730994
0.070505122,0.249067558,0.401485339,0.278941981
0.070285576,0.248877003,0.401688092,0.279149329
0.070066658,0.248690988,0.401889293,0.27935306
0.069848362,0.248509503,0.402088936,0.279553199
0.069630682,0.24833253,0.402287012,0.279749775
0.069413615,0.24816005,0.402483515,0.27994282
0.069197154,0.247992041,0.402678436,0.280132369
0.068981296,0.247828475,0.402871772,0.280318457
0.068766035,0.247669324,0.403063519,0.280501122
0.068551368,0.247514558,0.403253676,0.280680397
0.068337293,0.247364146,0.403442242,0.280856319
0.068123805,0.247218055,0.403629219,0.281028921
0.067910901,0.247076255,0.403814604,0.28119824
0.067698579,0.246938715,0.403998397,0.281364309
0.067486837,0.246805404,0.404180595,0.281527165
0.067275671,0.246676292,0.404361195,0.281686842
0.067065082,0.246551348,0.404540197,0.281843374
0.066855067,0.246430539,0.404717599,0.281996795
0.066645626,0.246313831,0.404893406,0.282147137
0.066436758,0.246201191,0.405067621,0.28229443
0.066228463,0.246092586,0.405240249,0.282438702
0.066020738,0.245987979,0.4054113,0.282579983
0.065813582,0.245887335,0.40558078,0.282718302
0.065606994,0.245790616,0.405748701,0.282853689
0.06540097,0.245697784,0.405915074,0.282986171
0.065195508,0.245608801,0.406079915,0.283115775
0.064990605,0.245523628,0.406243241,0.283242526
0.064786258,0.245442224,0.40640507,0.283366447
0.064582465,0.245364552,0.40656542,0.283487563
0.064379224,0.245290574,0.406724304,0.283605898
0.064176534,0.245220252,0.406881737,0.283721477
0.063974391,0.245153549,0.407037731,0.283834329
0.063772796,0.245090428,0.407192296,0.283944481
0.063571746,0.245030851,0.407345441,0.284051963
0.06337124,0.244974781,0.407497174,0.284156804
0.063171279,0.244922178,0.407647506,0.284259037
0.062971859,0.244873002,0.407796444,0.284358695
0.062772981,0.244827214,0.407943994,0.284455812
0.062574642,0.244784773,0.408090162,0.284550424
0.062376841,0.244745641,0.408234952,0.284642566
0.062179577,0.244709781,0.408378368,0.284732274
0.061982847,0.244677154,0.408520413,0.284819586
0.061786652,0.244647723,0.408661087,0.284904539
0.061590988,0.244621449,0.408800391,0.284987172
0.061395856,0.244598294,0.408938327,0.285067523
0.061201254,0.244578218,0.409074899,0.285145629
0.061007182,0.244561183,0.409210108,0.285221527
0.060813639,0.244547151,0.40934396,0.28529525
0.060620624,0.244536085,0.409476457,0.285366833
0.060428138,0.244527948,0.409607604,0.28543631
0.060236181,0.244522702,0.409737403,0.285503714
0.060044754,0.24452031,0.409865856,0.28556908
0.059853856,0.244520735,0.409992966,0.285632442
0.059663491,0.244523942,0.410118734,0.285693834
0.059473659,0.244529894,0.41024316,0.285753287
0.059284361,0.244538558,0.410366246,0.285810835
0.059095598,0.244549904,0.410487991,0.285866507
0.05890737,0.244563903,0.410608394,0.285920333
0.058719678,0.244580527,0.410727452,0.285972343
0.058532523,0.24459975,0.41084516,0.286022566
0.058345903,0.244621547,0.410961514,0.286071036
0.058159821,0.244645891,0.411076504,0.286117784
0.057974275,0.244672759,0.411190123,0.286162842
0.057789267,0.244702127,0.41130236,0.286206246
0.057604796,0.244733972,0.411413203,0.286248028
0.057420864,0.244768269,0.411522644,0.286288223
0.057237471,0.244804991,0.411630672,0.286326867
0.057054616,0.244844111,0.411737281,0.286363992
0.056872301,0.244885601,0.411842465,0.286399632
0.056690527,0.244929432,0.41194622,0.286433821
0.056509293,0.244975575,0.412048543,0.286466589
0.056328601,0.245024,0.412149432,0.286497967
0.056148451,0.245074679,0.412248886,0.286527985
0.055968842,0.245127586,0.412346902,0.28655667
0.055789776,0.245182696,0.412443477,0.286584051
0.055611252,0.245239986,0.412538608,0.286610154
0.055433271,0.245299433,0.412632292,0.286635005
0.055255832,0.245361016,0.412724525,0.286658628
0.055078935,0.245424716,0.412815301,0.286681048
0.054902581,0.245490512,0.41290462,0.286702287
0.054726769,0.245558385,0.412992476,0.28672237
0.054551499,0.245628314,0.41307887,0.286741316
0.054376772,0.245700284,0.413163798,0.286759147
0.054202585,0.245774278,0.413247256,0.286775881
0.054028939,0.245850281,0.413329242,0.286791538
0.053855833,0.245928281,0.41340975,0.286806137
0.053683266,0.246008263,0.413488776,0.286819696
0.053511237,0.246090215,0.413566316,0.286832232
0.053339744,0.246174129,0.413642366,0.286843761
0.053168788,0.246259997,0.413716917,0.286854299
0.052998365,0.246347815,0.41378996,0.28686386
0.052828475,0.246437576,0.413861488,0.286872461
0.052659116,0.246529275,0.413931493,0.286880116
0.052490287,0.246622903,0.413999971,0.286886839
0.052321986,0.246718454,0.41406692,0.286892641
0.052154213,0.246815919,0.414132336,0.286897533
0.051986965,0.246915291,0.414196218,0.286901526
0.051820242,0.247016561,0.414258565,0.286904633
0.051654043,0.247119719,0.414319375,0.286906863
0.051488367,0.247224755,0.414378647,0.286908231
0.051323213,0.247331657,0.414436382,0.286908749
0.051158581,0.24744041,0.414492579,0.28690843
0.050994469,0.247551,0.414547241,0.286907289
0.050830878,0.247663415,0.414600369,0.286905337
0.050667807,0.24777764,0.414651969,0.286902584
0.050505254,0.247893658,0.414702046,0.286899041
0.05034322,0.248011456,0.414750609,0.286894716
0.050181704,0.248131016,0.414797664,0.286889617
0.050020705,0.248252322,0.41484322,0.286883753
0.049860224,0.248375359,0.414887285,0.286877132
0.04970026,0.24850011,0.414929866,0.286869764
0.049540815,0.248626555,0.414970973,0.286861656
0.049381888,0.248754679,0.415010615,0.286852818
0.049223479,0.248884461,0.415048803,0.286843256
0.049065588,0.249015884,0.415085549,0.286832979
0.048908215,0.24914893,0.415120864,0.286821991
0.048751359,0.249283582,0.415154759,0.2868103
0.04859502,0.249419823,0.415187247,0.28679791
0.048439196,0.249557637,0.41521834,0.286784827
0.048283889,0.249697006,0.415248048,0.286771058
0.048129097,0.249837912,0.415276385,0.286756606
0.04797482,0.249980339,0.415303363,0.286741478
0.047821057,0.250124268,0.415328996,0.286725678
0.04766781,0.250269685,0.415353296,0.286709209
0.047515075,0.250416571,0.415376276,0.286692077
0.047362853,0.250564909,0.415397949,0.286674289
0.047211143,0.250714677,0.41541833,0.286655851
0.047059942,0.250865855,0.415437433,0.286636771
0.046909248,0.251018421,0.415455272,0.286617059
0.046759061,0.251172354,0.415471859,0.286596727
0.046609376,0.25132763,0.415487208,0.286575786
0.046460191,0.251484227,0.415501333,0.286554249
0.046311505,0.251642119,0.415514247,0.28653213
0.046163313,0.251801284,0.415525964,0.286509439
0.046015614,0.251961698,0.415536498,0.286486189
0.045868407,0.252123339,0.415545862,0.286462392
0.045721689,0.252286182,0.41555407,0.286438059
0.045575459,0.252450206,0.415561134,0.286413202
0.045429716,0.25261539,0.415567064,0.28638783
0.045284458,0.252781711,0.415571874,0.286361957
0.045139686,0.25294915,0.415575573,0.286335592
0.044995397,0.253117684,0.415578171,0.286308748
0.044851592,0.253287294,0.41557968,0.286281435
0.044708269,0.253457957,0.415580109,0.286253666
0.044565428,0.253629652,0.415579469,0.28622545
0.044423069,0.253802359,0.415577773,0.286196799
0.04428119,0.253976057,0.415575032,0.286167721
0.044139792,0.254150725,0.415571259,0.286138225
0.043998873,0.254326343,0.415566466,0.286108318
0.043858434,0.254502889,0.415560667,0.28607801
0.043718474,0.254680346,0.415553874,0.286047307
0.043578993,0.254858692,0.4155461,0.286016215
0.043439989,0.255037911,0.41553736,0.28598474
0.395109475,0.311744023,0.029725687,0.263420815
0.394797888,0.311698261,0.029730034,0.263773818
0.394486376,0.311650812,0.029734382,0.26412843
0.394174948,0.311601676,0.029738732,0.264484644
0.393863608,0.311550853,0.029743087,0.264842452
0.393552364,0.311498345,0.029747445,0.265201845
0.393241222,0.311444154,0.029751809,0.265562815
0.392930187,0.311388281,0.02975618,0.265925352
0.392619266,0.311330727,0.029760559,0.266289448
0.392308464,0.311271496,0.029764946,0.266655093
0.391997787,0.311210591,0.029769343,0.267022279
0.391687241,0.311148013,0.02977375,0.267390996
0.391376831,0.311083766,0.029778168,0.267761235
0.391066562,0.311017853,0.029782597,0.268132988
0.390756438,0.310950279,0.029787037,0.268506246
0.390446464,0.310881049,0.029791489,0.268880998
0.390136643,0.310810168,0.029795952,0.269257236
0.389826981,0.310737642,0.029800428,0.269634949
0.38951748,0.310663476,0.029804917,0.270014127
0.389208144,0.310587677,0.029809419,0.270394759
0.388898979,0.31051025,0.029813936,0.270776836
0.388589986,0.310431201,0.029818467,0.271160346
0.38828117,0.310350538,0.029823013,0.271545279
0.387972534,0.310268268,0.029827574,0.271931623
0.38766408,0.310184401,0.029832151,0.272319368
0.387355809,0.310098947,0.029836744,0.2727085
0.387047723,0.310011919,0.029841352,0.273099006
0.386739821,0.309923331,0.029845975,0.273490872
0.386432105,0.309833197,0.029850613,0.273884085
0.386124573,0.309741533,0.029855265,0.27427863
0.385817224,0.309648355,0.029859931,0.274674491
0.385510057,0.309553682,0.029864611,0.275071651
0.385203066,0.309457537,0.029869305,0.275470092
0.384896248,0.309359942,0.029874015,0.275869796
0.384589595,0.309260922,0.02987874,0.276270743
0.384283104,0.309160504,0.029883481,0.276672912
0.383976766,0.309058714,0.029888239,0.277076282
0.383670575,0.30895558,0.029893014,0.277480831
0.383364526,0.308851131,0.029897805,0.277886538
0.38305861,0.308745396,0.029902614,0.27829338
0.382752822,0.308638405,0.029907439,0.278701335
0.382447154,0.308530186,0.02991228,0.279110379
0.382141601,0.308420771,0.029917138,0.27952049
0.381836156,0.308310188,0.029922011,0.279931645
0.381530814,0.308198467,0.029926899,0.28034382
0.381225567,0.308085638,0.029931801,0.280756993
0.380920411,0.307971732,0.029936717,0.28117114
0.380615339,0.30785678,0.029941645,0.281586237
0.380310344,0.307740811,0.029946584,0.282002261
0.380005422,0.307623858,0.029951532,0.282419188
0.379700564,0.307505951,0.02995649,0.282836995
0.379395765,0.307387121,0.029961456,0.283255658
0.379091019,0.307267399,0.029966428,0.283675154
0.378786318,0.307146816,0.029971406,0.284095459
0.378481657,0.307025403,0.029976389,0.284516551
0.378177029,0.306903191,0.029981375,0.284938405
0.377872427,0.30678021,0.029986363,0.285361
0.377567843,0.306656492,0.029991355,0.28578431
0.377263271,0.306532068,0.029996349,0.286208312
0.376958702,0.306406971,0.030001345,0.286632982
0.376654132,0.306281231,0.030006343,0.287058295
0.376349551,0.306154881,0.030011342,0.287484226
0.376044955,0.306027952,0.030016342,0.287910751
0.375740336,0.305900477,0.030021342,0.288337845
0.37543569,0.305772487,0.030026341,0.288765483
0.375131008,0.305644012,0.030031338,0.289193642
0.374826286,0.305515085,0.030036331,0.289622297
0.374521519,0.305385736,0.030041321,0.290051424
0.3742167,0.305255995,0.030046305,0.290481
0.373911825,0.305125894,0.030051282,0.290910998
0.373606889,0.304995462,0.030056253,0.291341396
0.373301885,0.30486473,0.030061216,0.291772169
0.372996809,0.304733729,0.030066171,0.292203291
0.372691653,0.30460249,0.030071119,0.292634738
0.372386412,0.304471045,0.030076058,0.293066486
0.372081077,0.304339427,0.030080988,0.293498508
0.371775643,0.304207668,0.030085908,0.29393078
0.371470102,0.304075803,0.030090818,0.294363277
0.371164446,0.303943865,0.030095716,0.294795974
0.370858668,0.303811888,0.030100601,0.295228844
0.37055276,0.303679905,0.030105472,0.295661863
0.370246715,0.303547952,0.030110328,0.296095005
0.369940527,0.30341606,0.030115169,0.296528244
0.369634187,0.303284266,0.030119993,0.296961554
0.369327689,0.303152602,0.030124802,0.297394907
0.369021025,0.303021105,0.030129594,0.297828277
0.368714187,0.302889808,0.03013437,0.298261636
0.368407168,0.302758747,0.03013913,0.298694955
0.368099961,0.302627956,0.030143874,0.299128209
0.36779256,0.302497472,0.030148601,0.299561367
0.367484957,0.302367328,0.030153312,0.299994402
0.367177147,0.302237559,0.030158007,0.300427287
0.366869124,0.302108198,0.030162685,0.300859993
0.366560882,0.30197928,0.030167346,0.301292492
0.366252416,0.30185084,0.030171988,0.301724756
0.365943722,0.30172291,0.030176612,0.302156756
0.365634794,0.301595525,0.030181216,0.302588464
0.365325627,0.30146872,0.0301858,0.303019853
0.365016216,0.301342529,0.030190362,0.303450893
0.364706555,0.301216987,0.030194902,0.303881556
0.364396638,0.301092128,0.030199419,0.304311815
0.36408646,0.300967987,0.030203912,0.304741641
0.363776014,0.300844599,0.030208381,0.305171007
0.363465292,0.300721996,0.030212827,0.305599884
0.36315429,0.300600214,0.03021725,0.306028245
0.362842999,0.300479285,0.030221651,0.306456064
0.362531415,0.300359242,0.030226031,0.306883313
0.362219529,0.300240117,0.03023039,0.307309964
0.361907336,0.300121943,0.030234729,0.307735991
0.361594829,0.300004754,0.03023905,0.308161366
0.361282002,0.299888583,0.030243353,0.308586062
0.360968846,0.299773464,0.03024764,0.309010049
0.360655357,0.29965943,0.030251911,0.309433302
0.360341525,0.299546516,0.030256166,0.309855793
0.360027345,0.299434754,0.030260407,0.310277493
0.359712811,0.299324179,0.030264634,0.310698376
0.359397914,0.299214824,0.030268849,0.311118414
0.359082647,0.299106719,0.030273054,0.31153758
0.358767004,0.298999896,0.030277253,0.311955847
0.358450976,0.298894387,0.030281448,0.312373189
0.358134556,0.298790221,0.030285643,0.31278958
0.357817738,0.29868743,0.030289841,0.313204991
0.357500516,0.298586044,0.030294043,0.313619397
0.357182882,0.298486095,0.030298252,0.314032771
0.356864832,0.298387611,0.03030247,0.314445087
0.35654636,0.298290622,0.030306699,0.31485632
0.356227461,0.298195159,0.030310939,0.315266442
0.35590813,0.29810125,0.030315193,0.315675428
0.355588361,0.298008926,0.030319461,0.316083251
0.355268151,0.297918217,0.030323746,0.316489886
0.354947493,0.297829152,0.030328049,0.316895306
0.354626383,0.297741763,0.030332371,0.317299483
0.354304816,0.297656081,0.030336713,0.31770239
0.353982785,0.297572138,0.030341078,0.318103999
0.353660285,0.297489967,0.030345467,0.318504281
0.353337308,0.297409601,0.030349883,0.318903208
0.353013847,0.297331074,0.03035433,0.319300749
0.352689896,0.297254418,0.03035881,0.319696876
0.352365447,0.297179668,0.030363327,0.320091558
0.352040493,0.297106857,0.030367884,0.320484765
0.351715027,0.297036019,0.030372484,0.32087647
0.351389043,0.296967186,0.03037713,0.321266642
0.351062532,0.296900392,0.030381824,0.321655252
0.35073549,0.296835669,0.03038657,0.322042271
0.35040791,0.296773049,0.03039137,0.322427671
0.350079786,0.296712564,0.030396227,0.322811423
0.349751111,0.296654246,0.030401142,0.3231935
0.34942188,0.296598127,0.03040612,0.323573873
0.349092085,0.296544239,0.030411163,0.323952514
0.34876172,0.296492612,0.030416274,0.324329394
0.348430777,0.296443278,0.030421458,0.324704487
0.348099249,0.296396269,0.030426718,0.325077763
0.34776713,0.296351614,0.030432061,0.325449195
0.347434413,0.296309344,0.030437489,0.325818755
0.347101091,0.296269485,0.030443006,0.326186418
0.346767158,0.296232068,0.030448617,0.326552157
0.346432609,0.296197119,0.030454325,0.326915947
0.346097438,0.296164664,0.030460133,0.327277765
0.345761638,0.296134731,0.030466045,0.327637587
0.345425203,0.296107344,0.030472061,0.327995392
0.345088128,0.296082528,0.030478186,0.328351158
0.344750405,0.296060309,0.030484422,0.328704864
0.34441203,0.29604071,0.030490771,0.329056489
0.344072997,0.296023756,0.030497236,0.329406012
0.343733299,0.296009469,0.03050382,0.329753412
0.343392931,0.295997876,0.030510525,0.330098668
0.343051886,0.295989001,0.030517354,0.330441758
0.342710159,0.295982869,0.03052431,0.330782662
0.342367743,0.295979502,0.030531395,0.33112136
0.342024633,0.295978922,0.030538611,0.331457834
0.341680821,0.29598115,0.030545961,0.331792068
0.341336302,0.295986206,0.030553448,0.332124044
0.340991068,0.295994109,0.030561073,0.33245375
0.340645114,0.296004876,0.030568839,0.332781171
0.34029843,0.296018524,0.030576748,0.333106297
0.339951009,0.296035067,0.030584804,0.33342912
0.339602845,0.296054517,0.030593006,0.333749632
0.33925393,0.296076889,0.030601358,0.334067823
0.33890426,0.296102193,0.03060986,0.334383686
0.33855383,0.296130441,0.030618514,0.334697214
0.338202635,0.296161643,0.030627322,0.3350084
0.337850672,0.296195808,0.030636282,0.335317237
0.337497937,0.296232945,0.030645398,0.33562372
0.337144426,0.296273063,0.030654668,0.335927844
0.336790136,0.296316168,0.030664093,0.336229603
0.336435064,0.29636227,0.030673673,0.336528992
0.336079209,0.296411376,0.030683409,0.336826006
0.335722568,0.296463491,0.030693302,0.337120639
0.335365141,0.296518623,0.030703352,0.337412884
0.335006929,0.296576776,0.030713561,0.337702734
0.334647934,0.296637957,0.03072393,0.337990179
0.334288158,0.29670217,0.03073446,0.338275213
0.333927604,0.296769417,0.030745152,0.338557827
0.333566278,0.2968397,0.030756008,0.338838015
0.333204183,0.29691302,0.030767027,0.33911577
0.332841328,0.296989375,0.03077821,0.339391086
0.33247772,0.297068765,0.030789558,0.339663957
0.332113365,0.297151188,0.03080107,0.339934377
0.331748273,0.297236641,0.030812746,0.340202341
0.331382451,0.297325121,0.030824586,0.340467842
0.331015909,0.297416623,0.03083659,0.340730879
0.330648654,0.297511141,0.030848758,0.340991446
0.330280697,0.297608671,0.030861091,0.34124954
0.329912047,0.297709205,0.030873587,0.341505161
0.329542715,0.297812734,0.030886246,0.341758305
0.32917271,0.297919252,0.030899068,0.34200897
0.328802047,0.298028749,0.030912051,0.342257153
0.328430738,0.298141218,0.030925194,0.34250285
0.328058798,0.298256649,0.030938496,0.342746057
0.327686242,0.298375033,0.030951956,0.342986769
0.327313085,0.29849636,0.030965572,0.343224984
0.326939342,0.298620618,0.030979341,0.343460699
0.326565028,0.298747798,0.030993261,0.343693913
0.326190159,0.298877886,0.03100733,0.343924625
0.325814748,0.29901087,0.031021545,0.344152837
0.325438811,0.299146737,0.031035902,0.34437855
0.325062364,0.29928547,0.031050398,0.344601767
0.324685422,0.299427055,0.03106503,0.344822493
0.324308002,0.299571475,0.031079792,0.345040732
0.323930121,0.29971871,0.031094681,0.345256488
0.323551795,0.299868741,0.031109694,0.34546977
0.323173043,0.300021545,0.031124826,0.345680586
0.322793882,0.300177099,0.031140075,0.345888945
0.322414331,0.300335378,0.031155435,0.346094856
0.322034411,0.300496358,0.031170902,0.346298329
0.321654144,0.300660012,0.031186474,0.346499371
0.321273555,0.30082631,0.031202143,0.346697991
0.320892673,0.300995225,0.031217907,0.346894194
0.320511526,0.301166725,0.031233761,0.347087988
0.320130141,0.301340781,0.031249699,0.34727938
0.319748548,0.30151736,0.031265716,0.347468376
0.319366773,0.301696434,0.031281809,0.347654983
0.318984842,0.301877974,0.031297974,0.34783921
0.318602782,0.302061948,0.031314209,0.348021061
0.318220617,0.302248326,0.031330511,0.348200546
0.31783837,0.302437076,0.031346879,0.348377675
0.317456065,0.302628165,0.03136331,0.348552459
0.317073727,0.30282156,0.031379804,0.348724909
0.316691383,0.303017226,0.031396357,0.348895034
0.31630906,0.303215128,0.031412968,0.349062843
0.315926789,0.30341523,0.031429634,0.349228347
0.3155446,0.303617495,0.031446351,0.349391553
0.315162523,0.303821889,0.031463118,0.349552471
0.314780588,0.304028372,0.031479931,0.349711109
0.314398831,0.304236907,0.031496786,0.349867477
0.314017284,0.304447452,0.03151368,0.350021583
0.313635988,0.304659965,0.031530611,0.350173436
0.313254982,0.3048744,0.031547576,0.350323042
0.312874312,0.30509071,0.03156457,0.350470408
0.312494025,0.305308842,0.03158159,0.350615542
0.312114172,0.305528743,0.031598632,0.350758454
0.311734806,0.305750354,0.031615691,0.350899149
0.311355988,0.305973617,0.031632765,0.35103763
0.31097778,0.306198472,0.031649849,0.351173899
0.310600243,0.306424859,0.031666941,0.351307957
0.310223443,0.306652718,0.031684036,0.351439803
0.309847447,0.306881989,0.03170113,0.351569434
0.309472323,0.307112612,0.031718221,0.351696844
0.309098142,0.307344528,0.031735304,0.351822025
0.308724977,0.307577679,0.031752377,0.351944967
0.3083529,0.307812005,0.031769438,0.352065658
0.307981982,0.308047445,0.031786483,0.35218409
0.307612295,0.308283943,0.031803509,0.352300253
0.307243906,0.308521438,0.031820515,0.352414142
0.306876883,0.30875987,0.031837498,0.352525749
0.306511294,0.308999178,0.031854456,0.352635072
0.306147206,0.309239297,0.031871388,0.35274211
0.305784684,0.309480163,0.03188829,0.352846864
0.305423798,0.309721711,0.031905161,0.352949329
0.305064619,0.309963878,0.031921999,0.353049504
0.30470722,0.310206597,0.0319388,0.353147382
0.304351676,0.310449804,0.031955563,0.353242957
0.30399806,0.310693431,0.031972285,0.353336224
0.303646452,0.310937412,0.031988961,0.353427176
0.303296932,0.311181678,0.032005588,0.353515803
0.302949582,0.311426159,0.032022162,0.353602098
0.302604488,0.311670781,0.032038679,0.353686052
0.302261736,0.311915472,0.032055134,0.353767658
0.301921413,0.312160155,0.032071522,0.35384691
0.301583608,0.312404755,0.032087837,0.353923799
0.301248414,0.312649198,0.032104076,0.353998313
0.300915921,0.312893409,0.032120233,0.354070437
0.300586219,0.31313732,0.032136302,0.354140159
0.300259396,0.313380859,0.032152281,0.354207464
0.299935538,0.313623959,0.032168164,0.354272339
0.299614729,0.313866554,0.032183946,0.35433477
0.299297053,0.314108578,0.032199624,0.354394745
0.298982593,0.314349965,0.032215193,0.354452248
0.298671442,0.314590645,0.032230648,0.354507265
0.298363694,0.314830546,0.032245984,0.354559776
0.298059447,0.315069597,0.032261194,0.354609762
0.297758803,0.315307723,0.032276273,0.354657201
0.297461864,0.31554485,0.032291215,0.354702071
0.297168737,0.315780903,0.032306013,0.354744347
0.296879531,0.316015808,0.03232066,0.354784001
0.296594356,0.316249491,0.03233515,0.354821004
0.296313319,0.316481879,0.032349475,0.354855326
0.296036531,0.316712902,0.03236363,0.354886937
0.2957641,0.316942487,0.032377609,0.354915804
0.295496138,0.317170562,0.032391407,0.354941892
0.295232758,0.317397057,0.03240502,0.354965165
0.294974071,0.317621901,0.032418444,0.354985584
0.294720191,0.317845024,0.032431675,0.35500311
0.294471226,0.318066361,0.032444709,0.355017704
0.294227289,0.318285842,0.032457543,0.355029326
0.293988492,0.318503398,0.032470174,0.355037936
0.293754952,0.318718956,0.032482598,0.355043493
0.293526788,0.318932445,0.032494812,0.355045955
0.293304123,0.319143788,0.032506811,0.355045279
0.29308708,0.319352908,0.032518591,0.355041421
0.292875792,0.319559727,0.032530146,0.355034335
0.292670392,0.319764161,0.032541472,0.355023975
0.292471015,0.319966127,0.032552564,0.355010293
0.292277795,0.320165543,0.032563416,0.354993246
0.292090861,0.320362327,0.032574022,0.35497279
0.291910346,0.320556396,0.032584377,0.354948882
0.291736381,0.320747667,0.032594474,0.354921478
0.291569099,0.320936057,0.032604308,0.354890536
0.291408629,0.321121481,0.032613874,0.354856016
0.291255101,0.321303855,0.032623166,0.354817878
0.29110864,0.321483094,0.032632182,0.354776085
0.290969367,0.321659115,0.032640917,0.354730601
0.290837404,0.321831834,0.03264937,0.354681393
0.29071287,0.322001167,0.032657537,0.354628427
0.290595881,0.322167032,0.032665415,0.354571672
0.290486551,0.322329346,0.032673003,0.3545111
0.290384989,0.322488031,0.032680298,0.354446682
0.2902913,0.322643012,0.032687298,0.35437839
0.290205587,0.322794217,0.032694001,0.354306195
0.290127949,0.322941575,0.032700408,0.354230067
0.290058492,0.323085015,0.032706516,0.354149976
0.289997319,0.323224466,0.032712326,0.35406589
0.289944532,0.323359855,0.032717834,0.353977779
0.289900234,0.323491114,0.032723041,0.353885611
0.289864526,0.323618172,0.032727946,0.353789356
0.289837513,0.323740959,0.032732549,0.353688979
0.289819296,0.323859406,0.03273685,0.353584447
0.289809974,0.323973447,0.03274085,0.35347573
0.289809635,0.324083016,0.032744549,0.3533628
0.289818367,0.32418805,0.032747949,0.353245634
0.289836252,0.324288488,0.032751051,0.353124209
0.289863369,0.324384267,0.032753857,0.352998506
0.289899799,0.324475329,0.032756369,0.352868504
0.289945617,0.324561616,0.032758588,0.35273418
0.290000898,0.324643076,0.032760515,0.352595511
0.290065715,0.324719658,0.032762151,0.352452476
0.290140136,0.324791313,0.032763499,0.352305052
0.290224225,0.324857998,0.03276456,0.352153217
0.290318045,0.32491967,0.032765334,0.351996951
0.290421661,0.324976287,0.032765823,0.351836229
0.290535139,0.325027806,0.032766028,0.351671028
0.290658549,0.32507418,0.032765951,0.35150132
0.290791967,0.325115362,0.032765594,0.351327077
0.290935471,0.3251513,0.032764957,0.351148272
0.29108914,0.325181947,0.03276404,0.350964873
0.291253051,0.325207256,0.032762843,0.350776851
0.291427278,0.325227183,0.032761364,0.350584175
0.291611897,0.325241685,0.032759601,0.350386816
0.291806977,0.325250719,0.032757554,0.35018475
0.292012588,0.325254243,0.032755219,0.349977949
0.292228795,0.325252217,0.032752597,0.349766391
0.292455658,0.325244603,0.032749684,0.349550055
0.292693236,0.325231364,0.032746481,0.349328919
0.292941584,0.325212466,0.032742986,0.349102964
0.29320075,0.32518788,0.032739199,0.348872171
0.293470776,0.325157578,0.032735121,0.348636525
0.293751697,0.325121537,0.032730751,0.348396014
0.294043541,0.325079736,0.032726092,0.348150631
0.294346329,0.325032157,0.032721144,0.34790037
0.294660074,0.324978786,0.032715909,0.347645231
0.294984781,0.324919615,0.032710387,0.347385217
0.29532045,0.324854636,0.032704581,0.347120333
0.29566707,0.324783848,0.032698494,0.346850589
0.296024624,0.32470725,0.032692126,0.346575999
0.296393091,0.324624847,0.032685483,0.346296579
0.296772441,0.324536644,0.032678566,0.346012349
0.297162641,0.324442652,0.032671378,0.345723329
0.297563652,0.324342885,0.032663922,0.34542954
0.297975429,0.32423736,0.032656201,0.34513101
0.298397922,0.324126098,0.032648217,0.344827763
0.298831076,0.324009124,0.032639972,0.344519828
0.29927483,0.323886465,0.032631469,0.344207236
0.299729123,0.323758154,0.032622708,0.343890015
0.300193887,0.323624223,0.032613694,0.343568196
0.300669054,0.323484709,0.032604427,0.34324181
0.301154552,0.323339651,0.032594911,0.342910887
0.30165031,0.323189087,0.032585145,0.342575458
0.302156254,0.323033058,0.032575133,0.342235555
0.302672305,0.322871608,0.032564875,0.341891213
0.303198376,0.322704781,0.032554373,0.341542469
0.303734379,0.322532627,0.032543629,0.341189364
0.30428022,0.322355196,0.032532645,0.340831939
0.304835804,0.322172539,0.03252142,0.340470237
0.305401031,0.321984707,0.032509957,0.340104304
0.305975804,0.321791755,0.032498257,0.339734184
0.306560021,0.321593737,0.032486319,0.339359923
0.307153582,0.321390711,0.032474144,0.338981563
0.30775638,0.321182735,0.032461734,0.338599152
0.308368307,0.320969869,0.03244909,0.338212734
0.308989254,0.320752174,0.032436213,0.337822359
0.309619107,0.32052971,0.032423106,0.337428078
0.310257751,0.320302537,0.03240977,0.337029942
0.310905073,0.320070714,0.032396207,0.336628006
0.311560954,0.319834303,0.032382419,0.336222324
0.312225277,0.319593364,0.032368408,0.335812951
0.312897918,0.319347959,0.032354175,0.335399947
0.313578751,0.319098154,0.032339722,0.334983373
0.314267646,0.318844013,0.032325051,0.33456329
0.314964469,0.318585605,0.032310165,0.334139762
0.315669084,0.318322999,0.032295065,0.333712852
0.316381354,0.318056265,0.032279757,0.333282624
0.317101143,0.317785476,0.032264242,0.332849139
0.317828312,0.317510703,0.032248525,0.332412461
0.31856272,0.317232018,0.03223261,0.331972652
0.319304225,0.316949495,0.032216501,0.331529779
0.320052681,0.316663208,0.032200204,0.331083907
0.320807941,0.316373231,0.032183723,0.330635106
0.321569858,0.316079635,0.032167063,0.330183443
0.322338288,0.315782494,0.032150229,0.329728989
0.323113081,0.31548188,0.032133226,0.329271814
0.323894089,0.315177863,0.032116059,0.328811988
0.324681163,0.314870517,0.032098735,0.328349585
0.325474147,0.314559917,0.03208126,0.327884676
0.326272889,0.314246136,0.032063641,0.327417335
0.327077231,0.313929247,0.032045885,0.326947637
0.327887019,0.313609325,0.032027998,0.326475658
0.328702101,0.31328644,0.032009988,0.326001472
0.329522324,0.312960662,0.031991859,0.325525154
0.330347541,0.312632063,0.031973618,0.325046778
0.331177602,0.312300713,0.031955269,0.324566416
0.332012358,0.311966681,0.031936818,0.324084142
0.332851661,0.311630037,0.031918269,0.323600032
0.333695361,0.31129085,0.031899627,0.323114162
0.334543306,0.31094919,0.031880897,0.322626608
0.335395346,0.310605126,0.031862083,0.322137445
0.336251329,0.310258731,0.03184319,0.32164675
0.337111104,0.309910075,0.031824224,0.321154598
0.337974517,0.30955923,0.03180519,0.320661064
0.338841416,0.309206267,0.031786094,0.320166222
0.339711649,0.30885126,0.031766942,0.319670149
0.340585065,0.308494279,0.03174774,0.319172916
0.341461515,0.308135395,0.031728493,0.318674598
0.342340854,0.307774675,0.031709205,0.318175266
0.343222937,0.307412188,0.031689883,0.317674992
0.344107625,0.307048,0.03167053,0.317173845
0.344994776,0.306682179,0.031651151,0.316671894
0.345884252,0.306314791,0.031631751,0.316169206
0.346775914,0.305945905,0.031612332,0.315665849
0.347669625,0.305575586,0.031592901,0.315161888
0.348565249,0.305203903,0.031573461,0.314657387
0.349462648,0.304830923,0.03155402,0.314152409
0.35036169,0.304456716,0.031534581,0.313647013
0.351262239,0.304081348,0.031515153,0.313141261
0.352164162,0.303704887,0.031495739,0.312635213
0.35306733,0.303327397,0.031476346,0.312128927
0.353971619,0.302948942,0.031456979,0.31162246
0.354876913,0.30256958,0.031437644,0.311115863
0.355783098,0.302189369,0.031418346,0.310609187
0.356690069,0.301808365,0.031399088,0.310102478
0.357597723,0.301426621,0.031379875,0.309595781
0.358505962,0.301044192,0.031360709,0.309089136
0.359414691,0.300661129,0.031341595,0.308582585
0.360323818,0.300277483,0.031322535,0.308076164
0.361233253,0.299893302,0.031303533,0.307569913
0.362142909,0.299508634,0.031284591,0.307063866
0.363052701,0.299123524,0.031265714,0.306558061
0.363962545,0.298738018,0.031246903,0.306052534
0.364872356,0.298352163,0.03122816,0.305547321
0.365782051,0.297966002,0.03120949,0.305042457
0.366691545,0.297579583,0.031190895,0.304537977
0.367600755,0.29719295,0.031172378,0.304033917
0.3685096,0.296806148,0.031153943,0.303530309
0.369417997,0.296419221,0.031135592,0.303027189
0.370325867,0.296032213,0.031117329,0.302524591
0.371233129,0.295645168,0.031099156,0.302022548
0.372139705,0.295258127,0.031081075,0.301521093
0.373045522,0.294871132,0.031063089,0.301020257
0.37395051,0.294484222,0.031045198,0.300520069
0.374854603,0.294097435,0.031027405,0.300020557
0.375757739,0.293710806,0.031009709,0.299521746
0.37665986,0.293324369,0.030992111,0.29902366
0.377560912,0.292938155,0.030974611,0.298526322
0.378460839,0.292552199,0.030957209,0.298029753
0.379359589,0.29216653,0.030939905,0.297533976
0.380257108,0.291781182,0.030922697,0.297039013
0.381153345,0.291396184,0.030905587,0.296544885
0.382048248,0.291011566,0.030888572,0.296051614
0.38294177,0.290627357,0.030871653,0.29555922
0.383833861,0.290243587,0.03085483,0.295067723
0.384724478,0.289860281,0.030838102,0.294577138
0.385613577,0.289477468,0.030821471,0.294087484
0.386501118,0.289095173,0.030804935,0.293598774
0.38738706,0.288713422,0.030788494,0.293111024
0.388271364,0.288332242,0.030772148,0.292624245
0.389153992,0.287951659,0.030755896,0.292138453
0.390034907,0.287571696,0.030739738,0.291653659
0.390914071,0.287192378,0.030723674,0.291169877
0.391791449,0.286813726,0.030707702,0.290687123
0.392667006,0.286435762,0.030691821,0.29020541
0.393540706,0.286058507,0.030676032,0.289724754
0.394412519,0.285681982,0.030660332,0.289245168
0.395282412,0.285306206,0.030644719,0.288766663
0.396150355,0.284931201,0.030629192,0.288289252
0.39701632,0.284556984,0.030613749,0.287812946
0.397880278,0.284183578,0.030598389,0.287337755
0.398742202,0.283811001,0.030583109,0.286863688
0.399602065,0.283439274,0.030567908,0.286390754
0.400459841,0.283068416,0.030552783,0.28591896
0.401315503,0.282698447,0.030537734,0.285448316
0.402169025,0.282329388,0.030522758,0.28497883
0.403020379,0.281961259,0.030507854,0.284510508
0.403869537,0.281594083,0.03049302,0.28404336
0.404716473,0.281227878,0.030478255,0.283577394
0.405561165,0.280862662,0.030463557,0.283112616
0.406403588,0.280498453,0.030448924,0.282649035
0.407243721,0.280135265,0.030434356,0.282186657
0.408081543,0.279773115,0.03041985,0.281725492
0.408917031,0.279412017,0.030405407,0.281265546
0.409750163,0.279051985,0.030391027,0.280806826
0.410580916,0.278693034,0.030376709,0.28034934
0.411409269,0.278335181,0.030362455,0.279893095
0.412235197,0.27797844,0.030348265,0.279438099
0.413058679,0.277622823,0.030334139,0.278984359
0.413879692,0.277268345,0.030320079,0.278531884
0.414698216,0.276915018,0.030306085,0.278080681
0.415514227,0.276562857,0.030292158,0.277630758
0.416327705,0.276211873,0.030278298,0.277182124
0.417138628,0.275862078,0.030264505,0.276734788
0.417946974,0.275513485,0.030250782,0.276288759
0.418752721,0.275166104,0.030237127,0.275844047
0.419555847,0.274819947,0.030223542,0.275400664
0.42035633,0.274475023,0.030210026,0.27495862
0.421154149,0.274131343,0.030196582,0.274517926
0.421949285,0.273788916,0.030183208,0.274078591
0.422741721,0.273447751,0.030169905,0.273640624
0.42353144,0.273107855,0.030156674,0.273204031
0.424318428,0.272769237,0.030143514,0.272768821
0.42510267,0.272431904,0.030130425,0.272335001
0.425884149,0.272095862,0.030117407,0.271902582
0.42666285,0.271761118,0.030104459,0.271471573
0.427438756,0.271427679,0.030091581,0.271041984
0.428211852,0.271095551,0.030078771,0.270613826
0.428982123,0.270764742,0.030066029,0.270187106
0.429749555,0.270435257,0.030053354,0.269761834
0.430514132,0.270107103,0.030040744,0.269338021
0.431275841,0.269780286,0.030028199,0.268915674
0.432034668,0.269454811,0.030015718,0.268494803
0.432790599,0.269130685,0.0300033,0.268075416
0.433543621,0.268807914,0.029990943,0.267657521
0.43429372,0.268486506,0.029978648,0.267241126
0.435040884,0.268166468,0.029966413,0.266826236
0.435785099,0.267847805,0.029954238,0.266412857
0.436526356,0.267530526,0.029942122,0.266000996
0.437264642,0.267214637,0.029930066,0.265590655
0.437999948,0.266900145,0.029918068,0.26518184
0.438732262,0.266587057,0.029906127,0.264774553
0.439461575,0.266275381,0.029894244,0.2643688
0.440187875,0.265965123,0.029882417,0.263964586
0.440911151,0.265656289,0.029870645,0.263561914
0.441631393,0.265348887,0.029858929,0.263160791
0.442348589,0.265042922,0.029847267,0.262761221
0.443062731,0.264738399,0.029835659,0.262363211
0.443773806,0.264435324,0.029824103,0.261966767
0.444481805,0.264133701,0.0298126,0.261571894
0.445186718,0.263833536,0.029801147,0.261178599
0.445888534,0.263534835,0.029789744,0.260786888
0.446587243,0.263237601,0.029778391,0.260396765
0.447282838,0.262941839,0.029767086,0.260008237
0.447975309,0.262647555,0.02975583,0.259621307
0.448664647,0.262354751,0.029744622,0.259235981
0.449350844,0.262063432,0.029733463,0.258852261
0.450033892,0.261773603,0.029722353,0.258470152
0.450713783,0.261485267,0.029711293,0.258089658
0.451390508,0.261198429,0.029700282,0.257710781
0.45206406,0.260913097,0.029689321,0.257333523
0.452734429,0.260629275,0.02967841,0.256957886
0.453401608,0.260346971,0.029667551,0.256583871
0.454065588,0.260066191,0.029656743,0.256211479
0.454726362,0.259786941,0.029645987,0.255840711
0.455383922,0.259509227,0.029635283,0.255471567
0.456038262,0.259233057,0.029624632,0.255104049
0.456689373,0.258958437,0.029614034,0.254738155
0.457337249,0.258685375,0.02960349,0.254373885
0.457981883,0.258413879,0.029593,0.254011238
0.458623267,0.258143955,0.029582565,0.253650213
0.459261394,0.257875613,0.029572186,0.253290807
0.459896259,0.25760886,0.029561862,0.252933019
0.460527855,0.257343704,0.029551595,0.252576846
0.461156175,0.257080153,0.029541385,0.252222287
0.461781214,0.256818216,0.029531232,0.251869337
0.462402966,0.256557901,0.029521138,0.251517995
0.463021426,0.256299215,0.029511102,0.251168258
0.46363659,0.256042164,0.029501125,0.250820121
0.464248453,0.255786756,0.029491207,0.250473584
0.464857011,0.255532997,0.02948135,0.250128641
0.465462261,0.255280894,0.029471554,0.24978529
0.466064199,0.255030455,0.029461819,0.249443527
0.46666282,0.254781687,0.029452145,0.249103348
0.467258121,0.254534598,0.029442534,0.248764747
0.467850098,0.254289196,0.029432985,0.248427721