0.115439929,0.352957814,0.343622521,0.187979736
0.115486603,0.353028923,0.343639268,0.187845206
0.115533421,0.353097665,0.343658269,0.187710645
0.11558038,0.353164047,0.34367952,0.187576053
0.115627475,0.353228075,0.343703017,0.187441433
0.115674701,0.353289754,0.343728758,0.187306787
0.115722053,0.353349087,0.343756739,0.187172121
0.115769526,0.353406076,0.343786958,0.18703744
0.115817114,0.353460724,0.343819409,0.186902753
0.115864809,0.353513034,0.34385409,0.186768067
0.115912608,0.353563007,0.343890997,0.186633388
0.115960502,0.353610647,0.343930128,0.186498723
0.116008485,0.353655955,0.343971482,0.186364079
0.116056551,0.353698933,0.344015056,0.18622946
0.116104693,0.353739583,0.344060851,0.186094873
0.116152904,0.353777908,0.344108864,0.185960324
0.116201178,0.353813909,0.344159095,0.185825818
0.116249508,0.353847589,0.344211542,0.185691362
0.116297886,0.353878949,0.344266202,0.185556962
0.116346308,0.353907994,0.344323075,0.185422624
0.116394765,0.353934724,0.344382156,0.185288355
0.116443251,0.353959144,0.344443443,0.185154162
0.116491761,0.353981258,0.344506932,0.185020049
0.116540288,0.354001068,0.344572618,0.184886025
0.116588826,0.354018581,0.344640498,0.184752096
0.116637369,0.354033799,0.344710565,0.184618267
0.116685913,0.354046727,0.344782815,0.184484545
0.116734453,0.354057369,0.344857242,0.184350936
0.116782982,0.35406573,0.34493384,0.184217447
0.116831498,0.354071814,0.345012603,0.184084085
0.116879995,0.354075624,0.345093525,0.183950856
0.116928469,0.354077165,0.345176598,0.183817769
0.116976916,0.35407644,0.345261815,0.183684829
0.117025333,0.354073455,0.34534917,0.183552043
0.117073717,0.354068213,0.345438652,0.183419418
0.117122065,0.354060719,0.345530256,0.18328696
0.117170374,0.35405098,0.345623971,0.183154675
0.117218642,0.354039,0.34571979,0.183022568
0.117266866,0.354024785,0.345817703,0.182890647
0.117315041,0.354008342,0.3459177,0.182758917
0.117363164,0.353989678,0.346019774,0.182627385
0.117411229,0.353968801,0.346123915,0.182496054
0.117459233,0.35394572,0.346230116,0.182364931
0.117507171,0.353920444,0.346338366,0.182234018
0.117555038,0.353892982,0.346448659,0.182103321
0.117602829,0.353863344,0.346560983,0.181972844
0.117650541,0.353831538,0.346675332,0.181842589
0.117698167,0.353797572,0.346791699,0.181712561
0.117745704,0.353761453,0.346910077,0.181582765
0.117793146,0.353723188,0.347030463,0.181453203
0.117840486,0.353682781,0.347152853,0.18132388
0.11788772,0.353640236,0.347277247,0.181194797
0.117934843,0.35359556,0.34740364,0.181065957
0.117981847,0.353548756,0.347532033,0.180937364
0.118028728,0.353499832,0.34766242,0.18080902
0.118075479,0.353448793,0.347794801,0.180680928
0.118122094,0.353395646,0.347929171,0.180553089
0.118168567,0.353340397,0.348065529,0.180425507
0.118214893,0.353283053,0.34820387,0.180298183
0.118261066,0.353223622,0.348344192,0.18017112
0.11830708,0.35316211,0.348486491,0.18004432
0.118352929,0.353098526,0.348630762,0.179917784
0.118398609,0.353032877,0.348777,0.179791514
0.118444114,0.352965172,0.348925202,0.179665512
0.118489441,0.352895418,0.349075361,0.17953978
0.118534583,0.352823625,0.349227473,0.179414319
0.118579537,0.3527498,0.349381532,0.179289131
0.118624298,0.352673951,0.349537533,0.179164217
0.118668862,0.352596087,0.349695471,0.179039579
0.118713224,0.352516217,0.34985534,0.178915219
0.11875738,0.35243435,0.350017133,0.178791137
0.118801325,0.352350494,0.350180847,0.178667334
0.118845054,0.352264661,0.350346474,0.17854381
0.118888562,0.352176861,0.350514011,0.178420566
0.118931842,0.352087106,0.35068345,0.178297602
0.118974889,0.351995407,0.350854786,0.178174918
0.119017698,0.351901776,0.351028013,0.178052514
0.11906026,0.351806224,0.351203123,0.177930392
0.119102572,0.351708763,0.351380111,0.177808554
0.119144627,0.351609406,0.351558966,0.177687001
0.11918642,0.351508166,0.35173968,0.177565734
0.119227945,0.351405059,0.351922244,0.177444752
0.119269197,0.3513001,0.352106647,0.177324056
0.119310172,0.351193306,0.352292877,0.177203645
0.119350863,0.351084693,0.352480924,0.17708352
0.119391266,0.350974279,0.352670775,0.17696368
0.119431375,0.350862081,0.352862418,0.176844126
0.119471186,0.350748113,0.353055842,0.176724859
0.119510694,0.350632392,0.353251034,0.17660588
0.119549893,0.350514932,0.353447985,0.176487191
0.119588779,0.35039575,0.35364668,0.176368791
0.119627347,0.35027486,0.35384711,0.176250683
0.119665593,0.350152277,0.354049262,0.176132867
0.119703512,0.350028015,0.354253127,0.176015346
0.119741099,0.349902085,0.354458695,0.175898121
0.119778347,0.3497745,0.354665958,0.175781195
0.119815253,0.349645272,0.354874907,0.175664568
0.119851811,0.349514412,0.355085534,0.175548243
0.119888015,0.349381932,0.355297832,0.175432221
0.11992386,0.349247844,0.355511791,0.175316504
0.119959342,0.34911216,0.355727405,0.175201094
0.119994453,0.348974891,0.355944664,0.175085992
0.12002919,0.34883605,0.356163561,0.1749712
0.120063547,0.348695648,0.356384086,0.174856719
0.120097518,0.348553699,0.356606231,0.174742552
0.120131099,0.348410214,0.356829988,0.1746287
0.120164284,0.348265203,0.357055347,0.174515165
0.120197068,0.348118678,0.357282303,0.174401951
0.120229445,0.34797065,0.357510846,0.174289059
0.12026141,0.347821127,0.35774097,0.174176494
0.120292958,0.347670121,0.357972665,0.174064257
0.120324083,0.347517642,0.358205923,0.173952352
0.120354782,0.347363699,0.358440735,0.173840784
0.120385048,0.347208302,0.358677093,0.173729556
0.120414877,0.34705146,0.35891499,0.173618673
0.120444264,0.346893181,0.359154416,0.173508139
0.120473203,0.346733473,0.359395366,0.173397958
0.12050169,0.346572346,0.359637831,0.173288133
0.12052972,0.346409805,0.359881805,0.17317867
0.120557287,0.346245858,0.360127283,0.173069571
0.120584388,0.346080512,0.360374258,0.172960841
0.120611017,0.345913773,0.360622726,0.172852485
0.120637169,0.345745644,0.360872682,0.172744505
0.120662839,0.345576131,0.361124124,0.172636906
0.120688023,0.345405238,0.361377049,0.172529691
0.120712714,0.345232969,0.361631455,0.172422862
0.120736909,0.34505933,0.361887339,0.172316422
0.120760602,0.344884326,0.362144698,0.172210374
0.120783788,0.344707964,0.362403528,0.17210472
0.120806464,0.34453025,0.362663826,0.17199946
0.120828626,0.34435119,0.362925586,0.171894598
0.120850268,0.344170793,0.363188806,0.171790134
0.120871388,0.343989064,0.363453478,0.171686069
0.120891982,0.343806013,0.363719599,0.171582406
0.120912047,0.343621646,0.363987161,0.171479146
0.120931578,0.343435974,0.36425616,0.171376289
0.120950572,0.343249003,0.364526588,0.171273836
0.120969026,0.343060744,0.36479844,0.17117179
0.120986936,0.342871203,0.36507171,0.171070151
0.121004299,0.342680391,0.36534639,0.170968919
0.121021113,0.342488317,0.365622473,0.170868097
0.121037375,0.34229499,0.365899951,0.170767684
0.121053083,0.342100419,0.366178817,0.170667681
0.121068235,0.341904615,0.366459063,0.170568087
0.12108283,0.341707588,0.366740681,0.170468901
0.121096867,0.341509346,0.367023663,0.170370124
0.121110347,0.3413099,0.367308,0.170271754
0.121123269,0.341109257,0.367593684,0.170173789
0.121135636,0.340907428,0.367880706,0.17007623
0.121147448,0.34070442,0.368169057,0.169979076
0.121158707,0.340500241,0.368458727,0.169882325
0.121169416,0.3402949,0.368749705,0.169785979
0.121179578,0.340088403,0.369041981,0.169690038
0.121189198,0.33988076,0.369335542,0.169594501
0.121198278,0.339671978,0.369630375,0.16949937
0.121206822,0.339462065,0.369926466,0.169404647
0.121214835,0.33925103,0.370223802,0.169310334
0.121222321,0.339038879,0.370522368,0.169216432
0.121229284,0.338825622,0.37082215,0.169122944
0.121235728,0.338611266,0.371123134,0.169029872
0.121241658,0.338395821,0.371425305,0.168937216
0.121247077,0.338179297,0.371728647,0.168844979
0.121251989,0.337961704,0.372033144,0.168753163
0.121256397,0.337743054,0.37233878,0.168661769
0.121260305,0.337523357,0.372645539,0.1685708
0.121263717,0.337302622,0.372953403,0.168480258
0.121266637,0.337080859,0.373262357,0.168390147
0.121269068,0.336858077,0.373572384,0.168300471
0.121271014,0.336634287,0.373883466,0.168211233
0.121272478,0.336409498,0.374195586,0.168122437
0.121273464,0.336183721,0.374508728,0.168034086
0.121273975,0.335956968,0.374822874,0.167946183
0.121274014,0.33572925,0.375138009,0.167858728
0.121273584,0.335500577,0.375454116,0.167771723
0.121272688,0.335270964,0.375771178,0.16768517
0.121271329,0.335040425,0.376089177,0.167599069
0.121269511,0.334808972,0.376408097,0.16751342
0.121267234,0.334576622,0.37672792,0.167428225
0.121264503,0.334343387,0.377048627,0.167343483
0.121261318,0.334109284,0.377370201,0.167259196
0.121257683,0.333874329,0.377692623,0.167175365
0.121253598,0.333638537,0.378015875,0.167091991
0.121249064,0.333401925,0.378339938,0.167009073
0.121244083,0.333164512,0.378664792,0.166926613
0.121238654,0.332926317,0.378990417,0.166844612
0.121232779,0.332687358,0.379316793,0.16676307
0.121226458,0.332447655,0.379643899,0.166681988
0.121219692,0.332207226,0.379971713,0.166601369
0.121212482,0.331966091,0.380300212,0.166521215
0.121204829,0.331724267,0.380629375,0.16644153
0.121196734,0.331481772,0.380959178,0.166362316
0.1211882,0.331238624,0.3812896,0.166283575
0.121179228,0.33099484,0.381620622,0.166205311
0.121169818,0.330750434,0.381952222,0.166127526
0.121159973,0.330505424,0.382284378,0.166050225
0.121149693,0.330259824,0.382617072,0.165973412
0.121138979,0.330013649,0.382950282,0.165897091
0.12112783,0.329766913,0.383283991,0.165821266
0.121116248,0.329519628,0.383618183,0.165745941
0.121104231,0.329271805,0.383952841,0.165671123
0.121091779,0.329023458,0.384287947,0.165596816
0.121078894,0.328774599,0.384623482,0.165523025
0.121065575,0.328525238,0.384959428,0.165449759
0.121051824,0.328275389,0.385295764,0.165377022
0.121037642,0.328025064,0.385632474,0.16530482
0.121023029,0.327774273,0.385969538,0.16523316
0.121007988,0.327523028,0.38630694,0.165162045
0.120992519,0.32727134,0.38664466,0.165091481
0.120976623,0.327019221,0.386982683,0.165021473
0.120960304,0.326766682,0.38732099,0.164952024
0.120943562,0.326513734,0.387659564,0.16488314
0.1209264,0.326260386,0.387998389,0.164814824
0.12090882,0.326006651,0.388337449,0.164747079
0.120890824,0.32575254,0.388676728,0.164679908
0.120872413,0.325498064,0.389016208,0.164613315
0.120853589,0.325243234,0.389355874,0.164547303
0.120834355,0.324988064,0.389695706,0.164481875
0.120814712,0.324732563,0.39003569,0.164417036
0.12079466,0.324476743,0.390375806,0.164352791
0.120774203,0.324220615,0.390716038,0.164289144
0.120753339,0.323964192,0.391056368,0.164226101
0.120732071,0.323707485,0.391396779,0.164163665
0.1207104,0.323450505,0.391737253,0.164101842
0.120688325,0.323193263,0.392077774,0.164040638
0.120665847,0.322935769,0.392418326,0.163980058
0.120642966,0.322678032,0.392758894,0.163920107
0.120619682,0.32242006,0.393099464,0.163860793
0.120595994,0.322161863,0.393440022,0.163802121
0.120571903,0.321903447,0.393780554,0.163744096
0.120547407,0.321644824,0.394121045,0.163686724
0.120522508,0.321386003,0.394461479,0.163630009
0.120497206,0.321126994,0.394801843,0.163573957
0.1204715,0.320867808,0.395142119,0.163518573
0.120445392,0.320608455,0.395482292,0.163463861
0.120418881,0.320348945,0.395822348,0.163409826
0.120391969,0.320089289,0.396162268,0.163356474
0.120364656,0.319829496,0.396502039,0.163303809
0.120336942,0.319569576,0.396841644,0.163251838
0.120308829,0.319309539,0.397181067,0.163200565
0.120280315,0.319049393,0.397520294,0.163149997
0.120251402,0.318789145,0.39785931,0.163100143
0.120222089,0.318528802,0.3981981,0.163051009
0.120192376,0.318268371,0.398536648,0.163002605
0.120162263,0.318007859,0.398874938,0.162954939
0.120131752,0.317747273,0.399212956,0.16290802
0.120100843,0.317486619,0.399550683,0.162861855
0.120069539,0.317225905,0.399888104,0.162816452
0.12003784,0.316965138,0.400225202,0.16277182
0.120005749,0.316704324,0.400561962,0.162727965
0.119973267,0.316443471,0.400898366,0.162684895
0.119940397,0.316182586,0.401234399,0.162642618
0.119907141,0.315921674,0.401570043,0.162601142
0.119873501,0.315660743,0.401905281,0.162560475
0.119839479,0.315399801,0.402240097,0.162520624
0.119805077,0.315138855,0.402574471,0.162481598
0.119770298,0.314877911,0.402908386,0.162443405
0.119735146,0.31461698,0.403241822,0.162406052
0.119699622,0.314356069,0.403574763,0.162369546
0.11966373,0.314095186,0.403907188,0.162333895
0.119627473,0.313834341,0.404239081,0.162299105
0.119590853,0.31357354,0.404570423,0.162265184
0.119553873,0.313312792,0.404901196,0.162232139
0.119516535,0.313052104,0.405231382,0.162199978
0.119478843,0.312791486,0.405560965,0.162168707
0.119440797,0.312530945,0.405889925,0.162138332
0.119402402,0.31227049,0.406218246,0.162108862
0.119363659,0.31201013,0.406545909,0.162080302
0.119324571,0.311749876,0.406872896,0.162052657
0.119285142,0.311489737,0.407199186,0.162025935
0.119245374,0.311229723,0.407524762,0.162000141
0.11920527,0.310969845,0.407849603,0.161975282
0.119164833,0.310710113,0.40817369,0.161951364
0.119124066,0.310450537,0.408497002,0.161928394
0.119082972,0.310191129,0.408819519,0.16190638
0.119041553,0.309931898,0.409141221,0.161885328
0.118999813,0.309672858,0.409462084,0.161865245
0.118957754,0.309414021,0.409782088,0.161846137
0.118915378,0.309155398,0.410101211,0.161828012
0.11887269,0.308897003,0.410419432,0.161810875
0.118829692,0.308638848,0.410736728,0.161794732
0.118786387,0.308380947,0.411053078,0.161779588
0.118742777,0.308123313,0.411368461,0.161765449
0.118698866,0.307865959,0.411682853,0.161752321
0.118654655,0.307608901,0.411996233,0.161740212
0.118610144,0.307352154,0.412308576,0.161729126
0.118565335,0.307095736,0.41261986,0.161719068
0.118520228,0.306839663,0.412930065,0.161710044
0.118474821,0.306583951,0.41323917,0.161702058
0.118429114,0.306328617,0.413547156,0.161695113
0.118383106,0.306073676,0.413854004,0.161689215
0.118336794,0.305819141,0.414159697,0.161684368
0.118290177,0.305565026,0.414464219,0.161680578
0.118243256,0.305311341,0.41476755,0.161677852
0.118196031,0.305058099,0.415069675,0.161676195
0.118148503,0.30480531,0.415370575,0.161675612
0.118100673,0.304552982,0.415670235,0.16167611
0.118052546,0.304301125,0.415968638,0.161677692
0.118004125,0.304049747,0.416265764,0.161680364
0.117955416,0.303798854,0.416561594,0.161684136
0.117906426,0.303548451,0.416856106,0.161689017
0.117857159,0.303298541,0.417149279,0.16169502
0.117807623,0.303049129,0.417441089,0.161702159
0.117757824,0.302800219,0.417731512,0.161710446
0.117707766,0.302551816,0.418020523,0.161719894
0.117657457,0.30230393,0.418308097,0.161730516
0.117606903,0.302056568,0.418594207,0.161742322
0.117556107,0.301809748,0.418878822,0.161755322
0.117505077,0.30156349,0.419161909,0.161769524
0.117453815,0.30131782,0.419443432,0.161784933
0.117402325,0.301072765,0.419723353,0.161801557
0.117350611,0.300828355,0.420001632,0.161819402
0.117298677,0.300584625,0.420278226,0.161838472
0.117246524,0.300341611,0.420553091,0.161858774
0.117194155,0.300099359,0.420826177,0.161880309
0.117141568,0.299857921,0.42109743,0.161903081
0.117088763,0.29961735,0.421366796,0.16192709
0.117035739,0.299377701,0.421634223,0.161952338
0.116982494,0.299139025,0.421899656,0.161978826
0.116929026,0.298901375,0.422163044,0.162006554
0.116875334,0.298664804,0.422424336,0.162035526
0.116821416,0.298429361,0.42268348,0.162065743
0.116767269,0.298195097,0.422940429,0.162097206
0.116712891,0.29796206,0.423195133,0.162129916
0.116658279,0.297730297,0.423447548,0.162163876
0.116603432,0.297499849,0.423697628,0.162199091
0.116548347,0.29727076,0.42394533,0.162235563
0.11649302,0.297043072,0.42419061,0.162273299
0.116437446,0.296816825,0.424433424,0.162312305
0.116381621,0.296592059,0.424673727,0.162352594
0.116325535,0.296368811,0.424911473,0.162394181
0.116269184,0.296147116,0.425146614,0.162437087
0.11621256,0.295927006,0.425379103,0.162481331
0.116155657,0.295708515,0.425608893,0.162526936
0.116098469,0.295491672,0.425835937,0.162573921
0.116040992,0.29527651,0.426060189,0.162622309
0.11598322,0.295063056,0.426281606,0.162672119
0.115925147,0.294851338,0.426500143,0.162723372
0.115866769,0.294641384,0.426715758,0.162776089
0.11580808,0.294433217,0.426928412,0.162830291
0.115749077,0.294226861,0.427138063,0.162885999
0.115689755,0.29402234,0.427344672,0.162943233
0.115630111,0.293819676,0.427548199,0.163002013
0.115570141,0.29361889,0.427748608,0.163062361
0.115509843,0.293420001,0.42794586,0.163124296
0.115449214,0.293223029,0.428139918,0.163187838
0.115388253,0.293027992,0.428330748,0.163253006
0.115326958,0.292834907,0.428518315,0.16331982
0.115265328,0.292643788,0.428702586,0.163388299
0.115203361,0.29245465,0.428883527,0.163458463
0.115141057,0.292267505,0.429061106,0.163530331
0.115078418,0.292082367,0.429235292,0.163603924
0.115015444,0.291899245,0.429406053,0.163679258
0.114952136,0.291718151,0.429573362,0.163756351
0.114888498,0.291539092,0.429737191,0.16383522
0.114824531,0.291362077,0.429897512,0.16391588
0.11476024,0.291187112,0.430054301,0.163998346
0.11469563,0.291014205,0.430207533,0.164082632
0.114630704,0.290843362,0.430357184,0.164168751
0.114565467,0.290674587,0.430503233,0.164256713
0.114499927,0.290507885,0.430645658,0.164346531
0.114434087,0.29034326,0.430784438,0.164438215
0.114367956,0.290180715,0.430919553,0.164531776
0.114301539,0.290020251,0.431050986,0.164627223
0.114234843,0.28986187,0.43117872,0.164724567
0.114167875,0.289705574,0.431302737,0.164823814
0.114100641,0.289551362,0.431423023,0.164924974
0.114033148,0.289399237,0.431539562,0.165028054
0.113965401,0.289249198,0.431652339,0.165133063
0.113897406,0.289101245,0.431761342,0.165240008
0.113829169,0.288955378,0.431866557,0.165348896
0.113760695,0.288811598,0.431967972,0.165459735
0.113691991,0.288669903,0.432065577,0.165572529
0.113623061,0.288530292,0.432159363,0.165687284
0.113553912,0.288392764,0.432249319,0.165804004
0.11348455,0.288257317,0.43233544,0.165922694
0.113414979,0.288123949,0.432417715,0.166043357
0.113345206,0.28799266,0.432496138,0.166165996
0.113275235,0.287863454,0.432570698,0.166290613
0.113205072,0.287736338,0.432641383,0.166417207
0.11313472,0.287611322,0.432708178,0.166545779
0.113064183,0.28748842,0.43277107,0.166676327
0.112993461,0.287367647,0.432830043,0.166808848
0.112922558,0.287249029,0.432885076,0.166943337
0.112851473,0.287132593,0.432936147,0.167079787
0.112780206,0.287018371,0.432983232,0.167218191
0.112708756,0.286906397,0.433026306,0.16735854
0.112637123,0.286796708,0.433065343,0.167500827
0.112565303,0.286689343,0.433100314,0.167645041
0.112493295,0.28658434,0.433131191,0.167791173
0.112421097,0.28648174,0.433157948,0.167939215
0.112348706,0.286381585,0.433180553,0.168089156
0.112276118,0.286283921,0.433198972,0.16824099
0.112203327,0.286188797,0.43321317,0.168394706
0.11213033,0.28609626,0.433223112,0.168550297
0.112057122,0.286006355,0.433228766,0.168707757
0.111983699,0.285919123,0.433230101,0.168867078
0.111910057,0.285834603,0.433227084,0.169028256
0.11183619,0.285752832,0.433219687,0.16919129
0.111762095,0.285673845,0.43320788,0.169356179
0.111687767,0.285597675,0.433191636,0.169522922
0.111613201,0.285524353,0.433170927,0.169691519
0.111538392,0.285453913,0.433145728,0.169861967
0.111463336,0.285386387,0.433116013,0.170034264
0.111388028,0.285321808,0.433081758,0.170208406
0.111312463,0.285260205,0.433042942,0.170384389
0.111236638,0.285201608,0.432999546,0.170562207
0.111160548,0.285146044,0.432951554,0.170741854
0.111084192,0.285093537,0.432898951,0.170923321
0.111007564,0.285044111,0.432841723,0.171106602
0.110930665,0.284997789,0.432779858,0.171291688
0.110853489,0.284954591,0.432713347,0.171478573
0.110776035,0.284914539,0.432642177,0.171667249
0.110698301,0.284877652,0.432566338,0.171857709
0.110620282,0.28484395,0.432485819,0.172049949
0.110541976,0.284813451,0.43240061,0.172243962
0.110463382,0.284786172,0.4323107,0.172439745
0.110384498,0.284762128,0.43221608,0.172637294
0.110305322,0.284741336,0.432116739,0.172836603
0.110225852,0.28472381,0.432012669,0.173037669
0.110146089,0.284709563,0.431903861,0.173240487
0.110066032,0.284698607,0.431790309,0.173445053
0.109985681,0.28469095,0.431672006,0.173651363
0.109905038,0.284686597,0.431548948,0.173859416
0.109824104,0.284685554,0.431421133,0.17406921
0.109742878,0.28468782,0.431288557,0.174280745
0.109661363,0.284693394,0.431151222,0.174494021
0.10957956,0.284702274,0.431009128,0.174709039
0.109497471,0.284714454,0.430862278,0.174925796
0.1094151,0.284729931,0.430710675,0.175144294
0.109332451,0.284748697,0.430554322,0.17536453
0.109249529,0.284770744,0.430393222,0.175586505
0.109166339,0.284796063,0.43022738,0.175810218
0.109082887,0.284824644,0.4300568,0.176035668
0.108999181,0.284856476,0.429881486,0.176262858
0.108915227,0.284891546,0.429701442,0.176491785
0.108831033,0.284929841,0.429516674,0.176722452
0.108746609,0.284971342,0.429327191,0.176954858
0.108661963,0.285016031,0.429133004,0.177189001
0.108577106,0.285063886,0.428934126,0.177424881
0.108492047,0.285114886,0.428730572,0.177662496
0.108406795,0.285169007,0.428522357,0.177901841
0.108321362,0.285226225,0.428309501,0.178142913
0.108235756,0.285286517,0.428092022,0.178385705
0.108149988,0.28534986,0.427869941,0.178630211
0.108064068,0.285416232,0.427643279,0.178876421
0.107978006,0.285485611,0.427412058,0.179124325
0.107891811,0.285557978,0.427176299,0.179373912
0.107805495,0.285633313,0.426936025,0.179625167
0.107719066,0.285711598,0.426691259,0.179878077
0.107632534,0.285792815,0.426442024,0.180132626
0.10754591,0.285876948,0.426188344,0.180388798
0.107459202,0.285963979,0.425930244,0.180646575
0.10737242,0.286053891,0.425667752,0.180905937
0.107285571,0.286146666,0.425400898,0.181166865
0.107198664,0.286242285,0.425129711,0.18142934
0.107111705,0.286340729,0.424854224,0.181693342
0.107024704,0.286441977,0.424574468,0.181958851
0.106937666,0.286546011,0.424290477,0.182225846
0.106850601,0.286652808,0.424002286,0.182494305
0.106763514,0.286762348,0.42370993,0.182764208
0.106676414,0.286874608,0.423413445,0.183035533
0.106589308,0.286989566,0.423112868,0.183308258
0.106502203,0.287107199,0.422808236,0.183582363
0.106415105,0.287227484,0.422499584,0.183857827
0.106328019,0.287350398,0.422186952,0.184134631
0.106240953,0.287475915,0.421870379,0.184412753
0.106153911,0.287604011,0.421549904,0.184692175
0.106066897,0.287734661,0.421225567,0.184972875
0.105979916,0.287867842,0.420897409,0.185254834
0.105892972,0.28800353,0.420565469,0.185538028
0.10580607,0.288141704,0.42022979,0.185822436
0.105719213,0.288282343,0.419890412,0.186108033
0.105632406,0.288425424,0.419547376,0.186394794
0.105545652,0.288570928,0.419200725,0.186682695
0.105458956,0.288718832,0.418850501,0.186971711
0.105372322,0.288869115,0.418496747,0.187261816
0.105285752,0.289021757,0.418139505,0.187552986
0.105199251,0.289176733,0.417778819,0.187845197
0.105112819,0.28933402,0.417414733,0.188138428
0.10502646,0.289493592,0.417047292,0.188432656
0.104940175,0.289655423,0.416676539,0.188727862
0.104853965,0.289819486,0.416302519,0.18902403
0.104767832,0.28998575,0.415925275,0.189321142
0.104681777,0.290154186,0.415544852,0.189619185
0.104595801,0.290324764,0.415161294,0.189918141
0.104509906,0.290497451,0.414774646,0.190217998
0.104424093,0.290672217,0.414384953,0.190518737
0.104338366,0.290849028,0.413992261,0.190820345
0.10425273,0.291027852,0.413596613,0.191122805
0.104167189,0.291208656,0.413198057,0.191426099
0.104081748,0.291391406,0.412796637,0.191730209
0.103996413,0.291576067,0.412392401,0.192035119
0.103911189,0.291762605,0.411985398,0.192340809
0.103826081,0.291950981,0.411575678,0.192647259
0.103741095,0.292141161,0.411163295,0.192954449
0.103656237,0.292333105,0.410748302,0.193262356
0.103571512,0.292526777,0.410330754,0.193570957
0.103486924,0.292722142,0.409910706,0.193880228
0.10340248,0.292919162,0.409488214,0.194190144
0.103318184,0.293117805,0.409063331,0.19450068
0.103234041,0.293318034,0.408636112,0.194811813
0.103150055,0.293519816,0.40820661,0.195123519
0.103066231,0.293723116,0.407774877,0.195435777
0.102982571,0.293927897,0.407340965,0.195748567
0.102899079,0.294134124,0.406904926,0.196061871
0.102815757,0.294341759,0.406466814,0.19637567
0.10273261,0.294550763,0.40602668,0.196689947
0.102649638,0.294761095,0.405584578,0.19700469
0.102566842,0.29497271,0.40514056,0.197319888
0.102484225,0.295185564,0.404694681,0.197635529
0.102401787,0.295399613,0.404246997,0.197951603
0.10231953,0.295614812,0.403797561,0.198268097
0.102237456,0.295831116,0.403346429,0.198584999
0.102155567,0.296048482,0.402893655,0.198902296
0.102073864,0.296266866,0.402439293,0.199219977
0.101992351,0.296486225,0.401983398,0.199538026
0.10191103,0.296706514,0.401526025,0.199856431
0.101829903,0.296927692,0.401067226,0.200175179
0.101748975,0.297149715,0.400607055,0.200494255
0.101668248,0.297372542,0.400145565,0.200813645
0.101587728,0.297596129,0.399682807,0.201133336
0.101507416,0.297820434,0.399218834,0.201453315
0.101427319,0.298045416,0.398753696,0.201773569
0.10134744,0.298271032,0.398287444,0.202094083
0.101267784,0.298497242,0.397820127,0.202414847
0.101188356,0.298724003,0.397351794,0.202735847
0.101109158,0.298951273,0.396882492,0.203057076
0.101030196,0.299179009,0.396412269,0.203378526
0.100951472,0.299407169,0.39594117,0.20370019
0.100872991,0.299635707,0.395469241,0.204022061
0.100794754,0.299864584,0.394996529,0.204344133
0.100716766,0.300093755,0.394523079,0.2046664
0.100639028,0.30032318,0.394048935,0.204988857
0.100561546,0.300552817,0.39357414,0.205311497
0.10048432,0.300782625,0.393098739,0.205634316
0.100407357,0.301012562,0.392622772,0.205957309
0.10033066,0.301242588,0.392146283,0.206280469
0.100254233,0.301472663,0.391669312,0.206603792
0.100178082,0.301702745,0.391191902,0.206927272
0.10010221,0.301932795,0.390714094,0.207250901
0.100026625,0.302162773,0.390235931,0.207574672
0.099951332,0.30239264,0.389757453,0.207898576
0.099876337,0.302622359,0.3892787,0.208222603
0.099801649,0.302851891,0.388799715,0.208546745
0.099727274,0.303081199,0.388320536,0.208870991
0.09965322,0.303310248,0.387841204,0.209195328
0.099579495,0.303539001,0.387361759,0.209519745
0.099506105,0.303767424,0.386882241,0.20984423
0.099433056,0.303995484,0.386402689,0.210168772
0.099360355,0.304223148,0.38592314,0.210493357
0.099288009,0.304450384,0.385443634,0.210817974
0.099216022,0.304677158,0.384964206,0.211142613
0.099144401,0.304903441,0.384484894,0.211467264
0.099073151,0.305129198,0.384005732,0.21179192
0.099002277,0.305354397,0.383526753,0.212116573
0.098931782,0.305579008,0.383047993,0.212441217
0.098861673,0.305802999,0.382569483,0.212765845
0.098791953,0.306026341,0.382091256,0.21309045
0.098722628,0.306249006,0.381613342,0.213415024
0.098653701,0.306470966,0.381135772,0.21373956
0.098585178,0.306692194,0.380658578,0.21406405
0.098517061,0.306912663,0.38018179,0.214388486
0.098449355,0.307132348,0.379705439,0.214712858
0.098382064,0.30735122,0.379229557,0.215037159
0.098315189,0.307569255,0.378754175,0.21536138
0.098248736,0.307786427,0.378279327,0.21568551
0.098182707,0.308002709,0.377805043,0.216009541
0.098117104,0.308218076,0.377331355,0.216333464
0.098051931,0.308432505,0.376858295,0.216657269
0.097987188,0.308645971,0.376385894,0.216980947
0.097922878,0.30885845,0.375914185,0.217304487
0.097859003,0.309069919,0.375443199,0.217627879
0.097795564,0.309280354,0.374972966,0.217951116
0.097732563,0.309489732,0.374503517,0.218274188
0.097670002,0.309698029,0.374034883,0.218597086
0.097607881,0.309905224,0.373567094,0.218919801
0.097546202,0.310111292,0.373100179,0.219242327
0.097484965,0.310316213,0.372634167,0.219564655
0.097424174,0.310519962,0.372169087,0.219886777
0.097363828,0.31072252,0.371704967,0.220208685
0.09730393,0.310923864,0.371241837,0.22053037
0.097244481,0.311123974,0.370779724,0.220851821
0.097185483,0.311322829,0.370318657,0.221173031
0.097126939,0.311520409,0.369858664,0.221493987
0.097068851,0.311716695,0.369399773,0.221814681
0.09701122,0.311911667,0.368942013,0.2221351
0.09695405,0.312105305,0.368485413,0.222455232
0.096897342,0.312297592,0.368030001,0.222775065
0.096841098,0.31248851,0.367575805,0.223094587
0.096785323,0.312678041,0.36712285,0.223413786
0.096730018,0.312866169,0.366671163,0.22373265
0.096675189,0.313052876,0.366220768,0.224051167
0.096620839,0.313238146,0.365771689,0.224369326
0.096566971,0.313421963,0.36532395,0.224687115
0.096513589,0.313604314,0.364877574,0.225004523
0.096460696,0.313785184,0.364432582,0.225321537
0.096408296,0.313964561,0.363988997,0.225638147
0.09635639,0.314142431,0.36354684,0.225954339
0.096304982,0.314318782,0.363106133,0.226270103
0.096254074,0.3144936,0.362666897,0.226585429
0.096203669,0.314666874,0.362229153,0.226900304
0.096153768,0.314838591,0.361792921,0.22721472
0.096104375,0.315008742,0.361358219,0.227528664
0.096055491,0.315177318,0.360925065,0.227842126
0.096007119,0.31534431,0.360493476,0.228155095
0.095959259,0.315509712,0.360063471,0.228467558
0.095911915,0.315673515,0.359635065,0.228779505
0.095865088,0.315835712,0.359208277,0.229090923
0.09581878,0.315996299,0.358783121,0.229401801
0.095772992,0.316155268,0.358359613,0.229712126
0.095727726,0.316312618,0.357937768,0.230021889
0.095682982,0.316468344,0.357517598,0.230331076
0.095638762,0.316622445,0.357099115,0.230639678
0.095595066,0.316774918,0.356682333,0.230947683
0.095551895,0.316925763,0.356267262,0.23125508
0.09550925,0.317074976,0.355853916,0.231561858
0.09546713,0.317222558,0.355442308,0.231868004
0.095425535,0.317368506,0.355032449,0.232173509
0.095384467,0.31751282,0.354624353,0.23247836
0.095343924,0.317655497,0.35421803,0.232782549
0.095303905,0.317796538,0.353813494,0.233086064
0.09526441,0.317935939,0.353410755,0.233388896
0.095225438,0.318073701,0.353009825,0.233691036
0.095186987,0.31820982,0.352610717,0.233992476
0.095149056,0.318344296,0.352213443,0.234293205
0.095111644,0.318477127,0.351818012,0.234593217
0.095074748,0.318608312,0.351424438,0.234892502
0.095038368,0.318737849,0.35103273,0.235191053
0.095002502,0.318865738,0.350642901,0.23548886
0.094967148,0.318991977,0.350254959,0.235785916
0.094932305,0.319116567,0.349868916,0.236082213
0.09489797,0.319239506,0.349484781,0.236377743
0.094864142,0.319360795,0.349102565,0.236672498
0.09483082,0.319480433,0.348722275,0.236966472
0.094798001,0.31959842,0.348343922,0.237259657
0.094765684,0.319714755,0.347967513,0.237552048
0.094733866,0.31982944,0.347593057,0.237843637
0.094702545,0.319942475,0.347220561,0.238134419
0.09467172,0.320053862,0.346850031,0.238424387
0.094641386,0.320163602,0.346481475,0.238713537
0.094611542,0.320271695,0.346114898,0.239001865
0.094582185,0.320378143,0.345750304,0.239289368
0.09455331,0.320482946,0.3453877,0.239576044
0.094524917,0.320586108,0.345027088,0.239861888
0.094497,0.32068763,0.344668472,0.240146898
0.094469559,0.320787515,0.344311856,0.24043107
0.094442588,0.320885766,0.343957243,0.240714403
0.094416087,0.320982388,0.343604634,0.240996891
0.09439005,0.321077384,0.343254033,0.241278533
0.094364476,0.32117076,0.342905439,0.241559325
0.094339363,0.321262521,0.342558852,0.241839264
0.094314707,0.321352671,0.342214274,0.242118348
0.094290509,0.321441216,0.341871702,0.242396573
0.094266766,0.321528161,0.341531138,0.242673936
0.094243477,0.321613511,0.341192579,0.242950432
0.094220643,0.321697272,0.340856026,0.243226059
0.094198264,0.321779449,0.340521476,0.243500811
0.09417634,0.321860047,0.340188929,0.243774684
0.094154873,0.32193907,0.339858385,0.244047672
0.094133863,0.322016523,0.339529844,0.244319769
0.094113312,0.322092411,0.339203307,0.24459097
0.094093219,0.322166737,0.338878775,0.244861269
0.094073585,0.322239506,0.33855625,0.245130659
0.094054411,0.322310723,0.338235734,0.245399133
0.094035696,0.32238039,0.337917228,0.245666686
0.094017442,0.322448514,0.337600734,0.24593331
0.093999649,0.3225151,0.337286254,0.246198997
0.093982316,0.322580155,0.336973786,0.246463742
0.093965446,0.322643686,0.336663332,0.246727537
0.093949036,0.322705702,0.336354888,0.246990374
0.093933089,0.32276621,0.336048456,0.247252246
0.093917603,0.322825219,0.335744033,0.247513146
0.093902578,0.322882738,0.335441618,0.247773066
0.093888014,0.322938776,0.33514121,0.248032
0.09387391,0.322993342,0.334842808,0.24828994
0.093860266,0.323046447,0.334546408,0.248546879
0.093847081,0.323098101,0.334252009,0.248802809
0.093834353,0.323148314,0.333959609,0.249057723
0.093822081,0.323197096,0.333669207,0.249311616
0.093810264,0.323244458,0.333380799,0.249564479
0.0937989,0.323290409,0.333094384,0.249816308
0.093787986,0.32333496,0.33280996,0.250067094
0.093777521,0.323378121,0.332527524,0.250316833
0.093767504,0.323419904,0.332247074,0.250565519
0.093757931,0.323460318,0.331968607,0.250813145
0.093748801,0.323499374,0.331692119,0.251059706
0.093740112,0.323537084,0.331417608,0.251305197
0.09373186,0.323573458,0.33114507,0.251549612
0.093724044,0.323608507,0.3308745,0.251792949
0.093716661,0.323642241,0.330605895,0.252035203
0.093709709,0.323674671,0.330339251,0.252276369
0.093703184,0.323705808,0.330074565,0.252516444
0.093697083,0.323735661,0.32981183,0.252755425
0.093691405,0.323764243,0.329551045,0.252993307
0.093686145,0.323791564,0.329292203,0.253230087
0.093681301,0.323817635,0.329035301,0.253465762
0.093676871,0.323842466,0.328780335,0.253700328
0.09367285,0.323866069,0.3285273,0.253933781
0.093669237,0.323888453,0.32827619,0.254166119
0.093666029,0.323909631,0.328027002,0.254397338
0.093663222,0.323929613,0.327779728,0.254627437
0.093660814,0.323948408,0.327534365,0.254856413
0.093658802,0.323966026,0.327290905,0.255084266
0.093657183,0.323982479,0.327049346,0.255310992
0.093655955,0.323997774,0.32680968,0.255536591
0.093655115,0.32401192,0.326571905,0.25576106
0.093654661,0.324024927,0.326336016,0.255984396
0.093654591,0.324036802,0.32610201,0.256206597
0.093654902,0.324047552,0.325869883,0.256427663
0.093655591,0.324057185,0.325639634,0.25664759
0.093656656,0.324065708,0.325411258,0.256866377
0.093658095,0.32407313,0.325184752,0.257084023
0.093659904,0.324079456,0.324960113,0.257300527
0.093662082,0.324084696,0.324737335,0.257515887
0.093664625,0.324088856,0.324516417,0.257730102
0.093667533,0.324091945,0.324297352,0.25794317
0.093670801,0.324093971,0.324080136,0.258155092
0.093674429,0.324094941,0.323864765,0.258365865
0.093678414,0.324094863,0.323651233,0.25857549
0.093682754,0.324093746,0.323439536,0.258783965
0.093687447,0.324091598,0.323229667,0.258991289
0.093692492,0.324088426,0.323021621,0.259197461
0.093697886,0.324084241,0.322815392,0.25940248
0.093703629,0.32407905,0.322610975,0.259606346
0.093709718,0.324072863,0.322408363,0.259809056
0.093716153,0.324065688,0.322207549,0.26001061
0.093722931,0.324057534,0.322008529,0.260211006
0.093730052,0.32404841,0.321811295,0.260410243
0.093737513,0.324038325,0.321615842,0.26060832
0.093745314,0.324027288,0.321422162,0.260805236
0.093753453,0.324015307,0.321230249,0.261000991
0.093761928,0.324002391,0.321040097,0.261195584
0.093770739,0.323988549,0.320851699,0.261389013
0.093779882,0.32397379,0.320665048,0.261581279
0.093789359,0.323958124,0.320480136,0.261772381
0.093799166,0.32394156,0.320296956,0.261962318
0.093809303,0.323924108,0.3201155,0.26215109
0.093819768,0.323905777,0.319935759,0.262338696
0.093830561,0.323886576,0.319757726,0.262525136
0.09384168,0.323866517,0.319581393,0.26271041
0.093853125,0.323845607,0.319406749,0.262894518
0.093864895,0.323823856,0.319233789,0.263077461
0.093876989,0.323801271,0.319062502,0.263259237
0.093889406,0.323777862,0.318892882,0.26343985
0.093902147,0.323753635,0.31872492,0.263619298
0.093915211,0.323728597,0.318558609,0.263797583
0.093928597,0.323702756,0.31839394,0.263974706
0.093942307,0.323676119,0.318230906,0.264150668
0.09395634,0.323648693,0.318069499,0.264325468
0.093970697,0.323620483,0.317909711,0.264499109
0.093985378,0.323591497,0.317751535,0.26467159
0.094000383,0.323561741,0.317594963,0.264842913
0.094015713,0.323531221,0.317439987,0.265013079
0.094031367,0.323499945,0.3172866,0.265182088
0.094047346,0.323467918,0.317134794,0.265349943
0.094063648,0.323435146,0.316984561,0.265516645
0.094080274,0.323401635,0.316835894,0.265682197
0.094097224,0.323367392,0.316688783,0.2658466
0.094114497,0.323332423,0.316543223,0.266009858
0.094132093,0.323296733,0.316399203,0.266171971
0.094150011,0.32326033,0.316256717,0.266332942
0.094168251,0.32322322,0.316115756,0.266492773
0.094186812,0.32318541,0.315976311,0.266651466
0.094205695,0.323146905,0.315838375,0.266809025
0.094224897,0.323107714,0.315701938,0.266965451
0.094244419,0.323067841,0.315566992,0.267120747
0.09426426,0.323027296,0.315433528,0.267274916
0.094284419,0.322986086,0.315301537,0.267427959
0.094304895,0.322944217,0.31517101,0.267579879
0.094325687,0.322901698,0.315041938,0.267730677
0.094346795,0.322858535,0.314914313,0.267880357
0.094368217,0.322814736,0.314788126,0.268028921
0.094389952,0.322770307,0.31466337,0.268176372
0.094411999,0.322725253,0.314540037,0.268322711
0.094434357,0.322679581,0.314418119,0.268467943
0.094457024,0.322633295,0.314297611,0.268612071
0.094479999,0.322586401,0.314178504,0.268755097
0.09450328,0.322538902,0.314060791,0.268897027
0.094526865,0.322490804,0.313944466,0.269037866
0.094550754,0.32244211,0.313829518,0.269177619
0.094574943,0.322392825,0.313715941,0.269316291
0.094599432,0.322342953,0.313603727,0.269453889
0.094624217,0.3222925,0.313492866,0.269590417
0.094649299,0.322241471,0.31338335,0.26972588
0.094674675,0.32218987,0.313275171,0.269860284
0.094700343,0.322137703,0.31316832,0.269993635
0.094726302,0.322084974,0.313062788,0.270125936
0.094752552,0.322031689,0.312958566,0.270257194
0.09477909,0.321977852,0.312855646,0.270387413
0.094805915,0.321923468,0.312754019,0.270516598
0.094833025,0.321868544,0.312653675,0.270644755
0.09486042,0.321813086,0.312554607,0.270771887
0.094888098,0.321757099,0.312456803,0.270898
0.094916057,0.321700591,0.312360255,0.271023097
0.094944297,0.321643567,0.312264953,0.271147183
0.094972815,0.321586036,0.312170888,0.271270261
0.095001611,0.321528004,0.312078048,0.271392337
0.095030683,0.321469479,0.311986425,0.271513413
0.09506003,0.321410468,0.311896008,0.271633494
0.09508965,0.321350978,0.311806789,0.271752583
0.095119541,0.321291018,0.311718757,0.271870684
0.095149702,0.321230595,0.311631904,0.271987799
0.095180131,0.321169716,0.311546219,0.272103933
0.095210827,0.32110839,0.311461695,0.272219089
0.095241786,0.321046622,0.311378321,0.27233327
0.095273008,0.320984422,0.311296091,0.272446479
0.095304491,0.320921795,0.311214994,0.27255872
0.095336231,0.320858749,0.311135024,0.272669996
0.095368228,0.320795291,0.31105617,0.272780311
0.095400479,0.320731427,0.310978426,0.272889668
0.095432981,0.320667163,0.310901783,0.272998073
0.095465733,0.320602506,0.310826233,0.273105528
0.095498731,0.320537463,0.310751768,0.273212038
0.095531975,0.32047204,0.31067838,0.273317605
0.09556546,0.320406242,0.310606063,0.273422234
0.095599186,0.320340076,0.31053481,0.273525928
0.095633149,0.320273546,0.310464615,0.273628691
0.095667347,0.320206658,0.31039547,0.273730525
0.095701777,0.320139418,0.31032737,0.273831435
0.095736437,0.320071831,0.310260306,0.273931425
0.095771325,0.320003903,0.310194273,0.274030498
0.095806439,0.31993564,0.310129262,0.274128659
0.095841777,0.319867046,0.310065266,0.274225911
0.095877337,0.319798129,0.310002278,0.274322257
0.095913118,0.319728892,0.309940288,0.274417702
0.09594912,0.319659342,0.309879289,0.274512249
0.095985343,0.319589483,0.309819272,0.274605901
0.096021787,0.31951932,0.30976023,0.274698663
0.09605845,0.319448858,0.309702156,0.274790537
0.096095333,0.3193781,0.309645041,0.274881527
0.096132435,0.31930705,0.309588879,0.274971636
0.096169757,0.319235713,0.309533663,0.275060868
0.096207298,0.319164092,0.309479386,0.275149224
0.096245058,0.319092191,0.309426043,0.275236708
0.096283037,0.319020012,0.309373628,0.275323322
0.096321235,0.318947561,0.309322135,0.275409069
0.096359652,0.318874839,0.309271558,0.275493951
0.096398288,0.318801851,0.309221892,0.275577969
0.096437142,0.3187286,0.309173132,0.275661126
0.096476215,0.318655089,0.309125275,0.275743421
0.096515507,0.318581323,0.309078314,0.275824857
0.096555017,0.318507304,0.309032245,0.275905434
0.096594746,0.318433037,0.308987063,0.275985155
0.096634693,0.318358525,0.308942763,0.276064019
0.09667486,0.318283772,0.30889934,0.276142027
0.096715247,0.318208781,0.30885679,0.276219182
0.096755855,0.318133555,0.308815107,0.276295483
0.096796683,0.318058098,0.308774287,0.276370932
0.096837734,0.317982411,0.308734324,0.276445531
0.096879006,0.317906499,0.308695215,0.276519281
0.096920501,0.317830362,0.308656954,0.276592183
0.096962218,0.317754003,0.308619537,0.276664241
0.097004159,0.317677425,0.30858296,0.276735456
0.097046323,0.317600629,0.308547217,0.276805831
0.097088711,0.317523618,0.308512304,0.276875367
0.097131322,0.317446393,0.308478217,0.276944068
0.097174158,0.317368956,0.30844495,0.277011936
0.097217218,0.317291307,0.3084125,0.277078975
0.097260501,0.317213448,0.308380862,0.277145188
0.097304008,0.317135379,0.308350033,0.27721058
0.097347738,0.317057102,0.308320007,0.277275153
0.097391691,0.316978616,0.308290781,0.277338912
0.097435867,0.316899923,0.308262349,0.277401861
0.097480264,0.316821023,0.308234709,0.277464003
0.097524884,0.316741918,0.308207855,0.277525343
0.097569724,0.316662607,0.308181784,0.277585885
0.097614785,0.31658309,0.308156492,0.277645633
0.097660065,0.316503368,0.308131976,0.277704591
0.097705565,0.316423441,0.30810823,0.277762763
0.097751283,0.316343309,0.308085253,0.277820155
0.097797219,0.316262971,0.308063039,0.277876771
0.097843371,0.316182427,0.308041586,0.277932616
0.097889738,0.316101678,0.30802089,0.277987695
0.097936319,0.316020722,0.308000947,0.278042012
0.097983113,0.315939559,0.307981754,0.278095574
0.098030119,0.315858189,0.307963309,0.278148383
0.098077336,0.31577661,0.307945607,0.278200447
0.098124761,0.315694824,0.307928646,0.278251769
0.098172394,0.315612828,0.307912424,0.278302354
0.098220233,0.315530622,0.307896938,0.278352207
0.098268277,0.315448205,0.307882186,0.278401332
0.098316525,0.315365577,0.307868165,0.278449733
0.098364976,0.315282736,0.307854872,0.278497416
0.098413629,0.315199683,0.307842305,0.278544383
0.098462483,0.315116417,0.307830461,0.278590639
0.098511538,0.315032936,0.307819338,0.278636188
0.098560794,0.314949241,0.307808932,0.278681033
0.098610251,0.314865329,0.307799242,0.278725178
0.098659908,0.314781199,0.307790266,0.278768627
0.098709766,0.314696851,0.307782001,0.278811383
0.098759825,0.314612283,0.307774444,0.278853449
0.098810084,0.314527494,0.307767595,0.278894827
0.098860546,0.314442484,0.307761449,0.278935521
0.098911208,0.314357252,0.307756006,0.278975534
0.098962072,0.314271799,0.307751262,0.279014867
0.099013137,0.314186125,0.307747214,0.279053524
0.099064404,0.31410023,0.307743861,0.279091506
0.099115872,0.314014114,0.307741199,0.279128816
0.099167541,0.313927777,0.307739226,0.279165456
0.099219412,0.313841219,0.307737941,0.279201429
0.099271483,0.31375444,0.30773734,0.279236737
0.099323756,0.313667439,0.307737422,0.279271383
0.099376229,0.313580217,0.307738184,0.27930537
0.099428901,0.313492773,0.307739625,0.279338702
0.099481773,0.313405106,0.307741742,0.27937138
0.099534842,0.313317217,0.307744534,0.279403407
0.099588109,0.313229105,0.307748001,0.279434786
0.099641572,0.313140769,0.30775214,0.279465518
0.099695231,0.313052211,0.307756951,0.279495607
0.099749085,0.312963429,0.307762433,0.279525054
0.099803133,0.312874423,0.307768583,0.279553862
0.099857374,0.312785193,0.3077754,0.279582032
0.099911809,0.31269574,0.307782884,0.279609567
0.099966436,0.312606062,0.307791033,0.27963647
0.100021255,0.312516159,0.307799844,0.279662742
0.100076265,0.31242603,0.307809317,0.279688388
0.100131466,0.312335676,0.30781945,0.279713409
0.100186858,0.312245094,0.307830241,0.279737807
0.100242442,0.312154285,0.307841689,0.279761584
0.100298216,0.312063244,0.307853796,0.279784744
0.100354182,0.311971972,0.30786656,0.279807286
0.100410338,0.311880466,0.307879982,0.279829214
0.100466684,0.311788723,0.307894062,0.279850531
0.100523219,0.311696741,0.307908801,0.279871239
0.100579942,0.311604517,0.307924198,0.279891343
0.100636851,0.311512048,0.307940256,0.279910846
0.100693946,0.31141933,0.307956972,0.279929752
0.100751226,0.311326361,0.307974348,0.279948065
0.10080869,0.311233138,0.307992383,0.279965788
0.100866338,0.311139659,0.308011078,0.279982925
0.100924168,0.311045921,0.308030431,0.27999948
0.100982181,0.310951921,0.308050443,0.280015455
0.101040374,0.310857658,0.308071113,0.280030855
0.101098749,0.310763128,0.30809244,0.280045683
0.101157303,0.31066833,0.308114424,0.280059943
0.101216036,0.310573262,0.308137065,0.280073636
0.101274948,0.310477922,0.308160363,0.280086767
0.101334038,0.310382308,0.308184317,0.280099337
0.101393305,0.310286418,0.308208927,0.28011135
0.101452748,0.310190251,0.308234192,0.28012281
0.101512367,0.310093804,0.308260111,0.280133718
0.10157216,0.309997078,0.308286684,0.280144079
0.101632127,0.30990007,0.308313909,0.280153895
0.101692267,0.309802779,0.308341784,0.280163169
0.10175258,0.309705205,0.308370309,0.280171906
0.101813064,0.309607346,0.308399482,0.280180108
0.101873718,0.309509203,0.3084293,0.28018778
0.101934541,0.309410773,0.308459762,0.280194924
0.101995533,0.309312057,0.308490867,0.280201544
0.102056692,0.309213052,0.308522613,0.280207643
0.102118018,0.309113759,0.308554999,0.280213225
0.102179509,0.309014175,0.308588024,0.280218293
0.102241164,0.3089143,0.308621687,0.280222849
0.102302984,0.308814132,0.308655988,0.280226896
0.102364966,0.308713671,0.308690927,0.280230436
0.10242711,0.308612915,0.308726503,0.280233472
0.102489415,0.308511863,0.308762716,0.280236005
0.102551881,0.308410515,0.308799567,0.280238037
0.102614508,0.308308869,0.308837054,0.280239569
0.102677294,0.308206926,0.308875178,0.280240602
0.10274024,0.308104684,0.30891394,0.280241136
0.102803344,0.308002145,0.308953338,0.280241173
0.102866608,0.307899305,0.308993375,0.280240712
0.102930029,0.307796166,0.30903405,0.280239755
0.102993608,0.307692725,0.309075363,0.280238303
0.103057344,0.307588982,0.309117315,0.280236358
0.103121237,0.307484935,0.309159906,0.280233922
0.103185285,0.307380584,0.309203135,0.280230996
0.103249488,0.307275928,0.309247002,0.280227581
0.103313846,0.307170966,0.309291508,0.28022368
0.103378359,0.307065697,0.309336652,0.280219293
0.103443025,0.30696012,0.309382433,0.280214422
0.103507844,0.306854235,0.309428851,0.28020907
0.103572817,0.306748041,0.309475904,0.280203238
0.103637943,0.306641538,0.309523591,0.280196928
0.103703221,0.306534725,0.309571911,0.280190143
0.103768652,0.306427601,0.309620863,0.280182884
0.103834236,0.306320165,0.309670445,0.280175154
0.103899972,0.306212417,0.309720656,0.280166955
0.103965861,0.306104357,0.309771493,0.28015829
0.104031902,0.305995983,0.309822955,0.28014916
0.104098097,0.305887295,0.309875039,0.28013957
0.104164444,0.305778293,0.309927743,0.280129521
0.104230944,0.305668977,0.309981064,0.280119015
0.104297597,0.305559347,0.310035,0.280108056
0.104364403,0.305449403,0.31008955,0.280096645
0.104431362,0.305339144,0.310144711,0.280084784
0.104498473,0.30522857,0.310200481,0.280072476
0.104565736,0.305117681,0.310256861,0.280059721
0.104633152,0.305006476,0.310313848,0.280046523
0.10470072,0.304894956,0.31037144,0.280032884
0.104768441,0.30478312,0.310429636,0.280018803
0.104836314,0.304670967,0.310488434,0.280004285
0.10490434,0.304558498,0.310547832,0.27998933
0.104972519,0.304445712,0.310607829,0.27997394
0.105040852,0.304332609,0.310668421,0.279958118
0.105109339,0.304219188,0.310729607,0.279941866
0.105177981,0.30410545,0.310791384,0.279925185
0.105246778,0.303991393,0.310853751,0.279908078
0.10531573,0.303877018,0.310916705,0.279890547
0.000863267,0.784648539,-0.021335939,0.235824134
0.000821522,0.784713389,-0.021430651,0.23589574
0.000779686,0.784778891,-0.021525678,0.235967101
0.000737759,0.784845043,-0.021621018,0.236038216
0.000695739,0.784911846,-0.021716668,0.236109084
0.000653625,0.784979302,-0.021812628,0.2361797
0.000611416,0.785047417,-0.021908895,0.236250062
0.00056911,0.785116194,-0.022005469,0.236320165
0.000526705,0.785185637,-0.022102347,0.236390005
0.000484199,0.785255748,-0.022199526,0.236459579
0.000441591,0.785326525,-0.022297003,0.236528888
0.000398876,0.785397964,-0.022394772,0.236597932
0.000356054,0.785470062,-0.022492827,0.236666712
0.000313122,0.785542811,-0.022591163,0.23673523
0.000270077,0.785616207,-0.022689772,0.236803488
0.000226916,0.785690246,-0.02278865,0.236871487
0.000183638,0.785764924,-0.022887791,0.23693923
0.000140238,0.785840239,-0.022987192,0.237006715
9.67E-05,0.785916192,-0.023086849,0.237073943
5.31E-05,0.785992782,-0.023186757,0.237140914
9.28E-06,0.786070011,-0.023286915,0.237207624
-3.46E-05,0.786147881,-0.02338732,0.237274075
-7.87E-05,0.786226392,-0.023487971,0.237340264
-0.000122874,0.786305548,-0.023588864,0.23740619
-0.000167204,0.786385353,-0.02369,0.237471851
-0.000211678,0.786465809,-0.023791374,0.237537243
-0.0002563,0.786546921,-0.023892985,0.237602365
-0.000301074,0.786628692,-0.023994832,0.237667214
-0.000346002,0.786711124,-0.024096913,0.237731792
-0.000391088,0.786794218,-0.024199224,0.237796095
-0.000436337,0.786877978,-0.024301761,0.23786012
-0.000481751,0.786962408,-0.024404518,0.23792386
-0.000527335,0.787047515,-0.024507489,0.23798731
-0.000573094,0.787133305,-0.024610671,0.238050459
-0.000619031,0.787219788,-0.024714057,0.238113301
-0.000665152,0.787306971,-0.024817644,0.238175825
-0.000711461,0.787394866,-0.024921427,0.238238021
-0.000757963,0.787483484,-0.025025399,0.238299878
-0.000804664,0.787572836,-0.025129554,0.238361381
-0.000851569,0.787662938,-0.025233884,0.238422515
-0.000898685,0.787753806,-0.025338385,0.238483264
-0.000946019,0.787845458,-0.025443051,0.238543611
-0.000993575,0.787937913,-0.025547879,0.23860354
-0.00104136,0.78803119,-0.025652867,0.238663037
-0.00108938,0.788125307,-0.025758013,0.238722085
-0.00113764,0.788220281,-0.025863314,0.238780673
-0.001186146,0.788316125,-0.025968769,0.238838789
-0.001234905,0.788412856,-0.026074373,0.238896422
-0.001283922,0.788510484,-0.026180125,0.238953563
-0.001333204,0.788609025,-0.02628602,0.239010199
-0.001382757,0.788708491,-0.026392056,0.239066321
-0.001432587,0.788808898,-0.02649823,0.239121919
-0.001482702,0.788910262,-0.026604541,0.23917698
-0.001533107,0.7890126,-0.026710989,0.239231495
-0.001583809,0.78911593,-0.026817574,0.239285453
-0.001634815,0.789220271,-0.026924299,0.239338843
-0.001686133,0.789325643,-0.027031166,0.239391656
-0.00173777,0.789432067,-0.027138177,0.23944388
-0.001789733,0.789539563,-0.027245332,0.239495502
-0.00184203,0.789648151,-0.027352632,0.239546511
-0.001894669,0.789757845,-0.027460074,0.239596898
-0.001947658,0.789868663,-0.027567658,0.239646653
-0.002001006,0.789980618,-0.027675381,0.239695769
-0.002054719,0.790093725,-0.027783243,0.239744237
-0.002108806,0.790207997,-0.027891241,0.239792049
-0.002163274,0.790323451,-0.027999373,0.239839197
-0.002218132,0.790440101,-0.028107639,0.23988567
-0.002273388,0.790557968,-0.028216036,0.239931456
-0.002329051,0.790677071,-0.028324565,0.239976545
-0.002385129,0.79079743,-0.028433223,0.240020922
-0.002441631,0.790919067,-0.02854201,0.240064574
-0.002498566,0.791042002,-0.028650924,0.240107489
-0.002555944,0.791166255,-0.028759963,0.240149652
-0.002613773,0.791291848,-0.028869125,0.24019105
-0.002672063,0.791418804,-0.028978409,0.240231669
-0.002730824,0.791547143,-0.029087816,0.240271497
-0.002790064,0.791676885,-0.029197347,0.240310526
-0.002849792,0.791808049,-0.029307003,0.240348746
-0.002910017,0.791940652,-0.029416785,0.24038615
-0.002970749,0.792074711,-0.029526694,0.240422732
-0.003031997,0.792210241,-0.029636729,0.240458485
-0.003093768,0.792347255,-0.029746889,0.240493402
-0.003156071,0.792485768,-0.029857172,0.240527475
-0.003218917,0.792625793,-0.029967574,0.240560698
-0.003282312,0.792767347,-0.030078095,0.240593061
-0.003346267,0.792910444,-0.030188734,0.240624557
-0.003410788,0.793055103,-0.030299494,0.24065518
-0.003475884,0.793201339,-0.030410378,0.240684923
-0.003541561,0.793349172,-0.030521389,0.240713778
-0.003607829,0.793498621,-0.030632531,0.240741738
-0.003674693,0.793649706,-0.030743807,0.240768794
-0.003742159,0.793802445,-0.030855223,0.240794937
-0.003810235,0.793956854,-0.030966781,0.240820161
-0.003878924,0.794112949,-0.031078485,0.24084446
-0.00394823,0.794270745,-0.03119034,0.240867826
-0.004018155,0.794430251,-0.031302349,0.240890253
-0.004088698,0.794591477,-0.031414514,0.240911735
-0.004159856,0.794754428,-0.03152684,0.240932268
-0.004231626,0.794919112,-0.03163933,0.240951844
-0.004304002,0.795085531,-0.031751988,0.240970459
-0.00437698,0.795253691,-0.031864817,0.240988107
-0.004450556,0.795423594,-0.031977822,0.241004784
-0.004524723,0.795595246,-0.032091005,0.241020482
-0.004599477,0.795768652,-0.03220437,0.241035196
-0.004674812,0.795943817,-0.032317919,0.241048914
-0.004750723,0.79612075,-0.032431655,0.241061627
-0.004827204,0.796299459,-0.032545578,0.241073322
-0.00490425,0.796479952,-0.032659689,0.241083987
-0.004981856,0.796662235,-0.032773987,0.241093608
-0.005060017,0.796846316,-0.032888473,0.241102175
-0.005138728,0.797032197,-0.033003144,0.241109676
-0.005217984,0.797219877,-0.033117996,0.241116103
-0.005297778,0.797409357,-0.033233028,0.241121449
-0.005378105,0.797600633,-0.033348234,0.241125706
-0.005458961,0.797793705,-0.033463613,0.241128869
-0.00554034,0.797988573,-0.033579161,0.241130928
-0.005622239,0.798185236,-0.033694876,0.241131879
-0.005704651,0.798383695,-0.033810756,0.241131712
-0.005787574,0.798583949,-0.033926799,0.241130424
-0.005871,0.798785998,-0.034043005,0.241128007
-0.005954925,0.798989841,-0.034159372,0.241124456
-0.006039343,0.799195478,-0.034275901,0.241119766
-0.006124247,0.799402907,-0.03439259,0.241113929
-0.006209631,0.799612127,-0.034509436,0.24110694
-0.006295488,0.799823134,-0.034626437,0.24109879
-0.006381811,0.800035928,-0.03474359,0.241089472
-0.006468592,0.800250506,-0.034860894,0.24107898
-0.006555822,0.800466862,-0.034978346,0.241067307
-0.006643492,0.800684987,-0.035095946,0.24105445
-0.006731591,0.800904871,-0.035213689,0.241040409
-0.006820108,0.8011265,-0.035331573,0.241025181
-0.006909035,0.801349859,-0.035449593,0.241008768
-0.006998359,0.801574934,-0.035567744,0.24099117
-0.007088072,0.801801709,-0.035686023,0.240972386
-0.007178161,0.802030168,-0.035804426,0.24095242
-0.007268617,0.802260296,-0.035922949,0.240931271
-0.007359429,0.802492077,-0.036041589,0.240908941
-0.007450587,0.802725499,-0.036160342,0.24088543
-0.007542081,0.802960549,-0.036279208,0.240860739
-0.0076339,0.803197215,-0.036398181,0.240834866
-0.007726036,0.803435482,-0.036517257,0.240807811
-0.007818477,0.803675335,-0.036636432,0.240779574
-0.007911213,0.803916756,-0.036755699,0.240750156
-0.008004233,0.804159727,-0.036875055,0.240719561
-0.008097526,0.804404225,-0.036994495,0.240687796
-0.008191082,0.804650232,-0.037114018,0.240654868
-0.00828489,0.804897725,-0.037233621,0.240620786
-0.008378941,0.805146685,-0.037353302,0.240585557
-0.008473225,0.805397093,-0.037473057,0.24054919
-0.008567735,0.805648927,-0.037592883,0.240511691
-0.008662463,0.805902171,-0.037712777,0.240473069
-0.008757399,0.806156805,-0.037832734,0.240433328
-0.008852537,0.806412813,-0.037952752,0.240392476
-0.008947869,0.80667018,-0.038072827,0.240350515
-0.009043388,0.806928892,-0.038192955,0.240307452
-0.009139088,0.807188934,-0.038313135,0.240263288
-0.009234962,0.807450295,-0.038433361,0.240218029
-0.009331005,0.807712962,-0.038553633,0.240171677
-0.009427211,0.807976923,-0.03867395,0.240124238
-0.009523576,0.80824217,-0.03879431,0.240075717
-0.009620093,0.80850869,-0.038914716,0.240026119
-0.009716759,0.808776473,-0.039035165,0.239975451
-0.009813567,0.809045503,-0.039155657,0.239923721
-0.009910512,0.809315761,-0.039276188,0.239870939
-0.010007589,0.809587227,-0.039396753,0.239817115
-0.010104793,0.809859881,-0.039517346,0.239762258
-0.010202119,0.810133704,-0.03963796,0.239706374
-0.010299562,0.810408679,-0.039758589,0.239649472
-0.010397119,0.81068479,-0.039879227,0.239591556
-0.010494786,0.810962024,-0.039999868,0.23953263
-0.010592558,0.811240369,-0.040120509,0.239472699
-0.010690433,0.811519815,-0.040241146,0.239411764
-0.010788408,0.811800354,-0.040361773,0.239349828
-0.01088648,0.812081976,-0.040482388,0.239286892
-0.010984647,0.812364676,-0.040602987,0.239222958
-0.011082906,0.812648446,-0.040723568,0.239158029
-0.011181257,0.812933278,-0.040844127,0.239092106
-0.011279695,0.813219164,-0.04096466,0.239025192
-0.011378219,0.813506094,-0.041085164,0.238957288
-0.011476825,0.813794062,-0.041205633,0.238888397
-0.011575512,0.81408306,-0.041326066,0.238818518
-0.011674276,0.814373084,-0.041446461,0.238747653
-0.011773115,0.814664132,-0.041566816,0.238675799
-0.011872026,0.814956204,-0.041687129,0.238602951
-0.011971005,0.815249301,-0.041807401,0.238529105
-0.012070047,0.815543425,-0.04192763,0.238454253
-0.01216915,0.815838578,-0.042047816,0.238378388
-0.012268309,0.816134765,-0.042167957,0.238301501
-0.01236752,0.816431993,-0.042288053,0.238223581
-0.012466781,0.816730263,-0.0424081,0.238144617
-0.012566086,0.81702958,-0.042528095,0.238064601
-0.012665431,0.817329942,-0.042648034,0.237983524
-0.012764812,0.817631348,-0.042767914,0.237901378
-0.01286422,0.817933795,-0.04288773,0.237818155
-0.012963647,0.818237279,-0.043007477,0.237733846
-0.013063082,0.818541792,-0.04312715,0.23764844
-0.013162514,0.81884733,-0.043246743,0.237561927
-0.01326193,0.819153882,-0.043366249,0.237474297
-0.01336132,0.819461442,-0.043485662,0.237385541
-0.013460673,0.819770003,-0.043604978,0.237295648
-0.013559977,0.820079558,-0.043724192,0.237204611
-0.013659223,0.820390102,-0.0438433,0.237112422
-0.0137584,0.820701628,-0.0439623,0.237019072
-0.013857497,0.821014134,-0.044081186,0.236924549
-0.013956503,0.821327614,-0.044199956,0.236828844
-0.014055407,0.821642063,-0.044318603,0.236731947
-0.014154198,0.821957471,-0.044437123,0.23663385
-0.014252867,0.822273827,-0.044555509,0.236534548
-0.014351404,0.822591123,-0.044673754,0.236434035
-0.014449798,0.822909348,-0.044791854,0.236332304
-0.014548042,0.823228492,-0.0449098,0.23622935
-0.014646127,0.823548545,-0.045027585,0.236125167
-0.014744043,0.823869497,-0.045145203,0.23601975
-0.014841784,0.824191333,-0.045262644,0.235913095
-0.014939341,0.824514044,-0.0453799,0.235805198
-0.015036707,0.824837616,-0.045496962,0.235696053
-0.015133874,0.82516204,-0.045613824,0.235585657
-0.015230836,0.825487307,-0.045730478,0.235474006
-0.015327586,0.825813409,-0.045846917,0.235361095
-0.015424119,0.826140337,-0.045963136,0.235246918
-0.01552043,0.82646809,-0.046079129,0.235131469
-0.015616512,0.826796663,-0.04619489,0.235014739
-0.015712363,0.827126056,-0.046310416,0.234896722
-0.015807977,0.827456269,-0.046425703,0.23477741
-0.015903352,0.827787304,-0.046540749,0.234656797
-0.015998483,0.828119161,-0.046655553,0.234534876
-0.01609337,0.828451838,-0.046770112,0.234411644
-0.016188007,0.828785334,-0.046884424,0.234287096
-0.016282393,0.829119646,-0.046998484,0.234161231
-0.016376524,0.82945477,-0.047112289,0.234034044
-0.016470398,0.829790703,-0.047225834,0.233905529
-0.01656401,0.830127444,-0.047339114,0.23377568
-0.01665736,0.83046499,-0.04745212,0.233644491
-0.016750445,0.830803341,-0.047564848,0.233511951
-0.016843263,0.831142499,-0.047677288,0.233378052
-0.016935813,0.831482466,-0.047789435,0.233242782
-0.017028095,0.831823247,-0.047901281,0.233106128
-0.017120108,0.832164849,-0.048012818,0.232968077
-0.017211851,0.832507279,-0.04812404,0.232828613
-0.017303325,0.832850545,-0.04823494,0.23268772
-0.01739453,0.833194656,-0.048345509,0.232545383
-0.017485465,0.833539622,-0.048455742,0.232401585
-0.01757613,0.833885449,-0.048565631,0.232256312
-0.017666525,0.834232141,-0.048675166,0.23210955
-0.017756648,0.834579698,-0.04878434,0.23196129
-0.017846498,0.83492812,-0.048893143,0.231811522
-0.017936076,0.835277402,-0.049001565,0.231660239
-0.018025379,0.835627541,-0.049109596,0.231507435
-0.018114409,0.835978534,-0.049217229,0.231353103
-0.018203164,0.83633038,-0.049324454,0.231197238
-0.018291646,0.836683079,-0.049431266,0.231039833
-0.018379852,0.837036633,-0.049537662,0.230880881
-0.018467783,0.837391042,-0.049643638,0.230720379
-0.018555438,0.83774631,-0.049749193,0.23055832
-0.018642816,0.838102441,-0.049854326,0.230394701
-0.018729917,0.838459438,-0.049959039,0.230229519
-0.018816742,0.838817304,-0.05006333,0.230062769
-0.01890329,0.839176042,-0.050167201,0.229894449
-0.01898956,0.839535653,-0.050270649,0.229724556
-0.019075551,0.839896137,-0.050373673,0.229553088
-0.019161262,0.84025749,-0.05047627,0.229380041
-0.019246691,0.840619711,-0.050578434,0.229205414
-0.019331839,0.840982797,-0.050680162,0.229029205
-0.019416704,0.841346742,-0.05078145,0.228851412
-0.019501286,0.841711543,-0.050882292,0.228672035
-0.019585585,0.84207719,-0.050982682,0.228491078
-0.0196696,0.842443675,-0.051082618,0.228308543
-0.019753331,0.842810991,-0.051182093,0.228124432
-0.019836775,0.843179132,-0.051281106,0.22793875
-0.019919934,0.843548089,-0.051379653,0.227751498
-0.020002806,0.843917857,-0.051477731,0.22756268
-0.02008539,0.844288429,-0.051575336,0.227372297
-0.020167685,0.8446598,-0.051672465,0.22718035
-0.020249691,0.845031966,-0.051769114,0.226986838
-0.020331405,0.845404924,-0.051865281,0.226791762
-0.020412828,0.84577867,-0.051960962,0.226595121
-0.020493958,0.846153201,-0.052056156,0.226396913
-0.020574794,0.846528515,-0.052150858,0.226197137
-0.020655332,0.846904607,-0.052245067,0.225995792
-0.020735569,0.847281471,-0.052338779,0.225792877
-0.020815502,0.847659103,-0.05243199,0.225588389
-0.020895128,0.848037497,-0.052524694,0.225382325
-0.020974443,0.848416647,-0.052616887,0.225174683
-0.021053444,0.848796549,-0.052708562,0.224965457
-0.021132126,0.849177198,-0.052799715,0.224754643
-0.021210488,0.849558588,-0.052890339,0.224542239
-0.021288524,0.849940713,-0.052980431,0.224328242
-0.021366231,0.85032357,-0.053069988,0.224112649
-0.021443605,0.850707155,-0.053159009,0.223895459
-0.021520643,0.851091469,-0.053247493,0.223676667
-0.02159734,0.851476511,-0.053335441,0.22345627
-0.021673693,0.85186228,-0.053422852,0.223234264
-0.021749696,0.852248775,-0.053509726,0.223010646
-0.021825344,0.852635991,-0.053596061,0.222785414
-0.021900633,0.85302392,-0.053681852,0.222558564
-0.021975556,0.853412554,-0.053767093,0.222330095
-0.022050108,0.853801883,-0.053851777,0.222100002
-0.022124284,0.854191898,-0.053935897,0.221868284
-0.02219808,0.854582589,-0.054019446,0.221634937
-0.02227149,0.85497395,-0.054102417,0.221399957
-0.022344512,0.855365973,-0.054184803,0.221163342
-0.02241714,0.855758655,-0.054266601,0.220925086
-0.022489372,0.85615199,-0.054347806,0.220685188
-0.022561203,0.856545976,-0.054428417,0.220443643
-0.022632629,0.85694061,-0.054508431,0.220200451
-0.022703648,0.857335891,-0.054587851,0.219955607
-0.022774253,0.857731816,-0.054666675,0.219709112
-0.022844443,0.85812838,-0.054744902,0.219460965
-0.022914212,0.858525579,-0.054822532,0.219211165
-0.022983556,0.858923403,-0.054899562,0.218959715
-0.023052471,0.859321844,-0.054975988,0.218706616
-0.023120953,0.85972089,-0.055051806,0.21845187
-0.023188997,0.86012053,-0.055127013,0.21819548
-0.023256599,0.860520752,-0.055201603,0.217937449
-0.023323755,0.860921549,-0.055275574,0.21767778
-0.023390462,0.861322909,-0.05534892,0.217416474
-0.023456718,0.861724825,-0.05542164,0.217153533
-0.02352252,0.86212729,-0.05549373,0.21688896
-0.023587866,0.862530298,-0.05556519,0.216622758
-0.023652755,0.862933846,-0.055636019,0.216354928
-0.023717185,0.863337932,-0.055706218,0.216085471
-0.023781157,0.863742555,-0.055775786,0.215814388
-0.023844671,0.864147716,-0.055844722,0.215541678
-0.023907728,0.864553413,-0.055913023,0.215267338
-0.023970328,0.864959645,-0.055980685,0.214991367
-0.024032472,0.865366409,-0.056047703,0.214713765
-0.02409416,0.8657737,-0.056114073,0.214434533
-0.024155395,0.86618151,-0.056179789,0.214153673
-0.024216177,0.866589832,-0.056244844,0.213871189
-0.024276508,0.866998657,-0.056309233,0.213587084
-0.024336391,0.867407978,-0.056372951,0.213301364
-0.024395828,0.867817783,-0.056435991,0.213014035
-0.024454821,0.868228066,-0.056498349,0.212725105
-0.024513376,0.868638818,-0.056560021,0.212434578
-0.024571494,0.869050031,-0.056621,0.212142463
-0.02462918,0.8694617,-0.056681284,0.211848764
-0.024686439,0.869873819,-0.05674087,0.21155349
-0.024743274,0.870286384,-0.056799759,0.211256649
-0.024799686,0.870699391,-0.056857953,0.210958248
-0.02485568,0.871112838,-0.056915454,0.210658296
-0.024911257,0.871526723,-0.056972265,0.210356799
-0.02496642,0.871941038,-0.057028389,0.210053771
-0.025021172,0.872355775,-0.057083826,0.209749223
-0.025075514,0.872770922,-0.057138578,0.209443171
-0.025129449,0.873186466,-0.057192644,0.209135627
-0.025182977,0.873602396,-0.057246023,0.208826604
-0.025236098,0.874018698,-0.057298714,0.208516114
-0.02528881,0.874435359,-0.057350716,0.208204167
-0.025341111,0.874852368,-0.057402028,0.207890771
-0.025392997,0.875269711,-0.057452648,0.207575934
-0.025444466,0.875687376,-0.057502575,0.207259665
-0.025495515,0.87610535,-0.057551807,0.206941972
-0.025546139,0.876523619,-0.057600342,0.206622862
-0.025596336,0.876942169,-0.057648175,0.206302342
-0.025646101,0.877360987,-0.057695305,0.205980418
-0.025695429,0.877780063,-0.057741725,0.205657092
-0.025744317,0.878199385,-0.057787432,0.205332364
-0.025792759,0.878618947,-0.057832422,0.205006234
-0.025840751,0.879038742,-0.057876693,0.204678703
-0.025888289,0.879458761,-0.057920242,0.204349771
-0.025935368,0.879878997,-0.057963066,0.204019438
-0.025981982,0.880299441,-0.058005165,0.203687706
-0.026028126,0.880720089,-0.058046537,0.203354574
-0.026073794,0.881140934,-0.058087184,0.203020043
-0.026118983,0.881561973,-0.058127106,0.202684115
-0.026163687,0.881983202,-0.058166306,0.20234679
-0.026207904,0.882404617,-0.058204785,0.202008071
-0.026251627,0.882826216,-0.058242548,0.20166796
-0.026294854,0.883247993,-0.058279597,0.201326458
-0.02633758,0.883669948,-0.058315934,0.200983567
-0.026379801,0.884092077,-0.058351565,0.200639289
-0.026421513,0.884514381,-0.058386492,0.200293624
-0.026462711,0.884936856,-0.058420718,0.199946572
-0.026503392,0.885359505,-0.058454242,0.19959813
-0.026543553,0.885782328,-0.058487069,0.199248294
-0.02658319,0.886205331,-0.058519202,0.198897062
-0.026622299,0.886628515,-0.058550644,0.198544428
-0.026660876,0.887051883,-0.058581397,0.19819039
-0.026698917,0.887475436,-0.058611461,0.197834943
-0.026736418,0.887899174,-0.058640837,0.197478082
-0.026773376,0.888323097,-0.058669525,0.197119803
-0.026809786,0.888747208,-0.058697524,0.196760102
-0.026845647,0.88917151,-0.058724836,0.196398973
-0.026880956,0.889596006,-0.058751461,0.196036411
-0.026915711,0.890020702,-0.058777404,0.195672413
-0.02694991,0.890445603,-0.058802669,0.195306976
-0.026983551,0.890870715,-0.058827262,0.194940098
-0.027016633,0.891296046,-0.05885119,0.194571777
-0.027049155,0.891721604,-0.058874462,0.194202013
-0.027081116,0.892147399,-0.058897086,0.193830804
-0.027112517,0.892573441,-0.058919072,0.193458148
-0.027143358,0.892999741,-0.058940428,0.193084045
-0.027173638,0.893426305,-0.058961162,0.192708494
-0.027203356,0.89385314,-0.05898128,0.192331496
-0.027232513,0.89428025,-0.059000789,0.191953053
-0.027261108,0.894707634,-0.059019695,0.191573168
-0.027289138,0.895135292,-0.059038,0.191191846
-0.027316602,0.895563219,-0.059055709,0.190809093
-0.027343499,0.895991408,-0.059072825,0.190424916
-0.027369828,0.896419855,-0.059089351,0.190039324
-0.027395588,0.896848554,-0.059105291,0.189652324
-0.027420779,0.8972775,-0.059120647,0.189263926
-0.0274454,0.897706689,-0.059135424,0.188874136
-0.027469452,0.898136115,-0.059149627,0.188482964
-0.027492935,0.898565775,-0.059163261,0.188090421
-0.02751585,0.898995664,-0.059176332,0.187696518
-0.027538197,0.899425776,-0.059188846,0.187301268
-0.027559978,0.899856103,-0.059200809,0.186904684
-0.027581194,0.900286637,-0.059212226,0.186506782
-0.027601846,0.900717364,-0.059223098,0.18610758
-0.027621935,0.901148271,-0.059233431,0.185707095
-0.027641462,0.901579341,-0.059243226,0.185305348
-0.027660429,0.902010557,-0.059252487,0.18490236
-0.027678838,0.902441901,-0.059261217,0.184498154
-0.02769669,0.902873354,-0.059269416,0.184092752
-0.027713987,0.903304898,-0.059277088,0.183686177
-0.027730732,0.903736513,-0.059284234,0.183278453
-0.027746923,0.904168178,-0.059290857,0.182869602
-0.027762561,0.904599874,-0.059296961,0.182459648
-0.027777643,0.905031581,-0.059302549,0.182048611
-0.027792167,0.90546328,-0.059307626,0.181636513
-0.027806131,0.905894951,-0.059312199,0.181223379
-0.027819531,0.906326573,-0.059316273,0.180809232
-0.027832365,0.906758124,-0.059319854,0.180394095
-0.027844625,0.90718958,-0.059322946,0.179977991
-0.027856308,0.907620917,-0.059325552,0.179560944
-0.027867406,0.908052105,-0.059327678,0.179142979
-0.027877912,0.908483113,-0.059329325,0.178724123
-0.027887818,0.908913906,-0.059330496,0.178304408
-0.027897117,0.909344448,-0.059331195,0.177883863
-0.0279058,0.909774701,-0.059331422,0.177462521
-0.027913861,0.910204629,-0.059331179,0.177040411
-0.027921291,0.910634196,-0.05933047,0.176617564
-0.027928081,0.911063369,-0.059329296,0.176194008
-0.027934224,0.911492119,-0.059327664,0.175769769
-0.027939712,0.911920414,-0.059325576,0.175344874
-0.027944535,0.912348227,-0.059323038,0.174919347
-0.027948686,0.912775524,-0.059320054,0.174493216
-0.027952157,0.913202271,-0.059316628,0.174066514
-0.027954941,0.913628431,-0.059312765,0.173639275
-0.027957028,0.914053959,-0.059308465,0.173211535
-0.027958413,0.914478808,-0.059303732,0.172783336
-0.027959086,0.914902928,-0.059298565,0.172354723
-0.02795904,0.915326264,-0.059292966,0.171925742
-0.027958268,0.91574876,-0.059286932,0.171496441
-0.027956763,0.91617036,-0.059280462,0.171066866
-0.027954519,0.916591009,-0.059273553,0.170637063
-0.027951527,0.917010657,-0.059266203,0.170207073
-0.027947784,0.917429257,-0.059258411,0.169776938
-0.027943282,0.917846764,-0.059250177,0.169346695
-0.027938017,0.918263138,-0.059241503,0.168916383
-0.027931984,0.918678339,-0.059232392,0.168486037
-0.027925177,0.91909233,-0.059222847,0.168055695
-0.027917591,0.919505072,-0.059212873,0.167625392
-0.02790922,0.919916527,-0.059202473,0.167195166
-0.027900059,0.92032666,-0.05919165,0.16676505
-0.027890103,0.920735434,-0.059180408,0.166335077
-0.027879349,0.921142817,-0.059168749,0.165905281
-0.02786779,0.921548773,-0.059156676,0.165475694
-0.027855425,0.921953266,-0.059144192,0.16504635
-0.027842246,0.922356259,-0.059131297,0.164617283
-0.027828251,0.922757711,-0.059117992,0.164188531
-0.027813434,0.923157579,-0.059104276,0.163760131
-0.02779779,0.92355582,-0.05909015,0.16333212
-0.027781315,0.92395239,-0.059075614,0.162904539
-0.027764006,0.924347248,-0.059060667,0.162477425
-0.027745859,0.924740353,-0.05904531,0.162050816
-0.027726872,0.925131667,-0.059029545,0.16162475
-0.027707043,0.925521153,-0.059013372,0.161199262
-0.027686368,0.925908774,-0.058996796,0.160774389
-0.027664846,0.926294495,-0.058979819,0.160350169
-0.027642475,0.926678283,-0.058962446,0.159926638
-0.027619255,0.927060104,-0.058944681,0.159503831
-0.027595183,0.927439928,-0.058926528,0.159081783
-0.027570259,0.927817724,-0.058907989,0.158660525
-0.027544484,0.928193459,-0.058889066,0.15824009
-0.027517856,0.928567104,-0.058869758,0.15782051
-0.027490376,0.928938626,-0.058850068,0.157401818
-0.027462046,0.929307995,-0.058829995,0.156984046
-0.027432865,0.929675178,-0.05880954,0.156567227
-0.027402833,0.930040143,-0.058788706,0.156151396
-0.027371951,0.930402858,-0.058767492,0.155736585
-0.027340218,0.930763292,-0.0587459,0.155322826
-0.027307633,0.931121416,-0.05872393,0.154910147
-0.027274198,0.931477201,-0.058701583,0.15449858
-0.027239912,0.931830622,-0.058678861,0.15408815
-0.027204775,0.932181655,-0.058655765,0.153678885
-0.027168787,0.932530275,-0.058632299,0.153270811
-0.02713195,0.932876458,-0.058608462,0.152863954
-0.027094264,0.933220183,-0.058584258,0.152458339
-0.027055731,0.933561429,-0.05855969,0.152053992
-0.027016351,0.933900174,-0.058534759,0.151650937
-0.026976126,0.934236394,-0.058509469,0.151249201
-0.026935057,0.934570064,-0.058483821,0.150848814
-0.026893143,0.934901151,-0.058457815,0.150449807
-0.026850386,0.935229624,-0.05843145,0.150052213
-0.026806787,0.93555545,-0.058404729,0.149656066
-0.026762346,0.935878598,-0.058377651,0.149261399
-0.026717065,0.936199038,-0.058350218,0.148868245
-0.026670942,0.936516741,-0.058322434,0.148476634
-0.026623979,0.93683168,-0.058294299,0.148086598
-0.026576173,0.937143826,-0.058265819,0.147698166
-0.026527526,0.937453155,-0.058236997,0.147311368
-0.026478037,0.937759641,-0.058207841,0.146926237
-0.026427706,0.938063255,-0.058178358,0.14654281
-0.026376532,0.938363968,-0.058148557,0.146161122
-0.026324516,0.938661751,-0.058118447,0.145781213
-0.026271656,0.938956571,-0.058088037,0.145403122
-0.026217953,0.939248395,-0.058057333,0.145026892
-0.026163406,0.93953718,-0.058026343,0.144652569
-0.026108012,0.939822884,-0.057995073,0.144280202
-0.02605177,0.940105458,-0.05796353,0.143909841
-0.025994675,0.940384856,-0.057931717,0.143541536
-0.025936724,0.94066103,-0.057899641,0.143175336
-0.025877914,0.940933934,-0.057867307,0.142811288
-0.025818243,0.941203522,-0.057834718,0.142449439
-0.025757706,0.941469752,-0.05780188,0.142089833
-0.0256963,0.941732578,-0.057768795,0.141732517
-0.025634023,0.941991956,-0.057735467,0.141377534
-0.025570873,0.942247848,-0.057701903,0.141024929
-0.025506847,0.942500212,-0.057668107,0.140674742
-0.025441942,0.942749011,-0.057634083,0.140327014
-0.025376158,0.94299421,-0.057599834,0.139981783
-0.025309493,0.943235772,-0.057565362,0.139639083
-0.025241945,0.943473661,-0.057530666,0.13929895
-0.025173515,0.943707842,-0.057495742,0.138961415
-0.025104201,0.943938278,-0.05746059,0.138626512
-0.025034002,0.944164933,-0.057425205,0.138294275
-0.02496292,0.944387765,-0.057389584,0.137964739
-0.024890953,0.944606734,-0.057353724,0.137637943
-0.024818103,0.9448218,-0.057317621,0.137313923
-0.02474437,0.945032926,-0.057281274,0.136992718
-0.024669757,0.945240077,-0.057244682,0.136674362
-0.024594265,0.945443219,-0.057207846,0.136358891
-0.024517896,0.945642319,-0.057170766,0.136046343
-0.024440655,0.945837342,-0.057133444,0.135736757
-0.024362543,0.946028252,-0.057095884,0.135430175
-0.024283563,0.946215015,-0.057058091,0.13512664
-0.024203718,0.946397596,-0.057020073,0.134826195
-0.02412301,0.946575962,-0.056981835,0.134528883
-0.024041442,0.946750079,-0.056943386,0.13423475
-0.023959017,0.94691991,-0.056904733,0.133943839
-0.023875738,0.947085419,-0.056865881,0.1336562
-0.023791609,0.947246566,-0.056826837,0.13337188
-0.023706634,0.94740331,-0.056787605,0.133090929
-0.023620816,0.947555609,-0.056748189,0.132813396
-0.023534159,0.947703418,-0.056708589,0.132539329
-0.023446664,0.947846692,-0.056668801,0.132268773
-0.023358334,0.947985388,-0.056628824,0.132001771
-0.023269173,0.948119465,-0.056588657,0.131738365
-0.023179183,0.948248889,-0.0565483,0.131478594
-0.023088369,0.948373627,-0.056507752,0.131222494
-0.022996733,0.948493648,-0.056467014,0.130970099
-0.022904281,0.948608928,-0.056426087,0.13072144
-0.022811017,0.948719443,-0.056384974,0.130476548
-0.022716946,0.948825173,-0.056343677,0.13023545
-0.022622072,0.9489261,-0.056302198,0.12999817
-0.022526402,0.949022206,-0.056260538,0.129764734
-0.02242994,0.949113474,-0.056218699,0.129535165
-0.022332691,0.94919989,-0.056176684,0.129309485
-0.02223466,0.949281436,-0.056134495,0.129087718
-0.022135853,0.949358098,-0.056092135,0.12886989
-0.022036275,0.94942986,-0.056049607,0.128656022
-0.021935932,0.949496708,-0.056006915,0.128446138
-0.02183483,0.949558631,-0.055964061,0.128240259
-0.021732976,0.949615619,-0.055921048,0.128038405
-0.021630377,0.949667665,-0.05587788,0.127840592
-0.021527041,0.949714762,-0.055834559,0.127646838
-0.021422973,0.949756902,-0.055791087,0.127457158
-0.021318181,0.94979408,-0.055747467,0.127271568
-0.021212671,0.949826288,-0.055703703,0.127090086
-0.021106448,0.949853519,-0.0556598,0.126912729
-0.020999519,0.949875767,-0.055615764,0.126739516
-0.020891888,0.949893026,-0.055571602,0.126570465
-0.02078356,0.949905286,-0.05552732,0.126405594
-0.020674539,0.949912538,-0.055482923,0.126244923
-0.020564828,0.949914769,-0.055438415,0.126088474
-0.020454431,0.949911966,-0.0553938,0.125936265
-0.020343354,0.949904118,-0.055349079,0.125788316
-0.020231601,0.949891212,-0.055304256,0.125644645
-0.020119176,0.949873236,-0.055259333,0.125505273
-0.020006085,0.949850177,-0.055214313,0.125370221
-0.019892332,0.949822022,-0.055169201,0.125239511
-0.019777924,0.94978876,-0.055124001,0.125113165
-0.019662866,0.949750386,-0.055078723,0.124991204
-0.019547166,0.949706898,-0.055033378,0.124873645
-0.01943083,0.949658296,-0.054987974,0.124760508
-0.019313865,0.94960458,-0.054942523,0.124651808
-0.019196277,0.949545747,-0.05489703,0.12454756
-0.019078073,0.949481799,-0.054851501,0.124447775
-0.018959258,0.949412735,-0.054805938,0.124352461
-0.01883984,0.949338559,-0.054760344,0.124261625
-0.018719826,0.949259272,-0.054714719,0.124175272
-0.018599222,0.949174876,-0.054669063,0.124093408
-0.018478034,0.949085373,-0.054623377,0.124016039
-0.018356271,0.948990762,-0.054577662,0.123943171
-0.018233936,0.948891039,-0.054531918,0.123874814
-0.018111036,0.948786203,-0.054486144,0.123810977
-0.017987578,0.948676251,-0.054440342,0.123751669
-0.017863567,0.948561182,-0.054394512,0.123696897
-0.01773901,0.948440998,-0.054348655,0.123646667
-0.017613914,0.948315702,-0.054302774,0.123600986
-0.017488285,0.948185298,-0.054256871,0.123559857
-0.017362129,0.948049789,-0.054210946,0.123523286
-0.017235454,0.947909178,-0.054164996,0.123491272
-0.017108265,0.947763466,-0.054119018,0.123463817
-0.016980567,0.947612657,-0.054073009,0.12344092
-0.016852366,0.947456755,-0.054026966,0.123422578
-0.016723666,0.947295761,-0.053980886,0.123408791
-0.016594472,0.947129677,-0.053934765,0.123399559
-0.01646479,0.946958504,-0.053888599,0.123394885
-0.016334626,0.94678224,-0.053842385,0.123394771
-0.016203986,0.946600887,-0.053796119,0.123399218
-0.016072875,0.946414444,-0.053749796,0.123408227
-0.015941302,0.946222916,-0.053703411,0.123421797
-0.015809272,0.946026307,-0.053656962,0.123439927
-0.015676794,0.945824627,-0.053610445,0.123462612
-0.015543876,0.945617889,-0.053563858,0.123489845
-0.015410525,0.945406107,-0.053517201,0.123521619
-0.015276751,0.945189299,-0.053470472,0.123557925
-0.015142562,0.944967482,-0.053423672,0.123598753
-0.015007968,0.944740678,-0.053376803,0.123644092
-0.014872977,0.944508911,-0.053329864,0.12369393
-0.014737601,0.944272205,-0.053282857,0.123748253
-0.014601848,0.944030584,-0.053235781,0.123807045
-0.014465728,0.94378407,-0.053188634,0.123870292
-0.01432925,0.943532687,-0.053141412,0.123937976
-0.014192425,0.943276452,-0.053094111,0.124010084
-0.014055259,0.943015384,-0.053046725,0.1240866
-0.01391776,0.942749496,-0.052999247,0.124167511
-0.013779937,0.942478804,-0.052951669,0.124252803
-0.013641798,0.94220332,-0.052903982,0.12434246
-0.013503351,0.941923057,-0.052856175,0.124436468
-0.013364604,0.941638033,-0.052808238,0.12453481
-0.013225568,0.941348261,-0.052760164,0.12463747
-0.01308625,0.941053758,-0.052711942,0.124744434
-0.012946661,0.940754539,-0.052663567,0.124855688
-0.012806807,0.94045062,-0.052615034,0.124971221
-0.012666697,0.940142014,-0.052566339,0.125091022
-0.012526338,0.939828735,-0.052517482,0.125215084
-0.012385738,0.939510795,-0.052468459,0.125343401
-0.012244904,0.939188207,-0.052419269,0.125475966
-0.012103845,0.938860982,-0.052369911,0.125612773
-0.011962568,0.938529132,-0.052320382,0.125753818
-0.011821081,0.938192666,-0.05227068,0.125899094
-0.011679388,0.937851594,-0.052220803,0.126048597
-0.011537495,0.937505923,-0.052170745,0.126202317
-0.011395405,0.937155661,-0.052120502,0.126360246
-0.011253121,0.936800814,-0.052070066,0.126522373
-0.011110647,0.936441388,-0.052019432,0.12668869
-0.010967984,0.936077386,-0.051968592,0.126859189
-0.010825134,0.935708808,-0.051917541,0.127033867
-0.0106821,0.935335653,-0.051866272,0.127212718
-0.010538884,0.934957925,-0.05181478,0.12739574
-0.010395489,0.934575625,-0.05176306,0.127582925
-0.01025192,0.934188758,-0.051711107,0.12777427
-0.010108179,0.933797328,-0.051658915,0.127969767
-0.009964272,0.933401342,-0.051606479,0.12816941
-0.009820204,0.933000807,-0.051553794,0.128373191
-0.009675982,0.932595732,-0.051500854,0.128581104
-0.00953161,0.93218612,-0.051447652,0.128793141
-0.009387096,0.931771977,-0.051394181,0.129009299
-0.009242446,0.931353304,-0.051340435,0.129229576
-0.009097667,0.930930104,-0.051286405,0.129453969
-0.008952766,0.930502377,-0.051232087,0.129682476
-0.008807751,0.930070125,-0.051177471,0.129915098
-0.008662629,0.929633348,-0.051122553,0.130151834
-0.008517407,0.929192049,-0.051067326,0.130392683
-0.008372093,0.928746232,-0.051011785,0.130637645
-0.008226693,0.928295905,-0.050955928,0.130886717
-0.008081216,0.927841076,-0.050899752,0.131139892
-0.007935667,0.92738176,-0.050843257,0.131397164
-0.007790052,0.926917968,-0.050786442,0.131658526
-0.007644379,0.926449716,-0.050729307,0.13192397
-0.007498652,0.925977018,-0.050671851,0.132193485
-0.007352881,0.925499891,-0.050614071,0.132467061
-0.00720707,0.925018351,-0.050555966,0.132744685
-0.007061228,0.924532416,-0.050497532,0.133026344
-0.00691536,0.924042101,-0.050438766,0.133312024
-0.006769472,0.923547424,-0.050379665,0.133601713
-0.006623569,0.9230484,-0.050320227,0.133895395
-0.006477658,0.922545045,-0.050260446,0.134193059
-0.006331743,0.922037375,-0.050200321,0.13449469
-0.006185832,0.921525407,-0.050139845,0.13480027
-0.006039929,0.921009158,-0.050079014,0.135109785
-0.00589404,0.920488646,-0.050017825,0.135423219
-0.005748172,0.919963889,-0.049956274,0.135740557
-0.005602332,0.919434907,-0.049894361,0.136061787
-0.005456527,0.918901719,-0.049832087,0.136386895
-0.005310764,0.918364349,-0.049769453,0.136715868
-0.005165049,0.91782282,-0.04970646,0.137048689
-0.005019389,0.917277153,-0.04964311,0.137385346
-0.004873791,0.916727372,-0.049579402,0.137725821
-0.004728262,0.916173497,-0.049515335,0.1380701
-0.004582807,0.915615547,-0.049450906,0.138418167
-0.004437435,0.915053542,-0.049386113,0.138770006
-0.004292151,0.914487498,-0.049320952,0.139125605
-0.004146962,0.91391743,-0.049255421,0.139484953
-0.004001874,0.913343349,-0.049189517,0.139848041
-0.003856895,0.912765262,-0.049123232,0.140214865
-0.003712031,0.912183175,-0.04905656,0.140585416
-0.00356729,0.911597091,-0.04898949,0.140959688
-0.003422678,0.911007016,-0.04892201,0.141337672
-0.003278201,0.910412954,-0.048854112,0.141719359
-0.003133865,0.909814912,-0.048785784,0.142104738
-0.002989677,0.909212898,-0.048717019,0.142493799
-0.002845642,0.908606917,-0.048647806,0.142886531
-0.002701765,0.907996978,-0.048578135,0.143282922
-0.002558051,0.90738309,-0.048507999,0.143682959
-0.002414505,0.90676526,-0.048437385,0.144086629
-0.002271134,0.906143497,-0.048366279,0.144493916
-0.002127943,0.905517807,-0.048294668,0.144904804
-0.001984939,0.9048882,-0.048222535,0.145319273
-0.00184213,0.904254688,-0.048149864,0.145737306
-0.001699523,0.903617284,-0.048076642,0.146158881
-0.001557127,0.902976005,-0.048002855,0.146583977
-0.001414949,0.902330868,-0.04792849,0.147012571
-0.001272998,0.901681894,-0.047853538,0.147444642
-0.001131283,0.901029103,-0.047777986,0.147880166
-0.000989812,0.900372519,-0.047701827,0.14831912
-0.000848594,0.899712168,-0.047625052,0.148761478
-0.000707639,0.899048075,-0.047547652,0.149207215
-0.000566954,0.898380268,-0.047469618,0.149656304
-0.000426549,0.897708772,-0.047390941,0.150108718
-0.000286433,0.897033612,-0.047311609,0.150564429
-0.000146614,0.89635481,-0.047231608,0.151023413
-7.10E-06,0.895672385,-0.047150924,0.151485641
0.000132094,0.894986359,-0.047069542,0.151951089
0.000270965,0.894296757,-0.046987448,0.152419725
0.000409501,0.893603609,-0.046904629,0.152891519
0.000547692,0.892906945,-0.046821073,0.153366435
0.00068553,0.892206802,-0.046736769,0.153844437
0.000823005,0.891503216,-0.046651708,0.154325487
0.000960108,0.890796227,-0.046565882,0.154809548
0.001096827,0.890085876,-0.046479284,0.155296581
0.001233154,0.889372204,-0.046391906,0.155786548
0.001369079,0.888655253,-0.046303738,0.156279406
0.001504593,0.887935068,-0.046214772,0.156775111
0.001639687,0.887211693,-0.046125001,0.157273621
0.001774354,0.886485175,-0.04603442,0.157774891
0.001908585,0.885755564,-0.045943024,0.158278875
0.002042374,0.885022907,-0.04585081,0.158785529
0.002175715,0.884287251,-0.045757774,0.159294808
0.002308604,0.883548641,-0.045663909,0.159806664
0.002441035,0.882807123,-0.045569208,0.160321051
0.002573003,0.88206274,-0.045473665,0.160837922
0.002704503,0.88131554,-0.045377271,0.161357229
0.002835529,0.880565568,-0.04528002,0.161878923
0.002966075,0.879812874,-0.045181904,0.162402955
0.003096135,0.879057507,-0.045082915,0.162929273
0.003225701,0.878299519,-0.044983047,0.163457826
0.003354768,0.877538963,-0.044882292,0.163988561
0.003483327,0.876775895,-0.044780647,0.164521425
0.003611373,0.876010368,-0.044678108,0.165056366
0.0037389,0.875242439,-0.044574671,0.165593333
0.003865901,0.874472157,-0.044470333,0.166132275
0.003992372,0.873699569,-0.044365087,0.166673146
0.004118305,0.872924721,-0.044258924,0.167215899
0.004243695,0.87214765,-0.044151834,0.167760488
0.004368537,0.871368389,-0.044043796,0.16830687
0.004492825,0.870586962,-0.043934785,0.168854998
0.004616554,0.869803394,-0.043824774,0.169404826
0.004739717,0.869017706,-0.043713732,0.169956308
0.00486231,0.868229926,-0.043601632,0.170509396
0.004984327,0.86744008,-0.043488447,0.17106404
0.005105765,0.866648195,-0.043374154,0.171620194
0.005226618,0.865854301,-0.043258729,0.172177809
0.005346884,0.865058428,-0.043142152,0.17273684
0.005466557,0.864260604,-0.043024404,0.173297243
0.005585633,0.86346086,-0.042905467,0.173858973
0.00570411,0.862659231,-0.042785326,0.174421985
0.005821983,0.861855751,-0.042663965,0.17498623
0.00593925,0.861050457,-0.042541369,0.175551662
0.006055905,0.860243386,-0.042417524,0.176118233
0.006171945,0.859434572,-0.042292412,0.176685895
0.006287367,0.858624052,-0.042166019,0.177254601
0.006402164,0.857811863,-0.04203833,0.177824303
0.006516333,0.856998042,-0.041909331,0.178394955
0.006629869,0.856182628,-0.04177901,0.178966514
0.006742765,0.85536566,-0.041647357,0.179538931
0.006855017,0.85454718,-0.041514359,0.180112161
0.006966619,0.853727232,-0.041380007,0.180686156
0.007077564,0.852905862,-0.041244293,0.181260867
0.007187846,0.852083119,-0.041107208,0.181836243
0.00729746,0.851259052,-0.040968746,0.182412235
0.007406398,0.850433712,-0.0408289,0.18298879
0.007514656,0.849607151,-0.040687665,0.183565858
0.007622227,0.848779421,-0.040545036,0.184143389
0.007729103,0.847950572,-0.040401006,0.184721331
0.007835279,0.847120655,-0.04025557,0.185299636
0.007940746,0.846289719,-0.040108719,0.185878254
0.008045497,0.84545781,-0.039960442,0.186457134
0.008149526,0.844624975,-0.03981073,0.187036229
0.008252822,0.843791263,-0.039659572,0.187615487
0.00835538,0.84295672,-0.039506957,0.188194857
0.00845719,0.842121395,-0.039352875,0.18877429
0.008558245,0.841285332,-0.039197315,0.189353738
0.008658538,0.840448568,-0.039040258,0.189933152
0.00875806,0.839611141,-0.038881686,0.190512485
0.008856805,0.838773085,-0.038721574,0.191091685
0.008954764,0.837934433,-0.0385599,0.191670703
0.00905193,0.837095221,-0.038396641,0.19224949
0.009148299,0.836255477,-0.038231775,0.192827999
0.009243864,0.835415232,-0.038065279,0.193406184
0.00933862,0.834574513,-0.037897129,0.193983997
0.009432562,0.833733352,-0.037727301,0.194561387
0.009525685,0.83289178,-0.037555765,0.195138299
0.009617985,0.832049834,-0.037382489,0.195714671
0.009709454,0.831207549,-0.037207441,0.196290438
0.009800087,0.83036497,-0.037030587,0.19686553
0.009889878,0.829522142,-0.036851892,0.197439872
0.009978821,0.828679116,-0.036671322,0.198013386
0.010066907,0.827835935,-0.036488839,0.198585997
0.010154132,0.826992641,-0.036304403,0.19915763
0.010240491,0.826149269,-0.036117975,0.199728214
0.01032598,0.82530586,-0.035929516,0.200297676
0.010410594,0.824462454,-0.035738987,0.200865939
0.010494331,0.823619096,-0.035546345,0.201432919
0.010577185,0.822775827,-0.03535154,0.201998527
0.010659157,0.821932695,-0.035154523,0.202562671
0.010740242,0.821089747,-0.034955245,0.203125256
0.01082044,0.820247034,-0.03475366,0.203686186
0.010899749,0.81940461,-0.034549727,0.204245368
0.010978168,0.818562526,-0.034343404,0.204802709
0.011055697,0.817720836,-0.034134654,0.205358122
0.011132334,0.816879586,-0.033923442,0.205911522
0.011208081,0.816038826,-0.033709734,0.206462826
0.01128294,0.815198603,-0.033493501,0.207011957
0.011356912,0.814358963,-0.033274714,0.207558839
0.011429998,0.813519952,-0.033053348,0.208103398
0.011502199,0.812681618,-0.03282938,0.208645564
0.011573516,0.811844009,-0.032602789,0.209185263
0.011643952,0.811007178,-0.032373555,0.209722425
0.011713508,0.810171176,-0.032141663,0.210256979
0.011782185,0.80933606,-0.031907098,0.210788853
0.011849987,0.808501889,-0.031669849,0.211317973
0.011916916,0.807668723,-0.031429905,0.211844266
0.011982975,0.806836628,-0.03118726,0.212367657
0.012048167,0.80600567,-0.030941909,0.212888072
0.012112494,0.805175916,-0.030693849,0.213405438
0.01217596,0.804347437,-0.030443078,0.213919681
0.012238566,0.803520303,-0.030189597,0.214430728
0.012300315,0.802694584,-0.029933403,0.214938504
0.012361208,0.801870347,-0.029674497,0.215442941
0.01242125,0.801047657,-0.029412879,0.215943972
0.012480442,0.800226574,-0.02914855,0.216441535
0.012538786,0.799407157,-0.028881513,0.216935569
0.012596286,0.798589466,-0.02861177,0.217426019
0.012652943,0.797773559,-0.02833933,0.217912828
0.01270876,0.796959497,-0.028064198,0.218395941
0.012763737,0.796147342,-0.027786384,0.218875305
0.012817876,0.795337156,-0.027505899,0.219350867
0.012871178,0.794529,-0.027222755,0.219822577
0.012923643,0.793722936,-0.026936969,0.220290389
0.012975274,0.792919026,-0.026648558,0.220754257
0.013026073,0.792117332,-0.026357543,0.221214139
0.013076042,0.791317913,-0.026063947,0.221669992
0.013125187,0.790520831,-0.025767794,0.222121776
0.013173513,0.789726141,-0.025469106,0.222569452
0.013221028,0.788933899,-0.025167908,0.223012981
0.013267739,0.788144154,-0.024864223,0.22345233
0.013313658,0.787356951,-0.02455807,0.223887461
0.013358797,0.786572333,-0.024249469,0.224318339
0.01340317,0.785790345,-0.023938439,0.224744924
0.013446792,0.785011029,-0.023625,0.225167179
0.01348968,0.78423443,-0.023309175,0.225585066
0.013531847,0.783460593,-0.022990989,0.225998548
0.013573311,0.782689565,-0.022670469,0.226407594
0.013614086,0.781921391,-0.022347647,0.22681217
0.013654186,0.781156118,-0.022022552,0.227212248
0.013693626,0.780393796,-0.02169522,0.227607797
0.013732421,0.779634474,-0.021365683,0.227998788
0.013770582,0.7788782,-0.021033975,0.228385193
0.013808125,0.778125022,-0.020700131,0.228766985
0.013845061,0.777374986,-0.020364185,0.229144138
0.013881404,0.776628136,-0.020026171,0.229516631
0.013917165,0.775884513,-0.019686122,0.229884445
0.013952356,0.775144151,-0.019344071,0.230247564
0.013986988,0.774407085,-0.019000049,0.230605976
0.014021072,0.773673344,-0.018654088,0.230959672
0.014054618,0.772942959,-0.01830622,0.231308643
0.014087636,0.772215958,-0.017956476,0.231652882
0.014120134,0.771492367,-0.017604886,0.231992385
0.014152123,0.770772211,-0.017251484,0.23232715
0.01418361,0.770055517,-0.016896303,0.232657176
0.014214604,0.76934231,-0.016539379,0.232982464
0.014245114,0.768632619,-0.016180749,0.233303016
0.014275146,0.767926471,-0.015820451,0.233618834
0.01430471,0.767223893,-0.015458525,0.233929922
0.014333813,0.76652491,-0.015095009,0.234236286
0.014362461,0.765829549,-0.014729941,0.23453793
0.014390663,0.765137837,-0.014363359,0.234834858
0.014418425,0.764449804,-0.013995299,0.23512707
0.014445752,0.763765481,-0.013625794,0.23541456
0.014472652,0.763084901,-0.013254878,0.235697324
0.014499133,0.762408095,-0.012882581,0.235975353
0.014525201,0.761735096,-0.012508933,0.236248636
0.014550864,0.761065937,-0.012133957,0.236517156
0.014576128,0.760400647,-0.011757662,0.236780887
0.014601,0.759739247,-0.011380046,0.237039799
0.014625486,0.75908175,-0.011001095,0.237293859
0.014649589,0.758428167,-0.010620791,0.237543035
0.014673315,0.757778505,-0.010239112,0.237787291
0.014696668,0.757132769,-0.009856028,0.238026591
0.014719652,0.756490959,-0.009471508,0.238260897
0.014742268,0.755853074,-0.009085516,0.238490174
0.014764521,0.755219111,-0.008698021,0.238714389
0.014786413,0.754589064,-0.008308993,0.238933516
0.014807947,0.753962924,-0.007918403,0.239147532
0.014829126,0.753340678,-0.007526222,0.239356419
0.014849953,0.752722313,-0.007132424,0.239560158
0.01487043,0.752107819,-0.006736984,0.239758735
0.014890562,0.751497182,-0.006339878,0.239952133
0.014910352,0.750890393,-0.005941086,0.240140341
0.014929801,0.750287439,-0.00554059,0.24032335
0.014948914,0.749688309,-0.005138374,0.240501151
0.014967692,0.749092993,-0.004734426,0.240673741
0.014986139,0.748501477,-0.004328735,0.240841118
0.015004257,0.747913751,-0.00392129,0.241003282
0.015022049,0.747329797,-0.003512082,0.241160236
0.015039517,0.746749599,-0.003101097,0.241311982
0.015056663,0.746173136,-0.002688322,0.241458524
0.01507349,0.745600382,-0.002273742,0.24159987
0.015089999,0.74503131,-0.001857341,0.241736032
0.015106194,0.744465889,-0.001439108,0.241867025
0.015122077,0.743904088,-0.001019033,0.241992868
0.015137651,0.743345881,-0.000597106,0.242113574
0.015152919,0.742791245,-0.000173325,0.242229161
0.015167883,0.74224016,0.000252315,0.242339642
0.015182546,0.741692606,0.000679813,0.242445035
0.015196911,0.741148566,0.001109165,0.242545357
0.015210981,0.740608022,0.001540368,0.242640628
0.01522476,0.740070958,0.001973414,0.242730868
0.01523825,0.739537357,0.002408297,0.242816096
0.015251456,0.739007203,0.002845005,0.242896336
0.01526438,0.738480481,0.003283528,0.242971611
0.015277026,0.737957173,0.003723852,0.243041949
0.015289398,0.737437264,0.004165959,0.243107378
0.015301501,0.736920737,0.004609832,0.243167929
0.01531334,0.736407576,0.00505545,0.243223634
0.015324918,0.735897764,0.005502792,0.243274526
0.015336241,0.735391287,0.005951834,0.243320638
0.015347314,0.734888126,0.006402554,0.243362006
0.01535814,0.734388267,0.006854925,0.243398668
0.015368725,0.733891691,0.007308921,0.243430663
0.015379071,0.733398383,0.007764513,0.243458033
0.015389182,0.732908328,0.008221671,0.243480818
0.015399063,0.732421511,0.008680364,0.243499062
0.015408715,0.731937917,0.009140559,0.243512809
0.015418142,0.731457531,0.009602223,0.243522105
0.015427347,0.730980337,0.01006532,0.243526996
0.015436332,0.73050632,0.010529817,0.243527531
0.015445101,0.730035465,0.010995675,0.243523759
0.015453656,0.729567757,0.011462856,0.243515731
0.015462001,0.729103183,0.011931321,0.243503496
0.015470137,0.72864173,0.012401027,0.243487106
0.015478069,0.728183387,0.012871933,0.243466611
0.0154858,0.72772814,0.013343998,0.243442061
0.015493333,0.727275979,0.01381718,0.243413508
0.015500672,0.726826891,0.014291435,0.243381002
0.01550782,0.726380861,0.014766722,0.243344597
0.015514781,0.725937873,0.015242998,0.243304348
0.015521559,0.725497909,0.01572022,0.243260312
0.015528158,0.725060947,0.016198345,0.24321255
0.015534582,0.724626963,0.016677332,0.243161123
0.015540833,0.724195932,0.017157139,0.243106095
0.015546917,0.723767826,0.017637722,0.243047535
0.015552834,0.723342616,0.018119037,0.242985514
0.015558588,0.722920269,0.018601039,0.242920104
0.015564182,0.722500757,0.019083682,0.242851379
0.015569618,0.722084046,0.01956692,0.242779416
0.0155749,0.721670102,0.020050708,0.24270429
0.015580031,0.721258889,0.020535,0.24262608
0.015585017,0.720850368,0.021019752,0.242544862
0.015589862,0.720444502,0.021504919,0.242460717
0.01559457,0.720041252,0.021990456,0.242373722
0.015599145,0.719640585,0.022476318,0.242283952
0.015603592,0.719242464,0.022962459,0.242191485
0.015607916,0.718846856,0.023448835,0.242096393
0.015612121,0.718453728,0.0239354,0.241998752
0.015616211,0.718063046,0.024422111,0.241898633
0.015620191,0.717674776,0.024908923,0.24179611
0.015624066,0.717288883,0.025395793,0.241691258
0.01562784,0.716905332,0.025882677,0.24158415
0.015631519,0.71652409,0.026369532,0.241474859
0.015635105,0.716145126,0.026856314,0.241363455
0.015638604,0.715768408,0.027342979,0.241250009
0.01564202,0.715393908,0.027829485,0.241134587
0.015645356,0.715021598,0.028315788,0.241017258
0.015648617,0.714651452,0.028801845,0.240898086
0.015651805,0.714283444,0.029287617,0.240777135
0.015654923,0.713917551,0.029773061,0.240654465
0.015657975,0.713553752,0.030258138,0.240530135
0.015660962,0.713192028,0.030742811,0.240404199
0.015663888,0.712832362,0.031227042,0.240276709
0.015666753,0.712474736,0.031710797,0.240147713
0.015669561,0.712119132,0.032194051,0.240017256
0.015672314,0.711765526,0.032676784,0.239885376
0.015675013,0.711413893,0.033158985,0.239752109
0.015677661,0.711064207,0.033640639,0.239617492
0.006863644,0.257009841,0.389854849,0.346271666
0.006986947,0.256891913,0.389774886,0.346346253
0.007110747,0.256771785,0.389694621,0.346422847
0.00723503,0.256649473,0.389614066,0.346501431
0.007359783,0.256524992,0.389533233,0.346581992
0.007484992,0.256398362,0.389452135,0.346664511
0.007610644,0.256269598,0.389370783,0.346748974
0.007736726,0.25613872,0.389289191,0.346835364
0.007863223,0.256005745,0.389207369,0.346923664
0.007990121,0.255870691,0.389125329,0.347013858
0.008117409,0.255733579,0.389043082,0.34710593
0.008245072,0.255594427,0.388960639,0.347199862
0.008373097,0.255453256,0.388878011,0.347295636
0.00850147,0.255310087,0.388795209,0.347393235
0.008630178,0.255164942,0.388712242,0.347492639
0.008759207,0.255017845,0.38862912,0.347593828
0.008888544,0.254868819,0.388545854,0.347696783
0.009018174,0.25471789,0.388462451,0.347801485
0.009148084,0.254565082,0.388378923,0.347907911
0.009278259,0.254410421,0.388295279,0.348016041
0.009408686,0.254253932,0.38821153,0.348125852
0.009539351,0.254095641,0.388127688,0.34823732
0.009670242,0.253935574,0.388043762,0.348350422
0.009801344,0.253773756,0.387959765,0.348465135
0.009932646,0.253610213,0.387875707,0.348581434
0.010064136,0.253444971,0.387791596,0.348699297
0.010195803,0.253278055,0.387707441,0.348818701
0.010327636,0.25310949,0.387623249,0.348939624
0.010459626,0.252939301,0.387539027,0.349062046
0.010591762,0.252767515,0.387454778,0.349185946
0.010724033,0.252594155,0.387370509,0.349311303
0.010856431,0.252419249,0.387286224,0.349438096
0.010988946,0.252242821,0.387201928,0.349566305
0.011121567,0.2520649,0.387117626,0.349695907
0.011254285,0.251885511,0.387033321,0.349826883
0.011387089,0.25170468,0.38694902,0.34995921
0.01151997,0.251522435,0.386864727,0.350092868
0.011652917,0.251338802,0.386780449,0.350227833
0.011785918,0.251153807,0.386696191,0.350364083
0.011918965,0.250967479,0.386611961,0.350501595
0.012052047,0.250779844,0.386527764,0.350640345
0.012185154,0.25059093,0.386443608,0.350780308
0.012318277,0.250400764,0.386359499,0.35092146
0.012451405,0.250209374,0.386275445,0.351063777
0.012584528,0.250016789,0.38619145,0.351207233
0.012717637,0.249823036,0.386107522,0.351351805
0.01285072,0.249628144,0.386023667,0.351497469
0.012983768,0.24943214,0.385939889,0.351644202
0.01311677,0.249235053,0.385856193,0.351791984
0.013249715,0.24903691,0.385772582,0.351940793
0.013382592,0.248837739,0.385689059,0.35209061
0.01351539,0.248637569,0.385605625,0.352241416
0.013648097,0.248436428,0.385522281,0.352393193
0.013780704,0.248234345,0.385439029,0.352545922
0.013913198,0.248031349,0.385355871,0.352699582
0.014045569,0.24782747,0.385272806,0.352854155
0.014177804,0.247622741,0.385189836,0.35300962
0.014309893,0.247417192,0.385106959,0.353165955
0.014441824,0.247210857,0.385024179,0.35332314
0.014573587,0.247003766,0.384941495,0.353481152
0.01470517,0.246795952,0.38485891,0.353639969
0.014836563,0.246587447,0.384776422,0.353799569
0.014967755,0.246378283,0.384694031,0.353959931
0.015098736,0.246168493,0.384611735,0.354121036
0.015229493,0.245958109,0.384529534,0.354282864
0.015360016,0.245747162,0.384447427,0.354445395
0.015490294,0.245535681,0.384365414,0.354608611
0.015620315,0.245323693,0.384283497,0.354772494
0.015750069,0.245111228,0.384201676,0.354937026
0.015879544,0.244898312,0.384119953,0.355102191
0.016008729,0.244684972,0.384038328,0.355267972
0.016137613,0.244471234,0.383956803,0.35543435
0.016266187,0.244257126,0.383875379,0.355601308
0.016394438,0.244042675,0.383794058,0.35576883
0.016522355,0.243827908,0.383712839,0.355936898
0.016649929,0.243612854,0.383631724,0.356105493
0.016777148,0.243397539,0.383550714,0.356274599
0.016904002,0.243181993,0.383469809,0.356444196
0.017030479,0.242966244,0.383389013,0.356614265
0.01715657,0.242750319,0.383308325,0.356784786
0.017282264,0.24253425,0.383227748,0.356955739
0.01740755,0.242318065,0.383147282,0.357127103
0.01753242,0.242101793,0.383066928,0.357298859
0.017656863,0.241885463,0.382986686,0.357470989
0.017780868,0.241669101,0.382906556,0.357643474
0.017904426,0.241452738,0.38282654,0.357816296
0.018027527,0.241236399,0.382746638,0.357989436
0.018150162,0.241020115,0.38266685,0.358162873
0.018272321,0.240803911,0.38258718,0.358336588
0.018393995,0.240587816,0.382507628,0.358510562
0.018515175,0.240371854,0.382428196,0.358684775
0.018635853,0.240156051,0.382348885,0.358859212
0.018756019,0.239940428,0.382269698,0.359033854
0.018875666,0.239725009,0.382190636,0.359208689
0.018994786,0.239509812,0.382111699,0.359383703
0.01911337,0.239294861,0.382032887,0.359558882
0.019231412,0.239080175,0.381954202,0.359734212
0.019348903,0.238865775,0.381875643,0.359909678
0.019465838,0.238651683,0.381797213,0.360085266
0.019582209,0.238437919,0.38171891,0.360260961
0.019698011,0.238224504,0.381640738,0.360436747
0.019813237,0.238011456,0.381562697,0.36061261
0.019927881,0.237798795,0.381484791,0.360788533
0.020041937,0.237586537,0.381407026,0.360964499
0.0201554,0.237374699,0.38132941,0.361140491
0.020268263,0.237163296,0.38125195,0.361316491
0.020380521,0.236952343,0.381174659,0.361492477
0.020492168,0.236741853,0.381097546,0.361668433
0.0206032,0.236531842,0.381020622,0.361844336
0.020713609,0.236322322,0.3809439,0.362020169
0.020823391,0.236113306,0.38086739,0.362195912
0.020932542,0.235904808,0.380791105,0.362371545
0.021041054,0.235696842,0.380715056,0.362547048
0.021148923,0.235489421,0.380639252,0.362722404
0.021256145,0.235282558,0.380563702,0.362897595
0.021362713,0.235076264,0.380488415,0.363072608
0.021468623,0.23487055,0.380413398,0.363247429
0.021573868,0.234665428,0.380338659,0.363422044
0.021678445,0.234460908,0.380264208,0.36359644
0.021782348,0.234257,0.380190052,0.3637706
0.021885572,0.234053714,0.380116203,0.363944511
0.021988112,0.23385106,0.380042671,0.364118157
0.022089964,0.233649047,0.379969466,0.364291523
0.022191123,0.233447684,0.379896598,0.364464595
0.022291585,0.233246981,0.379824075,0.364637359
0.022391344,0.233046945,0.379751907,0.364809803
0.022490397,0.232847585,0.379680103,0.364981915
0.022588738,0.23264891,0.379608671,0.365153681
0.022686365,0.232450927,0.379537618,0.36532509
0.022783271,0.232253644,0.379466954,0.365496131
0.022879454,0.232057067,0.379396684,0.365666795
0.022974909,0.231861202,0.379326817,0.365837071
0.023069633,0.231666056,0.37925736,0.366006951
0.023163622,0.231471634,0.379188319,0.366176425
0.023256873,0.231277944,0.379119701,0.366345482
0.023349381,0.231084992,0.379051512,0.366514115
0.023441144,0.230892785,0.378983755,0.366682316
0.02353216,0.230701329,0.378916436,0.366850075
0.023622424,0.230510631,0.378849558,0.367017387
0.023711936,0.230320696,0.378783125,0.367184243
0.023800691,0.23013153,0.378717143,0.367350636
0.023888687,0.229943136,0.378651619,0.367516558
0.023975921,0.229755517,0.378586563,0.367681998
0.024062391,0.229568677,0.378521983,0.367846948
0.024148095,0.229382618,0.378457889,0.368011398
0.02423303,0.229197343,0.378394289,0.368175338
0.024317194,0.229012856,0.37833119,0.36833876
0.024400587,0.228829159,0.378268601,0.368501654
0.024483205,0.228646255,0.378206528,0.368664012
0.024565049,0.228464148,0.378144979,0.368825823
0.024646117,0.22828284,0.378083963,0.368987079
0.024726408,0.228102335,0.378023488,0.369147769
0.024805923,0.227922634,0.37796356,0.369307884
0.024884661,0.22774374,0.377904187,0.369467412
0.024962622,0.227565655,0.377845377,0.369626345
0.025039809,0.227388384,0.377787137,0.36978467
0.025116223,0.227211927,0.377729472,0.369942378
0.025191864,0.227036288,0.37767239,0.370099458
0.025266735,0.226861469,0.377615894,0.370255902
0.025340836,0.226687472,0.377559989,0.370411703
0.025414171,0.226514296,0.377504679,0.370566853
0.025486742,0.226341942,0.377449968,0.370721348
0.02555855,0.226170407,0.377395858,0.370875185
0.025629598,0.225999691,0.377342351,0.371028361
0.025699888,0.225829789,0.377289447,0.371180877
0.025769423,0.225660696,0.377237147,0.371332734
0.025838204,0.225492406,0.377185454,0.371483937
0.025906234,0.225324912,0.377134366,0.371634487
0.025973516,0.22515821,0.377083883,0.371784391
0.026040051,0.224992291,0.377034006,0.371933652
0.026105841,0.22482715,0.376984732,0.372082277
0.02617089,0.22466278,0.376936059,0.372230271
0.026235199,0.224499174,0.376887985,0.372377642
0.026298771,0.224336325,0.376840508,0.372524396
0.026361609,0.224174226,0.376793626,0.37267054
0.026423715,0.224012867,0.376747339,0.372816079
0.026485093,0.223852239,0.376701648,0.37296102
0.026545744,0.223692331,0.376656557,0.373105368
0.026605672,0.223533133,0.376612068,0.373249126
0.02666488,0.223374634,0.376568183,0.373392302
0.026723371,0.223216824,0.376524905,0.3735349
0.026781148,0.223059692,0.376482234,0.373676926
0.026838214,0.222903229,0.37644017,0.373818387
0.026894572,0.222747424,0.376398714,0.373959291
0.026950224,0.222592268,0.376357863,0.374099645
0.027005176,0.222437754,0.376317614,0.374239456
0.027059428,0.222283875,0.376277963,0.374378733
0.027112986,0.222130624,0.376238906,0.374517485
0.027165853,0.221977993,0.376200435,0.37465572
0.027218031,0.221825973,0.376162543,0.374793453
0.027269526,0.221674556,0.376125221,0.374930698
0.027320339,0.221523732,0.376088456,0.375067473
0.027370474,0.221373493,0.376052236,0.375203797
0.027419934,0.221223829,0.37601655,0.375339688
0.027468722,0.221074731,0.375981384,0.375475164
0.02751684,0.22092619,0.375946726,0.375610245
0.027564291,0.220778198,0.375912562,0.37574495
0.027611078,0.220630746,0.37587888,0.375879296
0.027657204,0.220483827,0.375845667,0.376013303
0.027702672,0.220337431,0.375812909,0.376146988
0.027747485,0.22019155,0.375780596,0.376280369
0.027791647,0.220046177,0.375748715,0.376413462
0.027835161,0.219901306,0.375717253,0.376546281
0.02787803,0.219756931,0.375686197,0.376678842
0.02792026,0.219613047,0.375655533,0.376811161
0.027961853,0.219469648,0.375625244,0.376943254
0.028002814,0.219326729,0.375595318,0.377075139
0.028043147,0.219184285,0.375565737,0.377206831
0.028082856,0.21904231,0.375536487,0.377338347
0.028121946,0.218900801,0.375507553,0.377469701
0.028160422,0.218759751,0.375478918,0.37760091
0.028198289,0.218619155,0.375450567,0.377731989
0.028235552,0.218479007,0.375422485,0.377862955
0.028272217,0.218339303,0.375394658,0.377993822
0.028308286,0.218200036,0.375367072,0.378124606
0.028343766,0.218061201,0.375339712,0.378255321
0.028378661,0.217922791,0.375312566,0.378385982
0.028412976,0.217784799,0.37528562,0.378516605
0.028446715,0.21764722,0.375258863,0.378647202
0.028479884,0.217510048,0.375232282,0.378777787
0.028512486,0.217373279,0.375205865,0.378908369
0.028544528,0.21723691,0.375179603,0.379038959
0.028576012,0.217100936,0.375153486,0.379169566
0.028606944,0.216965356,0.375127503,0.379300197
0.028637327,0.216830169,0.375101646,0.379430858
0.028667166,0.216695374,0.375075904,0.379561556
0.028696464,0.216560972,0.375050268,0.379692296
0.028725226,0.216426963,0.375024728,0.379823084
0.028753456,0.216293348,0.374999273,0.379953923
0.028781158,0.216160127,0.374973897,0.380084818
0.028808338,0.216027301,0.37494859,0.380215771
0.028834998,0.215894871,0.374923347,0.380346784
0.028861142,0.215762839,0.374898161,0.380477857
0.028886776,0.215631206,0.374873026,0.380608991
0.028911903,0.215499977,0.374847934,0.380740186
0.028936527,0.215369155,0.374822878,0.38087144
0.028960652,0.215238748,0.374797852,0.381002749
0.02898428,0.215108761,0.374772849,0.38113411
0.029007416,0.214979199,0.374747864,0.381265521
0.029030064,0.214850068,0.37472289,0.381396979
0.029052227,0.214721374,0.374697919,0.38152848
0.029073908,0.214593125,0.374672944,0.381660023
0.029095112,0.214465325,0.374647957,0.381791605
0.029115843,0.214337982,0.374622952,0.381923223
0.029136104,0.214211099,0.374597924,0.382054874
0.029155899,0.214084682,0.374572868,0.382186552
0.029175232,0.213958734,0.37454778,0.382318254
0.029194106,0.21383326,0.374522658,0.382449976
0.029212526,0.213708264,0.374497497,0.382581713
0.029230494,0.213583751,0.374472294,0.382713461
0.029248014,0.213459725,0.374447046,0.382845215
0.02926509,0.213336192,0.37442175,0.382976968
0.029281724,0.213213157,0.374396404,0.383108715
0.029297921,0.213090626,0.374371007,0.383240446
0.029313682,0.212968605,0.374345559,0.383372154
0.02932901,0.212847096,0.374320063,0.38350383
0.02934391,0.212726105,0.374294519,0.383635465
0.029358383,0.212605635,0.374268932,0.38376705
0.029372432,0.21248569,0.374243305,0.383898573
0.02938606,0.212366273,0.374217643,0.384030025
0.029399269,0.212247387,0.374191949,0.384161394
0.029412064,0.212129037,0.374166228,0.384292672
0.029424445,0.212011224,0.374140485,0.384423847
0.029436416,0.211893953,0.374114722,0.384554908
0.029447981,0.211777228,0.374088945,0.384685846
0.02945914,0.211661054,0.374063157,0.384816649
0.029469898,0.211545437,0.374037362,0.384947304
0.029480256,0.21143038,0.374011562,0.385077802
0.029490218,0.211315889,0.37398576,0.385208133
0.029499786,0.21120197,0.373959957,0.385338287
0.029508963,0.211088628,0.373934152,0.385468257
0.029517753,0.210975869,0.373908343,0.385598035
0.029526157,0.210863699,0.373882527,0.385727617
0.029534178,0.210752125,0.3738567,0.385856997
0.029541819,0.210641152,0.373830858,0.385986171
0.029549083,0.210530786,0.373804997,0.386115134
0.029555973,0.210421032,0.373779115,0.38624388
0.029562491,0.210311897,0.373753208,0.386372404
0.029568641,0.210203384,0.373727273,0.386500701
0.029574426,0.2100955,0.373701308,0.386628766
0.029579849,0.209988247,0.37367531,0.386756594
0.029584912,0.209881631,0.373649276,0.386884181
0.029589619,0.209775654,0.373623201,0.387011525
0.029593974,0.209670322,0.373597083,0.387138622
0.029597979,0.209565637,0.373570917,0.387265467
0.029601637,0.209461604,0.373544699,0.38739206
0.029604951,0.209358228,0.373518424,0.387518397
0.029607925,0.209255513,0.373492084,0.387644478
0.02961056,0.209153464,0.373465673,0.387770302
0.02961286,0.209052087,0.373439185,0.387895868
0.029614828,0.208951385,0.373412612,0.388021175
0.029616466,0.208851363,0.373385949,0.388146222
0.029617776,0.208752024,0.373359191,0.388271009
0.029618761,0.208653372,0.373332334,0.388395532
0.029619425,0.20855541,0.373305379,0.388519786
0.029619768,0.208458141,0.373278326,0.388643766
0.029619792,0.208361568,0.373251175,0.388767464
0.0296195,0.208265696,0.373223932,0.388890872
0.029618893,0.208170527,0.373196599,0.38901398
0.029617973,0.208076063,0.373169186,0.389136779
0.02961674,0.207982305,0.373141696,0.389259259
0.029615195,0.207889253,0.373114138,0.389381415
0.02961334,0.207796907,0.373086515,0.389503238
0.029611175,0.207705265,0.373058836,0.389624724
0.029608703,0.207614327,0.373031106,0.389745864
0.029605922,0.207524091,0.373003335,0.389866652
0.029602835,0.207434555,0.37297553,0.38998708
0.029599442,0.207345719,0.3729477,0.390107139
0.029595744,0.207257578,0.372919855,0.390226823
0.029591742,0.207170131,0.372892003,0.390346124
0.029587436,0.207083373,0.372864155,0.390465036
0.029582828,0.2069973,0.372836319,0.390583553
0.029577919,0.20691191,0.372808504,0.390701667
0.02957271,0.206827197,0.372780721,0.390819372
0.029567202,0.206743159,0.372752981,0.390936659
0.029561397,0.20665979,0.372725292,0.391053521
0.029555295,0.206577088,0.372697664,0.391169953
0.029548899,0.206495049,0.372670106,0.391285947
0.029542209,0.206413666,0.372642625,0.391401499
0.029535227,0.206332938,0.372615231,0.391516604
0.029527955,0.206252858,0.37258793,0.391631258
0.029520392,0.206173421,0.37256073,0.391745457
0.029512541,0.206094622,0.372533637,0.3918592
0.029504403,0.206016454,0.372506659,0.391972484
0.029495978,0.205938912,0.372479804,0.392085306
0.029487268,0.205861988,0.372453082,0.392197662
0.029478275,0.205785674,0.372426503,0.392309548
0.029468997,0.205709963,0.372400081,0.392420958
0.029459438,0.205634846,0.372373829,0.392531887
0.029449597,0.205560316,0.372347761,0.392642326
0.029439476,0.205486367,0.372321892,0.392752266
0.029429075,0.205412992,0.372296236,0.392861696
0.029418396,0.205340187,0.372270809,0.392970608
0.029407439,0.205267945,0.372245625,0.393078991
0.029396206,0.20519626,0.3722207,0.393186835
0.029384697,0.205125127,0.372196047,0.393294129
0.029372914,0.20505454,0.372171681,0.393400864
0.029360859,0.204984493,0.372147618,0.39350703
0.029348531,0.204914981,0.372123871,0.393612618
0.029335932,0.204845995,0.372100454,0.393717619
0.029323064,0.204777529,0.372077383,0.393822023
0.029309929,0.204709575,0.372054672,0.393925825
0.029296528,0.204642125,0.372032334,0.394029014
0.029282864,0.204575169,0.372010385,0.394131582
0.029268939,0.204508699,0.37198884,0.394233521
0.029254755,0.204442706,0.371967717,0.394334822
0.029240314,0.20437718,0.371947029,0.394435476
0.029225619,0.204312114,0.371926793,0.394535474
0.02921067,0.2042475,0.371907024,0.394634806
0.029195471,0.204183333,0.371887735,0.394733462
0.029180022,0.204119606,0.371868939,0.394831433
0.029164327,0.204056315,0.37185065,0.394928708
0.029148386,0.203993457,0.371832879,0.395025278
0.029132202,0.203931027,0.371815638,0.395121133
0.029115777,0.203869023,0.371798938,0.395216263
0.029099112,0.203807439,0.371782791,0.395310658
0.02908221,0.203746273,0.371767208,0.395404309
0.029065072,0.203685521,0.3717522,0.395497207
0.029047701,0.203625178,0.371737777,0.395589344
0.029030097,0.20356524,0.37172395,0.395680712
0.029012264,0.203505702,0.37171073,0.395771303
0.028994203,0.203446561,0.371698128,0.395861108
0.028975916,0.203387811,0.371686154,0.395950119
0.028957405,0.203329447,0.37167482,0.396038328
0.02893867,0.203271465,0.371664138,0.396125726
0.028919715,0.20321386,0.371654122,0.396212303
0.028900539,0.203156629,0.371644784,0.396298048
0.028881144,0.203099766,0.371636137,0.396382953
0.028861533,0.203043266,0.371628193,0.396467008
0.028841706,0.202987126,0.371620963,0.396550206
0.028821665,0.202931337,0.371614455,0.396632543
0.028801413,0.202875895,0.371608678,0.396714013
0.028780951,0.202820794,0.371603639,0.396794616
0.028760282,0.202766027,0.371599343,0.396874349
0.028739406,0.202711588,0.371595794,0.396953211
0.028718327,0.202657473,0.371592998,0.397031202
0.028697046,0.202603677,0.371590956,0.397108321
0.028675566,0.202550193,0.371589673,0.397184568
0.028653889,0.202497018,0.371589151,0.397259942
0.028632018,0.202444148,0.371589391,0.397334443
0.028609954,0.202391578,0.371590397,0.397408071
0.028587702,0.202339303,0.371592169,0.397480826
0.028565262,0.202287319,0.371594712,0.397552707
0.028542639,0.202235621,0.371598026,0.397623715
0.028519833,0.202184202,0.371602114,0.397693851
0.028496847,0.202133057,0.371606981,0.397763115
0.028473684,0.202082179,0.371612628,0.397831508
0.028450345,0.20203156,0.371619062,0.397899033
0.028426832,0.201981192,0.371626284,0.397965691
0.028403146,0.201931067,0.371634301,0.398031486
0.02837929,0.201881174,0.371643115,0.398096421
0.028355265,0.201831508,0.371652729,0.398160498
0.028331074,0.201782059,0.371663147,0.39822372
0.028306718,0.20173282,0.371674373,0.398286089
0.028282199,0.201683782,0.371686412,0.398347607
0.028257519,0.201634938,0.371699266,0.398408277
0.028232681,0.20158628,0.371712939,0.398468101
0.028207686,0.201537799,0.371727434,0.398527082
0.028182535,0.201489488,0.371742754,0.398585223
0.028157232,0.201441339,0.371758901,0.398642528
0.028131779,0.201393346,0.371775876,0.398699
0.028106176,0.2013455,0.371793683,0.398754641
0.028080427,0.201297796,0.371812325,0.398809452
0.028054532,0.201250229,0.371831806,0.398863433
0.028028495,0.201202792,0.37185213,0.398916583
0.028002317,0.20115548,0.371873303,0.3989689
0.027976,0.201108291,0.371895327,0.399020382
0.027949546,0.201061218,0.371918207,0.39907103
0.027922956,0.201014258,0.371941946,0.399120841
0.027896232,0.200967405,0.371966547,0.399169816
0.027869376,0.200920656,0.371992012,0.399217955
0.02784239,0.200874007,0.372018343,0.39926526
0.027815276,0.200827453,0.372045538,0.399311733
0.027788034,0.20078099,0.372073597,0.399357379
0.027760666,0.200734615,0.372102515,0.399402204
0.027733173,0.200688322,0.372132291,0.399446214
0.027705557,0.200642109,0.372162921,0.399489413
0.027677819,0.200595973,0.372194401,0.399531807
0.027649961,0.20054991,0.372226728,0.399573401
0.027621983,0.200503919,0.372259899,0.399614198
0.027593888,0.200457999,0.37229391,0.399654203
0.027565676,0.200412147,0.372328758,0.399693419
0.027537348,0.200366363,0.372364439,0.399731849
0.027508908,0.200320644,0.372400949,0.399769499
0.027480354,0.200274989,0.372438284,0.399806372
0.02745169,0.200229395,0.37247644,0.399842475
0.027422917,0.200183859,0.372515411,0.399877813
0.027394035,0.200138379,0.372555194,0.399912392
0.027365048,0.200092951,0.372595781,0.399946219
0.027335956,0.200047572,0.372637167,0.399979305
0.027306761,0.200002239,0.372679342,0.400011658
0.027277465,0.199956947,0.372722299,0.400043289
0.027248071,0.199911695,0.372766027,0.400074208
0.027218579,0.199866478,0.372810517,0.400104426
0.027188992,0.199821296,0.37285576,0.400133952
0.027159311,0.199776146,0.372901747,0.400162796
0.027129539,0.199731026,0.372948468,0.400190967
0.027099677,0.199685934,0.372995913,0.400218476
0.027069726,0.199640868,0.373044073,0.400245333
0.027039689,0.199595824,0.373092939,0.400271547
0.027009568,0.199550802,0.373142502,0.400297128
0.026979363,0.199505798,0.373192753,0.400322087
0.026949077,0.19946081,0.373243681,0.400346433
0.026918711,0.199415835,0.373295277,0.400370177
0.026888268,0.19937087,0.373347532,0.40039333
0.026857748,0.199325914,0.373400435,0.400415904
0.026827154,0.199280963,0.373453975,0.400437908
0.026796487,0.199236016,0.373508143,0.400459354
0.026765749,0.199191072,0.373562928,0.40048025
0.026734942,0.19914613,0.373618323,0.400500604
0.026704068,0.199101192,0.37367432,0.40052042
0.026673127,0.199056258,0.373730911,0.400539703
0.026642123,0.199011331,0.373788092,0.400558455
0.026611055,0.198966412,0.373845859,0.400576674
0.026579926,0.198921503,0.373904208,0.400594363
0.026548737,0.198876604,0.373963137,0.400611522
0.026517489,0.198831718,0.374022642,0.400628151
0.026486185,0.198786844,0.374082721,0.40064425
0.026454825,0.198741984,0.37414337,0.400659821
0.02642341,0.198697139,0.374204586,0.400674864
0.026391944,0.19865231,0.374266366,0.40068938
0.026360425,0.198607498,0.374328706,0.40070337
0.026328857,0.198562706,0.374391602,0.400716835
0.02629724,0.198517935,0.37445505,0.400729775
0.026265575,0.198473189,0.374519045,0.40074219
0.026233864,0.198428468,0.374583585,0.400754082
0.026202109,0.198383776,0.374648665,0.40076545
0.026170309,0.198339115,0.374714278,0.400776297
0.026138468,0.198294486,0.374780422,0.400786624
0.026106585,0.198249893,0.37484709,0.400796432
0.026074664,0.198205337,0.374914277,0.400805722
0.026042705,0.198160821,0.374981979,0.400814495
0.02601071,0.198116347,0.375050192,0.400822751
0.02597868,0.198071919,0.37511891,0.400830491
0.025946618,0.198027537,0.37518813,0.400837715
0.025914525,0.197983206,0.375257844,0.400844424
0.025882403,0.197938927,0.375328048,0.400850622
0.025850252,0.197894704,0.375398735,0.400856309
0.025818076,0.197850537,0.375469897,0.40086149
0.025785874,0.197806428,0.375541528,0.40086617
0.025753649,0.19776238,0.375613619,0.400870352
0.025721402,0.197718391,0.375686165,0.400874043
0.025689134,0.197674462,0.375759158,0.400877246
0.025656847,0.197630595,0.375832591,0.400879967
0.025624542,0.197586789,0.375906459,0.400882211
0.025592221,0.197543043,0.375980756,0.40088398
0.025559885,0.19749936,0.376055477,0.400885279
0.025527535,0.197455737,0.376130619,0.400886109
0.025495173,0.197412176,0.376206177,0.400886474
0.0254628,0.197368676,0.376282148,0.400886376
