0.152752681,0.2170069,0.274999867,0.355240552
0.152766422,0.216799677,0.275058301,0.3553756
0.152780531,0.216593841,0.275115652,0.355509976
0.152795005,0.216389416,0.275171909,0.35564367
0.152809843,0.216186426,0.275227057,0.355776674
0.152825039,0.215984897,0.275281085,0.355908979
0.152840592,0.215784853,0.275333979,0.356040576
0.152856497,0.215586322,0.275385726,0.356171456
0.152872752,0.215389329,0.275436311,0.356301609
0.152889353,0.215193901,0.275485722,0.356431025
0.152906296,0.215000063,0.275533945,0.356559695
0.15292358,0.21480784,0.27558097,0.35668761
0.152941198,0.214617258,0.275626782,0.356814762
0.152959149,0.21442834,0.27567137,0.356941141
0.152977428,0.214241111,0.275714722,0.357066739
0.152996032,0.214055593,0.275756827,0.357191549
0.153014955,0.21387181,0.275797673,0.357315562
0.153034196,0.213689785,0.275837249,0.35743877
0.153053749,0.213509541,0.275875545,0.357561165
0.153073612,0.213331099,0.275912549,0.357682739
0.153093781,0.213154483,0.275948251,0.357803485
0.153114252,0.212979713,0.275982639,0.357923396
0.153135021,0.212806811,0.276015705,0.358042463
0.153156085,0.212635796,0.27604744,0.358160679
0.153177439,0.21246669,0.276077834,0.358278037
0.15319908,0.212299512,0.27610688,0.358394528
0.153221003,0.212134281,0.276134568,0.358510148
0.153243202,0.211971017,0.27616089,0.358624891
0.153265673,0.211809738,0.276185838,0.358738751
0.153288412,0.21165046,0.276209403,0.358851726
0.153311411,0.211493201,0.276231577,0.358963811
0.153334667,0.211337976,0.276252351,0.359075005
0.153358174,0.211184803,0.276271717,0.359185307
0.153381925,0.211033695,0.276289666,0.359294714
0.153405915,0.210884669,0.276306191,0.359403225
0.153430139,0.210737739,0.276321283,0.35951084
0.153454591,0.210592919,0.276334934,0.359617556
0.153479265,0.210450226,0.276347137,0.359723372
0.153504156,0.210309672,0.276357885,0.359828287
0.153529258,0.210171273,0.27636717,0.359932299
0.153554566,0.210035043,0.276374984,0.360035408
0.153580074,0.209900993,0.276381321,0.360137612
0.153605777,0.209769137,0.276386174,0.360238911
0.15363167,0.209639488,0.276389537,0.360339305
0.153657746,0.209512058,0.276391403,0.360438794
0.153684,0.209386857,0.276391767,0.360537375
0.153710429,0.209263899,0.276390623,0.360635049
0.153737028,0.209143194,0.276387965,0.360731812
0.153763796,0.209024753,0.276383787,0.360827664
0.15379073,0.208908586,0.276378083,0.360922601
0.153817828,0.208794703,0.276370848,0.361016621
0.153845091,0.208683112,0.276362076,0.361109721
0.153872521,0.20857382,0.276351759,0.3612019
0.153900121,0.208466834,0.276339891,0.361293154
0.153927894,0.20836216,0.276326464,0.361383482
0.153955846,0.208259802,0.276311469,0.361472882
0.153983981,0.208159767,0.276294901,0.361561351
0.154012304,0.208062058,0.276276751,0.361648886
0.154040818,0.207966682,0.276257015,0.361735486
0.154069527,0.207873641,0.276235685,0.361821147
0.154098438,0.207782939,0.276212756,0.361905867
0.154127554,0.207694579,0.276188223,0.361989643
0.154156882,0.207608564,0.276162082,0.362072473
0.154186425,0.207524895,0.276134327,0.362154353
0.154216191,0.207443573,0.276104954,0.362235282
0.154246184,0.2073646,0.276073961,0.362315256
0.154276409,0.207287976,0.276041342,0.362394273
0.154306873,0.207213703,0.276007094,0.36247233
0.154337579,0.207141782,0.275971216,0.362549423
0.154368533,0.207072214,0.275933704,0.362625549
0.154399739,0.207004998,0.275894558,0.362700705
0.154431201,0.206940135,0.275853777,0.362774887
0.154462925,0.206877625,0.275811359,0.362848091
0.154494912,0.206817469,0.275767307,0.362920313
0.154527168,0.206759665,0.27572162,0.362991546
0.154559696,0.206704214,0.275674302,0.363061788
0.154592499,0.206651115,0.275625353,0.363131033
0.154625583,0.206600366,0.275574776,0.363199275
0.15465895,0.206551967,0.275522574,0.36326651
0.154692604,0.206505918,0.275468748,0.36333273
0.154726547,0.206462223,0.275413299,0.363397931
0.154760783,0.206420885,0.27535623,0.363462103
0.154795313,0.206381906,0.275297543,0.363525238
0.154830138,0.206345291,0.275237242,0.363587329
0.15486526,0.206311043,0.275175332,0.363648365
0.154900684,0.206279163,0.275111814,0.363708339
0.154936412,0.206249654,0.275046692,0.363767242
0.154972449,0.206222517,0.27497997,0.363825064
0.1550088,0.206197755,0.27491165,0.363881795
0.15504547,0.206175369,0.274841735,0.363937427
0.155082463,0.206155363,0.274770228,0.363991947
0.155119786,0.206137739,0.274697131,0.364045344
0.155157442,0.206122501,0.27462245,0.364097608
0.155195435,0.206109649,0.274546187,0.364148728
0.155233771,0.206099187,0.274468349,0.364198694
0.155272452,0.206091114,0.274388938,0.364247496
0.155311483,0.206085433,0.274307961,0.364295124
0.155350866,0.206082144,0.274225422,0.364341569
0.155390603,0.206081248,0.274141326,0.364386822
0.155430698,0.206082744,0.274055681,0.364430877
0.155471151,0.206086632,0.273968491,0.364473725
0.155511963,0.206092911,0.273879764,0.364515362
0.155553135,0.20610158,0.273789505,0.36455578
0.155594666,0.206112638,0.273697721,0.364594976
0.155636554,0.206126085,0.273604416,0.364632945
0.155678798,0.206141922,0.273509593,0.364669687
0.155721394,0.20616015,0.273413256,0.3647052
0.155764339,0.20618077,0.273315406,0.364739485
0.15580763,0.206203783,0.273216048,0.364772539
0.155851261,0.20622919,0.273115184,0.364804365
0.155895228,0.20625699,0.273012818,0.364834964
0.155939525,0.206287181,0.272908956,0.364864337
0.155984148,0.206319763,0.272803601,0.364892488
0.15602909,0.206354734,0.272696757,0.36491942
0.156074346,0.206392091,0.272588426,0.364945137
0.15611991,0.206431832,0.272478611,0.364969647
0.156165775,0.206473954,0.272367315,0.364992956
0.156211934,0.206518454,0.27225454,0.365015073
0.156258379,0.206565327,0.272140288,0.365036006
0.156305105,0.206614569,0.272024564,0.365055762
0.156352103,0.206666177,0.271907372,0.365074348
0.156399368,0.206720145,0.271788715,0.365091772
0.156446895,0.206776468,0.271668597,0.36510804
0.15649468,0.206835141,0.27154702,0.365123159
0.156542719,0.206896158,0.271423988,0.365137135
0.156591008,0.206959512,0.271299501,0.365149978
0.156639543,0.207025195,0.271173561,0.365161701
0.156688319,0.207093197,0.271046169,0.365172315
0.15673733,0.20716351,0.270917326,0.365181834
0.156786572,0.207236124,0.270787035,0.365190269
0.15683604,0.207311029,0.270655298,0.365197633
0.156885732,0.207388214,0.270522116,0.365203938
0.156935646,0.207467667,0.270387493,0.365209194
0.156985781,0.207549379,0.270251431,0.36521341
0.157036134,0.20763334,0.270113935,0.365216591
0.157086702,0.207719542,0.269975015,0.365218741
0.157137482,0.207807976,0.26983468,0.365219862
0.157188471,0.207898636,0.269692943,0.365219951
0.157239665,0.207991516,0.269549815,0.365219003
0.157291064,0.208086615,0.269405309,0.365217011
0.157342663,0.208183936,0.269259436,0.365213965
0.15739446,0.208283481,0.269112204,0.365209855
0.157446452,0.208385253,0.268963624,0.365204672
0.157498634,0.208489253,0.268813706,0.365198407
0.157551001,0.208595483,0.268662463,0.365191053
0.15760355,0.208703943,0.268509908,0.365182599
0.157656275,0.208814634,0.268356055,0.365173036
0.157709169,0.208927561,0.268200919,0.36516235
0.157762226,0.209042728,0.268044517,0.365150529
0.157815438,0.209160137,0.267886863,0.365137562
0.157868797,0.209279791,0.267727973,0.365123438
0.157922298,0.209401691,0.267567862,0.365108149
0.157975931,0.209525836,0.267406546,0.365091687
0.158029688,0.209652221,0.267244042,0.365074048
0.158083558,0.209780842,0.267080366,0.365055234
0.15813753,0.209911691,0.26691553,0.36503525
0.158191592,0.21004476,0.266749548,0.3650141
0.158245735,0.21018004,0.266582437,0.364991788
0.158299947,0.210317526,0.26641421,0.364968317
0.158354217,0.210457214,0.266244881,0.364943688
0.158408532,0.210599102,0.266074465,0.364917902
0.158462879,0.21074319,0.265902974,0.364890958
0.158517244,0.210889477,0.265730423,0.364862856
0.158571616,0.211037961,0.265556826,0.364833597
0.158625978,0.21118864,0.2653822,0.364803181
0.158680318,0.211341513,0.265206559,0.36477161
0.158734622,0.211496576,0.265029919,0.364738884
0.158788875,0.211653828,0.264852294,0.364705004
0.158843063,0.211813267,0.264673699,0.364669971
0.158897172,0.211974892,0.264494149,0.364633786
0.15895119,0.212138698,0.26431366,0.364596452
0.159005103,0.212304684,0.264132246,0.364557968
0.159058895,0.212472844,0.263949923,0.364518338
0.15911255,0.212643175,0.263766708,0.364477567
0.159166049,0.21281567,0.263582619,0.364435662
0.159219374,0.212990323,0.263397675,0.364392628
0.159272508,0.213167123,0.2632119,0.364348469
0.159325432,0.213346062,0.263025316,0.36430319
0.159378127,0.213527125,0.262837951,0.364256798
0.159430573,0.213710298,0.262649832,0.364209298
0.15948275,0.213895564,0.262460985,0.364160701
0.159534636,0.214082904,0.262271438,0.364111022
0.159586213,0.214272295,0.262081215,0.364060277
0.159637459,0.214463715,0.261890341,0.364008485
0.159688355,0.214657137,0.26169884,0.363955667
0.159738881,0.214852536,0.261506735,0.363901849
0.159789015,0.215049882,0.261314047,0.363847057
0.159838737,0.215249145,0.261120797,0.36379132
0.159888027,0.215450295,0.260927008,0.36373467
0.159936866,0.215653299,0.2607327,0.363677136
0.159985236,0.215858122,0.260537894,0.363618748
0.160033119,0.216064732,0.260342612,0.363559538
0.160080497,0.216273092,0.260146874,0.363499537
0.160127354,0.216483165,0.259950701,0.36343878
0.160173672,0.216694913,0.259754112,0.363377303
0.160219434,0.216908297,0.259557127,0.363315141
0.160264624,0.217123279,0.259359763,0.363252334
0.160309221,0.21733982,0.259162037,0.363188921
0.160353208,0.21755788,0.258963968,0.363124943
0.160396566,0.217777419,0.258765575,0.36306044
0.160439274,0.217998393,0.258566877,0.362995456
0.160481315,0.218220756,0.258367896,0.362930033
0.160522669,0.218444462,0.258168652,0.362864217
0.160563322,0.21866946,0.257969169,0.36279805
0.16060326,0.218895701,0.257769466,0.362731573
0.16064247,0.219123136,0.257569566,0.362664828
0.16068094,0.219351715,0.257369491,0.362597854
0.160718661,0.219581388,0.257169266,0.362530685
0.16075562,0.219812106,0.256968914,0.36246336
0.160791808,0.220043819,0.256768462,0.36239591
0.160827216,0.220276477,0.256567935,0.362328372
0.160861832,0.220510028,0.256367362,0.362260779
0.160895648,0.220744422,0.256166767,0.362193163
0.160928656,0.220979608,0.255966179,0.362125557
0.160960846,0.221215536,0.255765623,0.362057996
0.160992209,0.221452155,0.255565127,0.361990509
0.161022738,0.221689416,0.255364719,0.361923127
0.161052423,0.221927271,0.255164426,0.36185588
0.161081254,0.22216567,0.254964278,0.361788797
0.161109223,0.222404569,0.254764302,0.361721906
0.161136319,0.222643923,0.254564525,0.361655234
0.161162534,0.222883688,0.254364973,0.361588806
0.161187856,0.223123823,0.254165674,0.361522647
0.161212277,0.22336429,0.253966655,0.361456779
0.161235784,0.22360505,0.253767943,0.361391223
0.161258367,0.223846069,0.253569568,0.361325997
0.161280012,0.224087312,0.253371557,0.361261119
0.161300707,0.224328749,0.253173939,0.361196605
0.161320438,0.224570348,0.252976742,0.361132472
0.16133919,0.224812078,0.252779993,0.361068739
0.161356948,0.225053908,0.252583718,0.361005426
0.161373698,0.225295809,0.252387941,0.360942551
0.161389424,0.225537754,0.252192689,0.360880134
0.16140411,0.225779717,0.251997982,0.36081819
0.161417741,0.226021677,0.251803846,0.360756736
0.161430301,0.226263608,0.251610303,0.360695788
0.161441773,0.22650549,0.251417375,0.360635362
0.161452143,0.226747299,0.251225085,0.360575473
0.161461394,0.226989013,0.251033454,0.360516139
0.161469513,0.227230609,0.250842502,0.360457376
0.161476485,0.227472063,0.250652251,0.360399201
0.161482294,0.227713353,0.25046272,0.360341633
0.16148693,0.227954456,0.250273928,0.360284687
0.16149038,0.228195348,0.250085892,0.36022838
0.161492633,0.228436007,0.24989863,0.360172729
0.16149368,0.228676411,0.249712157,0.360117751
0.161493513,0.228916538,0.249526489,0.360063461
0.161492124,0.229156364,0.249341638,0.360009874
0.161489511,0.229395869,0.249157617,0.359957003
0.161485671,0.229635031,0.248974437,0.359904861
0.161480603,0.229873829,0.248792108,0.35985346
0.161474309,0.230112243,0.248610638,0.35980281
0.161466793,0.230350253,0.248430032,0.359752922
0.161458056,0.230587837,0.248250297,0.359703809
0.161448105,0.230824976,0.248071438,0.35965548
0.161436948,0.231061648,0.24789346,0.359607945
0.161424594,0.231297829,0.24771637,0.359561208
0.161411057,0.231533497,0.247540173,0.359515272
0.16139635,0.23176863,0.247364878,0.359470142
0.161380489,0.232003203,0.24719049,0.359425819
0.161363486,0.232237192,0.247017018,0.359382304
0.161345358,0.232470572,0.246844471,0.359339599
0.161326118,0.23270332,0.246672857,0.359297705
0.161305784,0.232935411,0.246502185,0.35925662
0.16128437,0.233166821,0.246332466,0.359216343
0.161261893,0.233397525,0.24616371,0.359176872
0.161238369,0.233627498,0.245995928,0.359138205
0.161213817,0.233856716,0.24582913,0.359100338
0.161188252,0.234085154,0.245663325,0.359063269
0.161161691,0.23431279,0.245498524,0.359026995
0.161134152,0.234539599,0.245334737,0.358991512
0.161105649,0.234765559,0.245171972,0.358956819
0.1610762,0.234990648,0.245010239,0.358922913
0.16104582,0.235214845,0.244849543,0.358889792
0.161014524,0.235438127,0.24468989,0.35885746
0.160982328,0.235660472,0.244531282,0.358825918
0.160949246,0.235881857,0.244373724,0.358795173
0.160915294,0.236102261,0.244217216,0.358765229
0.160880488,0.236321664,0.244061761,0.358736087
0.160844842,0.236540048,0.243907359,0.358707751
0.160808372,0.236757397,0.243754011,0.35868022
0.160771092,0.236973695,0.243601716,0.358653496
0.16073302,0.237188927,0.243450474,0.358627579
0.16069417,0.237403077,0.243300282,0.358602471
0.160654558,0.237616131,0.24315114,0.358578172
0.160614199,0.237828074,0.243003044,0.358554683
0.160573107,0.238038892,0.242855994,0.358532007
0.160531296,0.238248571,0.242709987,0.358510145
0.160488781,0.238457098,0.242565024,0.358489097
0.160445572,0.238664458,0.242421104,0.358468866
0.160401684,0.238870641,0.242278226,0.35844945
0.160357127,0.239075635,0.24213639,0.358430849
0.160311912,0.239279429,0.241995595,0.358413063
0.160266052,0.239482016,0.241855841,0.358396092
0.160219556,0.239683385,0.241717128,0.358379932
0.160172436,0.23988353,0.241579455,0.35836458
0.160124702,0.240082445,0.24144282,0.358350034
0.160076364,0.240280126,0.241307223,0.358336288
0.160027432,0.240476569,0.241172659,0.35832334
0.159977914,0.240671772,0.241039126,0.358311189
0.159927821,0.240865729,0.240906619,0.358299832
0.159877159,0.241058436,0.240775135,0.35828927
0.159825936,0.241249889,0.240644674,0.358279501
0.15977416,0.241440082,0.240515232,0.358270526
0.159721838,0.241629008,0.24038681,0.358262343
0.159668978,0.241816663,0.240259406,0.358254952
0.159615584,0.242003044,0.240133019,0.358248352
0.159561664,0.242188149,0.240007647,0.358242541
0.159507221,0.242371978,0.239883287,0.358237514
0.159452258,0.242554532,0.239759939,0.35823327
0.159396781,0.242735812,0.239637602,0.358229805
0.159340793,0.242915818,0.239516273,0.358227117
0.159284299,0.243094551,0.239395952,0.358225199
0.159227305,0.243272013,0.239276636,0.358224046
0.159169815,0.243448207,0.239158327,0.358223651
0.159111836,0.243623136,0.239041024,0.358224005
0.159053373,0.243796802,0.238924727,0.358225098
0.158994431,0.24396921,0.238809438,0.358226921
0.158935017,0.24414036,0.238695157,0.358229466
0.158875136,0.244310256,0.238581886,0.358232722
0.158814794,0.2444789,0.238469625,0.358236681
0.158753998,0.244646292,0.238358377,0.358241332
0.158692755,0.244812434,0.238248144,0.358246667
0.158631071,0.244977325,0.238138928,0.358252675
0.158568954,0.245140966,0.23803073,0.35825935
0.158506411,0.245303355,0.237923551,0.358266683
0.158443451,0.245464491,0.237817391,0.358274667
0.15838008,0.245624375,0.237712249,0.358283296
0.158316309,0.245783004,0.237608127,0.358292561
0.158252144,0.245940378,0.237505022,0.358302456
0.158187594,0.246096497,0.237402934,0.358312975
0.158122668,0.24625136,0.237301861,0.358324111
0.158057373,0.246404965,0.237201802,0.35833586
0.157991718,0.246557312,0.237102757,0.358348214
0.15792571,0.246708399,0.237004723,0.358361168
0.157859357,0.246858224,0.236907699,0.35837472
0.157792666,0.247006786,0.236811683,0.358388865
0.157725643,0.247154083,0.236716673,0.358403601
0.157658296,0.247300111,0.236622668,0.358418926
0.15759063,0.24744487,0.236529664,0.358434836
0.157522655,0.247588357,0.236437659,0.358451329
0.157454376,0.247730571,0.236346651,0.358468403
0.157385801,0.24787151,0.236256637,0.358486052
0.157316936,0.248011176,0.236167615,0.358504273
0.15724779,0.248149567,0.236079581,0.358523062
0.15717837,0.248286684,0.235992534,0.358542413
0.157108683,0.248422526,0.235906469,0.358562322
0.157038738,0.248557093,0.235821383,0.358582785
0.156968545,0.248690384,0.235737272,0.358603798
0.156898111,0.248822398,0.235654132,0.358625358
0.156827446,0.248953132,0.235571958,0.358647463
0.156756557,0.249082587,0.235490745,0.35867011
0.156685454,0.249210762,0.235410488,0.358693296
0.156614146,0.249337656,0.235331181,0.358717017
0.156542641,0.249463269,0.235252821,0.358741269
0.156470947,0.249587604,0.235175402,0.358766048
0.156399073,0.24971066,0.235098918,0.358791349
0.156327028,0.249832441,0.235023365,0.358817167
0.156254818,0.249952951,0.234948735,0.358843495
0.156182452,0.250072198,0.234875024,0.358870327
0.156109937,0.250190185,0.234802225,0.358897654
0.156037279,0.25030692,0.234730333,0.358925467
0.155964488,0.250422409,0.234659344,0.358953759
0.155891569,0.250536658,0.234589252,0.358982522
0.155818529,0.250649673,0.234520052,0.359011746
0.155745377,0.250761462,0.234451739,0.359041422
0.155672118,0.250872034,0.234384308,0.35907154
0.15559876,0.250981396,0.234317754,0.359102091
0.155525308,0.251089559,0.234252069,0.359133064
0.155451769,0.251196533,0.23418725,0.359164449
0.155378149,0.251302329,0.234123289,0.359196233
0.155304454,0.25140696,0.234060182,0.359228405
0.155230691,0.251510436,0.233997922,0.359260952
0.155156865,0.251612771,0.233936503,0.359293861
0.155082982,0.251713979,0.233875917,0.359327122
0.155009047,0.251814075,0.233816158,0.35936072
0.154935066,0.251913071,0.233757218,0.359394645
0.154861044,0.252010981,0.23369909,0.359428885
0.154786984,0.252107818,0.233641771,0.359463426
0.154712892,0.252203596,0.233585255,0.359498258
0.154638769,0.252298328,0.233529537,0.359533366
0.15456462,0.25239203,0.233474611,0.359568738
0.154490447,0.252484719,0.233420472,0.359604361
0.154416253,0.252576412,0.233367113,0.359640222
0.15434204,0.252667124,0.233314527,0.359676309
0.154267809,0.252756872,0.233262706,0.359712612
0.154193565,0.25284567,0.233211644,0.359749121
0.154119309,0.252933532,0.233161335,0.359785823
0.154045046,0.253020472,0.233111772,0.35982271
0.15397078,0.253106503,0.233062948,0.359859769
0.153896514,0.253191639,0.233014857,0.35989699
0.153822253,0.253275895,0.23296749,0.359934362
0.153748001,0.253359283,0.23292084,0.359971876
0.153673765,0.253441815,0.232874901,0.360009519
0.153599548,0.253523503,0.232829665,0.360047284
0.153525356,0.253604359,0.232785125,0.36008516
0.153451195,0.253684392,0.232741275,0.360123138
0.15337707,0.253763612,0.232698106,0.360161212
0.153302987,0.253842029,0.232655611,0.360199373
0.153228952,0.253919653,0.232613781,0.360237614
0.15315497,0.253996491,0.232572609,0.360275929
0.153081048,0.254072553,0.232532088,0.360314311
0.153007192,0.254147845,0.232492209,0.360352753
0.152933408,0.254222377,0.232452965,0.36039125
0.152859702,0.254296156,0.232414348,0.360429795
0.152786079,0.25436919,0.23237635,0.360468382
0.152712547,0.254441487,0.232338963,0.360507004
0.152639112,0.254513054,0.232302179,0.360545654
0.152565783,0.254583899,0.232265993,0.360584324
0.152492568,0.254654032,0.232230396,0.360623005
0.152419473,0.254723458,0.232195381,0.360661687
0.152346508,0.254792188,0.232160942,0.360700362
0.152273682,0.254860227,0.232127072,0.360739019
0.152201003,0.254927585,0.232093765,0.360777648
0.152128479,0.254994267,0.232061015,0.360816239
0.152056119,0.255060281,0.232028817,0.360854783
0.15198393,0.255125635,0.231997166,0.36089327
0.15191192,0.255190334,0.231966055,0.360931691
0.151840098,0.255254387,0.231935477,0.360970038
0.15176847,0.2553178,0.231905428,0.361008301
0.151697044,0.255380582,0.231875901,0.361046472
0.151625828,0.25544274,0.231846891,0.361084542
0.151554828,0.255504281,0.23181839,0.361122501
0.15148405,0.255565214,0.231790393,0.361160342
0.151413502,0.255625546,0.231762897,0.361198055
0.15134319,0.255685283,0.231735895,0.361235632
0.151273119,0.255744434,0.231709384,0.361273063
0.151203295,0.255803006,0.23168336,0.361310339
0.151133723,0.255861007,0.231657819,0.361347451
0.151064408,0.255918443,0.231632759,0.361384389
0.150995355,0.255975322,0.231608177,0.361421146
0.150926569,0.256031651,0.231584069,0.361457711
0.150858053,0.256087436,0.231560432,0.361494078
0.150789812,0.256142687,0.231537263,0.361530238
0.15072185,0.256197411,0.231514555,0.361566183
0.15065417,0.25625162,0.231492303,0.361601907
0.150586774,0.256305322,0.231470502,0.361637402
0.150519663,0.256358531,0.231449143,0.361672663
0.150452841,0.256411255,0.231428222,0.361707683
0.150386307,0.256463505,0.231407731,0.361742457
0.150320065,0.256515291,0.231387666,0.361776978
0.150254114,0.256566623,0.23136802,0.361811243
0.150188454,0.256617512,0.231348788,0.361845246
0.150123087,0.256667964,0.231329964,0.361878985
0.150058013,0.256717989,0.231311541,0.361912457
0.149993233,0.256767593,0.231293514,0.36194566
0.149928749,0.256816785,0.231275876,0.36197859
0.149864563,0.256865573,0.23125862,0.362011245
0.149800678,0.256913963,0.231241738,0.362043621
0.149737095,0.256961964,0.231225225,0.362075716
0.149673815,0.257009586,0.231209071,0.362107527
0.149610839,0.257056839,0.231193269,0.362139054
0.149548165,0.257103732,0.231177809,0.362170293
0.149485795,0.257150277,0.231162684,0.362201243
0.149423728,0.257196487,0.231147885,0.3622319
0.149361963,0.257242372,0.231133404,0.36226226
0.149300498,0.257287949,0.231119234,0.362292319
0.149239332,0.25733323,0.231105366,0.362322072
0.149178463,0.257378228,0.231091793,0.362351516
0.149117888,0.257422957,0.231078506,0.362380648
0.149057605,0.257467428,0.231065498,0.362409469
0.148997609,0.257511652,0.23105276,0.36243798
0.148937897,0.257555639,0.231040284,0.362466181
0.148878466,0.257599397,0.231028062,0.362494075
0.148819312,0.257642936,0.231016088,0.362521663
0.148760433,0.257686263,0.231004356,0.362548948
0.148701826,0.257729385,0.230992857,0.362575932
0.148643486,0.257772311,0.230981586,0.362602617
0.148585413,0.257815047,0.230970536,0.362629004
0.148527601,0.257857602,0.230959699,0.362655097
0.148470048,0.257899986,0.230949069,0.362680897
0.14841275,0.257942209,0.230938638,0.362706404
0.148355702,0.257984281,0.230928399,0.362731618
0.148298901,0.258026214,0.230918345,0.362756539
0.148242345,0.258068018,0.230908471,0.362781167
0.148186029,0.258109702,0.230898769,0.362805501
0.148129951,0.258151276,0.230889232,0.362829541
0.14807411,0.258192748,0.230879855,0.362853287
0.148018503,0.258234125,0.230870632,0.36287674
0.147963129,0.258275414,0.230861556,0.362899901
0.14790799,0.258316624,0.230852618,0.362922769
0.147853086,0.25835776,0.23084381,0.362945343
0.147798419,0.258398833,0.230835125,0.362967624
0.147743989,0.258439849,0.230826551,0.362989611
0.147689797,0.258480818,0.23081808,0.363011305
0.147635844,0.258521747,0.230809703,0.363032706
0.147582133,0.258562644,0.23080141,0.363053814
0.147528663,0.258603516,0.230793191,0.36307463
0.147475438,0.258644368,0.230785038,0.363095156
0.147422459,0.258685207,0.23077694,0.363115394
0.147369728,0.258726038,0.230768889,0.363135345
0.147317247,0.258766865,0.230760876,0.363155011
0.147265019,0.258807694,0.230752892,0.363174396
0.147213044,0.258848528,0.230744926,0.363193502
0.147161325,0.258889374,0.230736968,0.363212333
0.147109862,0.258930235,0.230729008,0.363230895
0.147058656,0.258971113,0.230721036,0.363249195
0.147007707,0.259012013,0.230713039,0.363267241
0.146957015,0.259052936,0.230705007,0.363285042
0.14690658,0.259093888,0.23069693,0.363302603
0.146856401,0.25913487,0.230688797,0.363319933
0.146806477,0.259175885,0.230680599,0.363337039
0.14675681,0.259216938,0.230672327,0.363353926
0.146707397,0.259258029,0.230663973,0.363370602
0.146658237,0.259299161,0.230655528,0.363387073
0.14660933,0.259340337,0.230646987,0.363403346
0.146560674,0.25938156,0.23063834,0.363419426
0.146512268,0.259422831,0.230629581,0.363435319
0.14646411,0.259464155,0.230620704,0.363451031
0.146416199,0.259505535,0.230611701,0.363466565
0.146368533,0.259546973,0.230602568,0.363481926
0.14632111,0.259588472,0.230593297,0.363497121
0.14627393,0.259630034,0.230583884,0.363512152
0.146226989,0.259671663,0.230574325,0.363527024
0.146180287,0.259713359,0.230564613,0.363541741
0.146133821,0.259755127,0.230554747,0.363556306
0.14608759,0.259796969,0.230544721,0.36357072
0.146041592,0.259838888,0.230534532,0.363584988
0.145995826,0.259880888,0.230524177,0.363599109
0.145950288,0.259922972,0.230513653,0.363613087
0.145904979,0.259965142,0.230502954,0.363626925
0.145859895,0.260007404,0.230492078,0.363640623
0.145815036,0.260049758,0.23048102,0.363654186
0.145770399,0.260092209,0.230469777,0.363667614
0.145725983,0.260134761,0.230458345,0.363680911
0.145681787,0.260177417,0.230446718,0.363694078
0.145637806,0.260220183,0.230434893,0.363707117
0.14559404,0.260263064,0.230422865,0.363720031
0.145550486,0.260306065,0.230410627,0.363732821
0.14550714,0.260349196,0.230398175,0.363745489
0.145464,0.260392463,0.230385503,0.363758034
0.145421061,0.260435879,0.230372605,0.363770455
0.145378321,0.260479456,0.230359472,0.36378275
0.145335776,0.260523205,0.2303461,0.363794919
0.145293421,0.260567138,0.230332482,0.36380696
0.145251252,0.260611265,0.230318611,0.363818872
0.145209267,0.260655597,0.230304481,0.363830654
0.14516746,0.260700143,0.230290088,0.363842308
0.145125829,0.260744911,0.230275427,0.363853833
0.145084368,0.260789908,0.230260494,0.36386523
0.145043073,0.260835142,0.230245285,0.3638765
0.145001939,0.26088062,0.230229798,0.363887643
0.144960963,0.260926347,0.230214029,0.363898661
0.144920139,0.260972331,0.230197976,0.363909554
0.144879463,0.261018577,0.230181638,0.363920322
0.14483893,0.261065091,0.230165015,0.363930964
0.144798536,0.261111878,0.230148106,0.363941479
0.144758276,0.261158944,0.230130914,0.363951866
0.144718144,0.261206294,0.230113439,0.363962122
0.144678137,0.261253936,0.230095683,0.363972244
0.144638248,0.261301875,0.230077647,0.363982229
0.144598473,0.261350119,0.230059333,0.363992074
0.144558807,0.261398676,0.230040741,0.364001776
0.144519244,0.261447552,0.230021874,0.364011329
0.144479779,0.261496757,0.230002733,0.364020731
0.144440406,0.2615463,0.229983321,0.364029974
0.144401118,0.261596189,0.229963641,0.364039052
0.14436191,0.261646433,0.229943699,0.364047958
0.144322775,0.26169704,0.229923499,0.364056685
0.144283707,0.261748018,0.22990305,0.364065225
0.144244699,0.261799373,0.229882356,0.364073572
0.144205745,0.26185111,0.229861426,0.36408172
0.144166838,0.261903234,0.229840266,0.364089662
0.144127973,0.26195575,0.229818883,0.364097394
0.144089145,0.262008663,0.229797283,0.364104909
0.144050348,0.262061977,0.229775474,0.364112201
0.144011577,0.262115696,0.22975346,0.364119267
0.143972827,0.262169824,0.229731248,0.364126101
0.143934092,0.262224364,0.229708845,0.364132699
0.143895368,0.262279319,0.229686254,0.364139058
0.143856651,0.262334693,0.229663482,0.364145174
0.143817936,0.262390488,0.229640534,0.364151042
0.143779218,0.262446709,0.229617414,0.364156659
0.143740493,0.262503361,0.229594126,0.364162021
0.143701756,0.262560447,0.229570674,0.364167123
0.143663002,0.262617971,0.229547064,0.364171963
0.143624229,0.262675935,0.2295233,0.364176535
0.143585433,0.262734345,0.229499385,0.364180837
0.14354661,0.262793201,0.229475324,0.364184865
0.143507757,0.262852508,0.22945112,0.364188616
0.143468871,0.262912267,0.229426778,0.364192085
0.143429949,0.26297248,0.2294023,0.364195271
0.143390988,0.26303315,0.229377692,0.36419817
0.143351985,0.263094279,0.229352958,0.364200778
0.143312939,0.263155868,0.229328103,0.364203091
0.143273846,0.263217918,0.22930313,0.364205105
0.143234704,0.263280433,0.229278047,0.364206816
0.143195512,0.263343412,0.229252857,0.364208219
0.143156267,0.263406857,0.229227568,0.364209308
0.143116967,0.26347077,0.229202183,0.36421008
0.143077609,0.263535152,0.22917671,0.364210529
0.143038191,0.263600004,0.229151154,0.36421065
0.14299871,0.263665331,0.22912552,0.364210439
0.142959163,0.263731135,0.229099813,0.364209889
0.142919547,0.26379742,0.229074037,0.364208997
0.142879858,0.263864189,0.229048197,0.364207756
0.142840094,0.263931448,0.229022297,0.364206161
0.142800252,0.263999201,0.228996341,0.364204207
0.142760327,0.264067452,0.228970333,0.364201889
0.142720317,0.264136205,0.228944275,0.364199202
0.142680219,0.264205466,0.228918173,0.364196141
0.14264003,0.264275238,0.228892029,0.364192703
0.142599745,0.264345527,0.228865845,0.364188883
0.142559362,0.264416336,0.228839625,0.364184678
0.142518876,0.26448767,0.228813371,0.364180083
0.142478285,0.264559531,0.228787086,0.364175098
0.142437585,0.264631923,0.228760771,0.364169721
0.142396772,0.264704848,0.228734429,0.364163951
0.142355843,0.264778309,0.228708061,0.364157787
0.142314795,0.264852308,0.228681671,0.364151226
0.142273623,0.264926849,0.228655259,0.364144268
0.142232325,0.265001935,0.228628829,0.364136911
0.142190896,0.265077569,0.228602382,0.364129153
0.142149332,0.265153754,0.228575922,0.364120992
0.142107631,0.265230494,0.22854945,0.364112425
0.142065786,0.265307796,0.22852297,0.364103447
0.142023796,0.265385664,0.228496484,0.364094056
0.141981654,0.265464106,0.228469995,0.364084246
0.141939357,0.265543126,0.228443505,0.364074012
0.1418969,0.265622731,0.228417016,0.364063352
0.141854279,0.265702926,0.228390532,0.364052262
0.141811489,0.265783719,0.228364054,0.364040739
0.141768525,0.265865114,0.228337584,0.364028777
0.141725382,0.26594712,0.228311124,0.364016374
0.141682057,0.266029743,0.228284676,0.364003524
0.141638543,0.26611299,0.228258242,0.363990225
0.141594838,0.266196867,0.228231825,0.363976471
0.141550935,0.26628138,0.228205425,0.363962259
0.141506831,0.266366536,0.228179045,0.363947588
0.14146252,0.26645234,0.228152686,0.363932454
0.141417999,0.266538797,0.228126349,0.363916855
0.141373263,0.266625914,0.228100033,0.36390079
0.141328309,0.266713694,0.228073741,0.363884256
0.141283134,0.266802143,0.228047472,0.363867252
0.141237734,0.266891264,0.228021227,0.363849775
0.141192106,0.26698106,0.22799501,0.363831824
0.141146248,0.267071534,0.227968822,0.363813397
0.141100157,0.267162687,0.227942665,0.363794491
0.141053832,0.267254524,0.22791654,0.363775104
0.141007271,0.267347045,0.227890451,0.363755233
0.140960473,0.267440254,0.227864396,0.363734876
0.140913438,0.267534153,0.227838379,0.36371403
0.140866164,0.267628743,0.227812398,0.363692694
0.14081865,0.267724026,0.227786458,0.363670866
0.140770896,0.267820003,0.227760559,0.363648542
0.140722901,0.267916674,0.227734705,0.363625721
0.140674664,0.26801404,0.227708896,0.363602399
0.140626185,0.268112104,0.227683137,0.363578574
0.140577464,0.268210866,0.227657427,0.363554243
0.140528499,0.268310328,0.227631769,0.363529405
0.14047929,0.268410491,0.227606163,0.363504056
0.140429838,0.268511356,0.227580611,0.363478194
0.140380142,0.268612927,0.227555114,0.363451817
0.140330202,0.268715203,0.227529673,0.363424922
0.140280017,0.268818188,0.227504287,0.363397507
0.140229589,0.268921882,0.227478959,0.36336957
0.140178916,0.269026287,0.227453688,0.363341109
0.140128,0.269131402,0.227428477,0.363312122
0.140076841,0.269237228,0.227403324,0.363282607
0.140025439,0.269343766,0.227378233,0.363252562
0.139973796,0.269451019,0.227353202,0.363221983
0.13992191,0.269558988,0.227328233,0.363190869
0.139869783,0.269667677,0.227303326,0.363159214
0.139817414,0.269777089,0.227278481,0.363127016
0.139764804,0.269887227,0.227253699,0.36309427
0.139711952,0.269998094,0.227228981,0.363060974
0.139658858,0.270109692,0.227204327,0.363027123
0.139605523,0.270222023,0.227179738,0.362992716
0.139551946,0.270335089,0.227155214,0.36295775
0.139498128,0.270448892,0.227130758,0.362922223
0.139444069,0.270563431,0.227106368,0.362886131
0.13938977,0.270678709,0.227082048,0.362849473
0.139335231,0.270794726,0.227057797,0.362812246
0.139280453,0.270911483,0.227033618,0.362774446
0.139225435,0.271028979,0.227009513,0.362736072
0.139170178,0.271147215,0.226985484,0.362697122
0.139114682,0.271266192,0.226961532,0.362657594
0.139058946,0.271385908,0.226937659,0.362617487
0.13900297,0.271506364,0.226913867,0.3625768
0.138946754,0.271627562,0.226890155,0.362535529
0.138890298,0.271749503,0.226866526,0.362493673
0.138833601,0.271872191,0.22684298,0.362451228
0.138776662,0.271995627,0.226819519,0.362408192
0.138719481,0.272119814,0.226796142,0.362364563
0.138662056,0.272244754,0.226772852,0.362320339
0.138604388,0.272370446,0.226749648,0.362275518
0.138546474,0.272496893,0.226726531,0.362230102
0.138488314,0.272624093,0.226703502,0.36218409
0.138429907,0.272752046,0.226680561,0.362137486
0.138371251,0.27288075,0.226657707,0.362090292
0.138312344,0.273010205,0.226634941,0.36204251
0.138253187,0.273140408,0.226612262,0.361994144
0.138193776,0.273271358,0.226589669,0.361945196
0.138134112,0.273403055,0.226567164,0.361895669
0.138074193,0.273535496,0.226544744,0.361845566
0.138014019,0.273668682,0.22652241,0.361794889
0.137953588,0.273802609,0.226500162,0.361743642
0.1378929,0.273937276,0.226477998,0.361691826
0.137831955,0.27407268,0.226455918,0.361639446
0.137770755,0.274208819,0.226433923,0.361586503
0.1377093,0.27434569,0.226412011,0.361532999
0.137647592,0.274483289,0.226390182,0.361478937
0.137585632,0.274621612,0.226368436,0.361424319
0.137523424,0.274760656,0.226346772,0.361369148
0.137460969,0.274900418,0.226325189,0.361313424
0.137398271,0.275040893,0.226303685,0.36125715
0.137335333,0.27518208,0.226282259,0.361200328
0.137272159,0.275323974,0.226260909,0.361142958
0.137208751,0.275466574,0.226239633,0.361085042
0.137145112,0.275609875,0.226218431,0.361026582
0.137081248,0.275753874,0.2261973,0.360967578
0.13701716,0.275898568,0.226176239,0.360908032
0.136952854,0.276043953,0.226155248,0.360847945
0.136888331,0.276190027,0.226134325,0.360787318
0.136823596,0.276336785,0.226113468,0.360726151
0.136758651,0.276484227,0.226092676,0.360664445
0.136693502,0.276632351,0.226071946,0.360602201
0.13662815,0.276781154,0.226051277,0.360539418
0.136562601,0.276930635,0.226030667,0.360476097
0.136496858,0.277080792,0.226010113,0.360412237
0.136430925,0.277231625,0.225989613,0.360347837
0.136364806,0.277383134,0.225969164,0.360282896
0.136298504,0.277535318,0.225948763,0.360217415
0.136232025,0.277688176,0.225928407,0.360151392
0.136165372,0.277841708,0.225908094,0.360084826
0.136098551,0.277995913,0.22588782,0.360017717
0.136031564,0.278150789,0.225867583,0.359950065
0.135964416,0.278306335,0.22584738,0.359881868
0.135897112,0.278462551,0.225827209,0.359813128
0.135829656,0.278619435,0.225807067,0.359743843
0.13576205,0.278776986,0.225786949,0.359674016
0.135694299,0.278935202,0.225766851,0.359603648
0.135626406,0.279094079,0.225746771,0.359532744
0.135558375,0.279253616,0.225726703,0.359461307
0.135490208,0.279413806,0.225706643,0.359389343
0.135421908,0.279574643,0.225686587,0.359316862
0.135353478,0.279736122,0.225666529,0.359243871
0.135284918,0.279898236,0.225646466,0.35917038
0.135216232,0.280060978,0.225626394,0.359096396
0.13514742,0.280224342,0.225606311,0.359021927
0.135078485,0.280388322,0.225586213,0.35894698
0.135009427,0.280552912,0.225566097,0.358871564
0.134940249,0.280718106,0.22554596,0.358795685
0.134870952,0.280883897,0.225525799,0.358719352
0.134801537,0.281050281,0.22550561,0.358642572
0.134732007,0.28121725,0.225485391,0.358565353
0.134662363,0.281384797,0.225465139,0.358487702
0.134592606,0.281552915,0.22544485,0.358409628
0.13452274,0.281721599,0.225424522,0.358331139
0.134452765,0.281890842,0.225404152,0.358252242
0.134382683,0.282060636,0.225383737,0.358172945
0.134312497,0.282230974,0.225363274,0.358093255
0.134242207,0.282401851,0.225342764,0.358013178
0.134171817,0.282573258,0.225322203,0.357932722
0.134101328,0.282745189,0.225301591,0.357851892
0.134030743,0.282917635,0.225280928,0.357770694
0.133960065,0.283090591,0.225260211,0.357689134
0.133889295,0.283264048,0.22523944,0.357607218
0.133818437,0.283437998,0.225218613,0.357524952
0.133747495,0.283612433,0.22519773,0.357442342
0.13367647,0.283787347,0.22517679,0.357359393
0.133605367,0.28396273,0.225155792,0.357276111
0.133534187,0.284138577,0.225134737,0.357192499
0.133462934,0.284314881,0.225113622,0.357108564
0.13339161,0.284491635,0.225092447,0.357024307
0.133320219,0.284668837,0.225071211,0.356939734
0.133248761,0.284846479,0.225049913,0.356854847
0.133177241,0.285024559,0.225028551,0.35676965
0.133105659,0.285203071,0.225007125,0.356684145
0.133034019,0.285382011,0.224985632,0.356598338
0.132962322,0.285561376,0.224964073,0.356512229
0.13289057,0.28574116,0.224942445,0.356425825
0.132818766,0.285921359,0.224920748,0.356339127
0.132746913,0.286101969,0.22489898,0.356252139
0.132675013,0.286282983,0.22487714,0.356164864
0.132603068,0.286464398,0.224855227,0.356077307
0.132531082,0.286646209,0.22483324,0.35598947
0.132459056,0.286828409,0.224811178,0.355901358
0.132386993,0.287010994,0.224789039,0.355812974
0.132314896,0.287193959,0.224766823,0.355724322
0.132242766,0.287377297,0.224744529,0.355635407
0.132170607,0.287561006,0.224722156,0.355546232
0.13209842,0.287745078,0.224699701,0.355456801
0.132026208,0.28792951,0.224677164,0.355367119
0.131953971,0.288114296,0.224654543,0.35527719
0.131881713,0.28829943,0.224631838,0.355187018
0.131809436,0.288484909,0.224609046,0.355096609
0.13173714,0.288670726,0.224586166,0.355005968
0.131664828,0.288856876,0.224563197,0.354915098
0.131592502,0.289043353,0.224540138,0.354824007
0.131520163,0.289230151,0.224516986,0.354732699
0.131447813,0.289417265,0.22449374,0.354641181
0.131375454,0.289604688,0.224470399,0.354549459
0.131303086,0.289792415,0.22444696,0.354457539
0.131230711,0.289980439,0.224423423,0.354365426
0.131158332,0.290168755,0.224399786,0.354273127
0.131085949,0.290357355,0.224376049,0.354180647
0.131013564,0.290546234,0.22435221,0.354087992
0.130941179,0.290735385,0.224328269,0.353995168
0.130868793,0.290924801,0.224304226,0.35390218
0.13079641,0.291114476,0.22428008,0.353809034
0.13072403,0.291304402,0.224255831,0.353715737
0.130651654,0.291494574,0.224231478,0.353622294
0.130579283,0.291684984,0.224207021,0.353528712
0.130506919,0.291875625,0.224182459,0.353434998
0.130434562,0.292066489,0.224157792,0.353341158
0.130362213,0.292257568,0.224133017,0.353247201
0.130289873,0.292448856,0.224108135,0.353153137
0.130217543,0.292640343,0.224083141,0.353058972
0.130145224,0.292832023,0.224058036,0.352964717
0.130072918,0.293023888,0.224032817,0.352870377
0.130000626,0.29321593,0.224007484,0.352775959
0.129928351,0.293408143,0.223982036,0.35268147
0.129856095,0.293600516,0.223956473,0.352586916
0.129783863,0.293793044,0.223930793,0.3524923
0.129711658,0.293985716,0.223904997,0.352397628
0.129639484,0.294178526,0.223879084,0.352302906
0.129567345,0.294371464,0.223853053,0.352208138
0.129495244,0.294564523,0.223826904,0.352113329
0.129423186,0.294757694,0.223800637,0.352018483
0.129351174,0.294950969,0.223774251,0.351923606
0.129279213,0.295144339,0.223747746,0.351828702
0.129207305,0.295337798,0.223721122,0.351733775
0.129135457,0.295531336,0.223694377,0.35163883
0.12906367,0.295724945,0.223667513,0.351543872
0.12899195,0.295918618,0.223640529,0.351448904
0.128920299,0.296112346,0.223613424,0.351353931
0.128848723,0.296306121,0.223586198,0.351258958
0.128777224,0.296499934,0.223558852,0.35116399
0.128705807,0.296693777,0.223531384,0.351069031
0.128634475,0.296887643,0.223503796,0.350974086
0.128563232,0.297081521,0.223476087,0.35087916
0.128492081,0.297275404,0.223448257,0.350784258
0.128421026,0.297469284,0.223420306,0.350689384
0.128350071,0.297663151,0.223392234,0.350594545
0.128279218,0.297856996,0.22336404,0.350499747
0.128208471,0.29805081,0.223335725,0.350404994
0.128137833,0.298244586,0.223307287,0.350310294
0.128067306,0.298438316,0.223278727,0.350215651
0.127996894,0.298631991,0.223250044,0.350121072
0.127926598,0.298825604,0.223221236,0.350026562
0.127856421,0.299019149,0.223192304,0.349932127
0.127786365,0.299212616,0.223163245,0.349837774
0.127716432,0.299406,0.22313406,0.349743508
0.127646625,0.299599292,0.223104745,0.349649338
0.127576944,0.299792485,0.2230753,0.349555271
0.127507392,0.299985571,0.223045723,0.349461314
0.12743797,0.300178542,0.223016012,0.349367476
0.127368681,0.300371391,0.222986165,0.349273763
0.127299526,0.300564108,0.222956181,0.349180185
0.127230508,0.300756687,0.222926057,0.349086748
0.12716163,0.300949119,0.222895791,0.34899346
0.127092892,0.301141396,0.222865382,0.348900331
0.127024298,0.30133351,0.222834826,0.348807366
0.126955849,0.301525453,0.222804122,0.348714575
0.126887549,0.301717218,0.222773267,0.348621965
0.1268194,0.301908798,0.22274226,0.348529543
0.126751404,0.302100183,0.222711097,0.348437316
0.126683564,0.302291368,0.222679778,0.34834529
0.126615882,0.302482345,0.2226483,0.348253473
0.12654836,0.302673107,0.222616661,0.348161872
0.126481001,0.302863647,0.222584861,0.34807049
0.126413808,0.303053958,0.222552898,0.347979336
0.126346781,0.303244034,0.222520771,0.347888414
0.126279923,0.303433869,0.222488478,0.34779773
0.126213237,0.303623456,0.22245602,0.347707288
0.126146723,0.30381279,0.222423394,0.347617093
0.126080383,0.304001866,0.222390599,0.347527152
0.12601422,0.304190679,0.222357633,0.347437468
0.125948234,0.304379224,0.222324496,0.347348046
0.125882426,0.304567494,0.222291187,0.347258893
0.125816798,0.304755485,0.222257705,0.347170011
0.125751351,0.304943195,0.222224048,0.347081406
0.125686086,0.305130618,0.222190216,0.34699308
0.125621002,0.305317754,0.222156208,0.346905036
0.125556101,0.3055046,0.222122021,0.346817277
0.125491383,0.305691154,0.222087655,0.346729808
0.125426848,0.305877413,0.222053107,0.346642632
0.125362497,0.306063376,0.222018376,0.346555751
0.125298328,0.30624904,0.221983461,0.346469171
0.125234342,0.306434402,0.22194836,0.346382895
0.125170538,0.306619461,0.221913074,0.346296927
0.125106916,0.306804214,0.2218776,0.34621127
0.125043475,0.306988659,0.221841937,0.346125928
0.124980214,0.307172796,0.221806085,0.346040905
0.124917133,0.307356622,0.221770042,0.345956203
0.12485423,0.307540138,0.221733806,0.345871826
0.124791504,0.307723343,0.221697377,0.345787777
0.124728954,0.307906234,0.221660754,0.345704058
0.12466658,0.308088812,0.221623935,0.345620673
0.124604381,0.308271073,0.22158692,0.345537626
0.124542357,0.308453017,0.221549708,0.345454918
0.124480506,0.308634642,0.221512299,0.345372553
0.12441883,0.308815944,0.221474693,0.345290533
0.124357326,0.308996923,0.221436888,0.345208862
0.124295996,0.309177576,0.221398886,0.345127543
0.124234838,0.309357901,0.221360684,0.345046577
0.124173853,0.309537896,0.221322285,0.344965966
0.124113041,0.309717559,0.221283686,0.344885714
0.124052401,0.309896889,0.22124489,0.34480582
0.123991933,0.310075882,0.221205896,0.344726288
0.123931638,0.310254538,0.221166706,0.344647118
0.123871516,0.310432855,0.221127319,0.34456831
0.123811567,0.310610831,0.221087737,0.344489865
0.123751791,0.310788464,0.221047961,0.344411784
0.123692189,0.31096575,0.221007994,0.344334066
0.12363276,0.311142688,0.220967839,0.344256713
0.123573505,0.311319273,0.220927499,0.344179723
0.123514424,0.311495503,0.220886976,0.344103096
0.123455516,0.311671375,0.220846274,0.344026835
0.123396782,0.311846885,0.220805395,0.343950938
0.123338221,0.31202203,0.220764343,0.343875407
0.123279833,0.312196805,0.22072312,0.343800242
0.123221619,0.312371207,0.220681728,0.343725446
0.123163579,0.312545233,0.220640169,0.343651019
0.123105712,0.312718878,0.220598447,0.343576962
0.12304802,0.31289214,0.220556562,0.343503277
0.122990502,0.313065014,0.220514519,0.343429966
0.122933159,0.313237496,0.220472318,0.343357027
0.122875992,0.313409583,0.220429961,0.343284464
0.122819,0.313581273,0.220387452,0.343212274
0.122762187,0.313752563,0.22034479,0.34314046
0.122705552,0.313923449,0.220301977,0.343069023
0.122649096,0.314093927,0.220259014,0.342997962
0.122592821,0.314263996,0.220215902,0.342927281
0.122536728,0.314433653,0.220172639,0.34285698
0.122480819,0.314602894,0.220129226,0.342787061
0.122425097,0.314771717,0.22008566,0.342717526
0.122369563,0.314940119,0.220041941,0.342648378
0.12231422,0.315108096,0.219998065,0.342579618
0.122259071,0.315275647,0.219954033,0.342511249
0.122204119,0.315442767,0.219909841,0.342443273
0.122149367,0.315609456,0.219865487,0.34237569
0.122094816,0.315775711,0.21982097,0.342308503
0.122040471,0.31594153,0.219776286,0.342241712
0.121986335,0.316106911,0.219731434,0.34217532
0.121932409,0.316271851,0.219686412,0.342109327
0.121878698,0.316436349,0.219641217,0.342043735
0.121825205,0.316600403,0.219595848,0.341978544
0.121771932,0.31676401,0.219550304,0.341913754
0.121718882,0.31692717,0.219504584,0.341849364
0.121666058,0.317089881,0.219458687,0.341785375
0.121613463,0.317252143,0.219412611,0.341721784
0.121561099,0.317413956,0.219366355,0.341658591
0.121508969,0.317575321,0.219319918,0.341595792
0.121457075,0.31773624,0.219273299,0.341533385
0.121405419,0.317896716,0.219226498,0.341471366
0.121354003,0.318056752,0.219179515,0.341409731
0.121302829,0.318216348,0.219132348,0.341348475
0.121251899,0.318375506,0.219084999,0.341287596
0.121201215,0.318534228,0.219037467,0.34122709
0.12115078,0.318692515,0.218989754,0.341166951
0.121100595,0.318850368,0.21894186,0.341107177
0.121050663,0.319007789,0.218893787,0.341047762
0.121000984,0.319164778,0.218845534,0.340988704
0.120951562,0.319321338,0.218797102,0.340929998
0.120902398,0.31947747,0.218748492,0.34087164
0.120853492,0.319633177,0.218699705,0.340813626
0.120804847,0.31978846,0.218650741,0.340755952
0.120756464,0.319943322,0.218601601,0.340698613
0.120708344,0.320097764,0.218552285,0.340641607
0.120660488,0.320251788,0.218502795,0.340584929
0.120612897,0.320405395,0.218453132,0.340528576
0.120565573,0.320558586,0.218403298,0.340472544
0.120518515,0.320711362,0.218353295,0.340416828
0.120471726,0.320863724,0.218303126,0.340361424
0.120425206,0.321015671,0.218252795,0.340306328
0.120378956,0.321167206,0.218202303,0.340251535
0.120332977,0.321318327,0.218151655,0.34019704
0.120287271,0.321469036,0.218100853,0.34014284
0.120241838,0.321619332,0.2180499,0.340088929
0.12019668,0.321769217,0.217998799,0.340035304
0.120151799,0.321918689,0.217947552,0.33998196
0.120107196,0.322067749,0.217896161,0.339928894
0.120062872,0.322216396,0.217844629,0.339876103
0.12001883,0.322364629,0.217792958,0.339823583
0.11997507,0.322512447,0.21774115,0.339771333
0.119931593,0.322659848,0.217689207,0.339719352
0.119888401,0.322806832,0.21763713,0.339667637
0.119845494,0.322953396,0.217584923,0.339616188
0.119802873,0.323099537,0.217532586,0.339565003
0.119760539,0.323245256,0.217480124,0.339514081
0.119718494,0.32339055,0.217427537,0.33946342
0.119676738,0.323535418,0.217374828,0.339413016
0.119635273,0.323679862,0.217321998,0.339362867
0.1195941,0.32382388,0.21726905,0.33931297
0.11955322,0.323967473,0.217215984,0.339263323
0.119512635,0.324110643,0.217162803,0.33921392
0.119472345,0.324253391,0.217109506,0.339164758
0.119432353,0.32439572,0.217056096,0.339115831
0.119392661,0.324537632,0.217002573,0.339067134
0.119353269,0.324679129,0.216948938,0.339018663
0.11931418,0.324820215,0.216895193,0.338970413
0.119275394,0.32496089,0.216841337,0.338922378
0.119236914,0.32510116,0.216787373,0.338874553
0.11919874,0.325241026,0.216733301,0.338826933
0.119160875,0.325380493,0.216679122,0.338779511
0.119123319,0.325519563,0.216624838,0.338732281
0.119086074,0.325658241,0.216570449,0.338685237
0.119049141,0.32579653,0.216515957,0.338638372
0.060662832,0.330389976,0.303823379,0.305123813
0.060650333,0.330370084,0.303700823,0.30527876
0.06063748,0.33034872,0.303579069,0.305434731
0.060624275,0.330325885,0.303458121,0.305591719
0.060610719,0.330301579,0.303337982,0.30574972
0.060596814,0.330275803,0.303218656,0.305908727
0.060582563,0.330248557,0.303100145,0.306068735
0.060567966,0.330219842,0.302982453,0.30622974
0.060553026,0.33018966,0.30286558,0.306391734
0.060537744,0.330158013,0.302749529,0.306554714
0.060522122,0.330124904,0.3026343,0.306718674
0.060506162,0.330090334,0.302519895,0.306883609
0.060489867,0.330054307,0.302406312,0.307049513
0.060473238,0.330016825,0.302293554,0.307216383
0.060456277,0.329977892,0.30218162,0.307384212
0.060438986,0.32993751,0.302070508,0.307552995
0.060421368,0.329895686,0.30196022,0.307722727
0.060403423,0.329852423,0.301850753,0.3078934
0.060385155,0.329807729,0.301742106,0.308065009
0.060366566,0.329761607,0.301634278,0.308237549
0.060347657,0.329714065,0.301527267,0.308411011
0.060328431,0.329665108,0.301421071,0.308585391
0.06030889,0.329614743,0.301315686,0.308760681
0.060289036,0.329562979,0.301211111,0.308936874
0.060268872,0.329509822,0.301107344,0.309113962
0.060248399,0.329455282,0.30100438,0.309291939
0.06022762,0.329399365,0.300902218,0.309470797
0.060206535,0.329342079,0.300800855,0.30965053
0.060185148,0.329283429,0.300700291,0.309831132
0.060163459,0.329223422,0.300600524,0.310012595
0.060141471,0.329162061,0.300501554,0.310194914
0.060119185,0.329099352,0.300403383,0.310378081
0.060096602,0.329035297,0.300306012,0.310562089
0.060073725,0.328969901,0.300209446,0.310746928
0.060050554,0.328903167,0.300113689,0.31093259
0.06002709,0.328835099,0.300018746,0.311119065
0.060003336,0.328765701,0.299924622,0.311306342
0.059979292,0.328694977,0.299831321,0.31149441
0.05995496,0.328622932,0.299738849,0.311683259
0.059930342,0.328549571,0.299647209,0.311872879
0.059905439,0.328474897,0.299556407,0.312063257
0.059880253,0.328398915,0.299466451,0.312254381
0.059854784,0.328321631,0.299377346,0.312446239
0.059829035,0.328243049,0.299289098,0.312638818
0.059803005,0.328163176,0.299201715,0.312832104
0.059776696,0.328082015,0.299115202,0.313026087
0.059750109,0.327999573,0.299029565,0.313220753
0.059723245,0.327915854,0.29894481,0.313416092
0.059696105,0.327830863,0.298860941,0.313612091
0.05966869,0.327744606,0.298777964,0.31380874
0.059641,0.327657089,0.298695884,0.314006027
0.059613038,0.327568319,0.298614704,0.314203939
0.059584803,0.3274783,0.29853443,0.314402466
0.059556298,0.327387041,0.298455067,0.314601594
0.059527524,0.327294545,0.298376618,0.314801314
0.059498481,0.327200819,0.298299087,0.315001613
0.059469172,0.32710587,0.298222477,0.315202481
0.059439597,0.327009703,0.298146793,0.315403907
0.059409759,0.326912325,0.298072037,0.315605879
0.059379659,0.326813743,0.297998211,0.315808387
0.059349297,0.326713966,0.297925318,0.316011418
0.059318677,0.326613002,0.297853362,0.31621496
0.059287799,0.326510857,0.297782344,0.316418999
0.059256665,0.326407541,0.297712271,0.316623524
0.059225275,0.32630306,0.297643146,0.316828519
0.059193632,0.326197421,0.297574974,0.317033973
0.059161736,0.32609063,0.297507763,0.31723987
0.059129589,0.325982693,0.29744152,0.317446199
0.059097191,0.325873614,0.297376251,0.317652944
0.059064543,0.3257634,0.297311964,0.317860093
0.059031647,0.325652054,0.297248668,0.318067631
0.058998504,0.325539579,0.297186374,0.318275543
0.058965113,0.32542598,0.29712509,0.318483817
0.058931477,0.325311259,0.297064826,0.318692438
0.058897597,0.32519542,0.29700559,0.318901394
0.058863472,0.325078466,0.29694739,0.319110672
0.058829106,0.324960402,0.296890235,0.319320258
0.058794498,0.32484123,0.296834131,0.319530141
0.058759649,0.324720955,0.296779088,0.319740308
0.058724562,0.32459958,0.296725112,0.319950747
0.058689236,0.32447711,0.296672211,0.320161443
0.058653674,0.324353551,0.296620392,0.320372384
0.058617875,0.324228907,0.296569662,0.320583556
0.058581843,0.324103184,0.296520027,0.320794946
0.058545576,0.323976387,0.296471496,0.321006541
0.058509077,0.323848522,0.296424074,0.321218327
0.058472347,0.323719596,0.296377767,0.321430291
0.058435386,0.323589615,0.29633258,0.321642418
0.058398196,0.323458589,0.296288519,0.321854696
0.058360777,0.323326523,0.29624559,0.322067111
0.058323131,0.323193425,0.296203796,0.322279648
0.058285259,0.323059301,0.296163144,0.322492296
0.058247163,0.322924158,0.296123637,0.322705042
0.058208844,0.322788005,0.296085279,0.322917873
0.058170303,0.32265085,0.296048073,0.323130774
0.058131541,0.322512704,0.296012022,0.323343734
0.05809256,0.322373576,0.295977126,0.323556738
0.058053361,0.322233476,0.295943387,0.323769776
0.058013946,0.322092415,0.295910804,0.323982834
0.057974317,0.321950405,0.295879376,0.324195901
0.057934476,0.321807456,0.295849104,0.324408964
0.057894423,0.321663579,0.295819985,0.324622012
0.057854162,0.321518785,0.295792019,0.324835033
0.057813695,0.321373085,0.295765204,0.325048016
0.057773025,0.321226489,0.295739539,0.325260948
0.057732153,0.321079005,0.295715023,0.325473819
0.057691083,0.320930642,0.29569166,0.325686615
0.057649817,0.320781408,0.295669449,0.325899325
0.057608358,0.320631312,0.295648393,0.326111937
0.057566708,0.320480362,0.295628493,0.326324437
0.057524871,0.320328566,0.29560975,0.326536814
0.057482849,0.320175933,0.295592163,0.326749054
0.057440647,0.320022473,0.295575733,0.326961147
0.057398267,0.319868193,0.295560459,0.327173081
0.057355713,0.319713103,0.295546341,0.327384843
0.057312987,0.319557211,0.295533379,0.327596423
0.057270093,0.319400524,0.295521572,0.32780781
0.057227035,0.31924305,0.295510921,0.328018994
0.057183814,0.319084798,0.295501426,0.328229962
0.057140435,0.318925774,0.295493087,0.328440704
0.057096899,0.318765988,0.295485905,0.328651209
0.057053209,0.318605446,0.295479882,0.328861463
0.057009368,0.318444155,0.295475022,0.329071455
0.056965379,0.318282123,0.295471326,0.329281172
0.056921243,0.318119356,0.2954688,0.329490602
0.056876962,0.31795586,0.295467445,0.329699732
0.056832538,0.317791643,0.295467267,0.329908552
0.056787973,0.317626709,0.295468267,0.330117052
0.056743269,0.317461064,0.295470447,0.33032522
0.056698426,0.317294715,0.295473812,0.330533047
0.056653446,0.317127666,0.295478362,0.330740526
0.056608331,0.316959921,0.2954841,0.330947649
0.056563081,0.316791485,0.295491027,0.331154408
0.056517698,0.316622362,0.295499145,0.331360795
0.056472184,0.316452558,0.295508456,0.331566803
0.056426539,0.316282075,0.295518959,0.331772426
0.056380767,0.31611092,0.295530656,0.331977657
0.056334869,0.315939095,0.295543546,0.33218249
0.056288848,0.315766604,0.295557629,0.332386919
0.056242705,0.315593453,0.295572904,0.332590939
0.056196443,0.315419644,0.295589369,0.332794543
0.056150063,0.315245186,0.295607023,0.332997729
0.056103566,0.315070083,0.29562586,0.333200491
0.056056955,0.314894344,0.295645876,0.333402825
0.05601023,0.314717977,0.295667065,0.333604728
0.055963393,0.314540987,0.295689423,0.333806197
0.055916446,0.314363381,0.295712944,0.334007229
0.055869388,0.314185165,0.295737626,0.334207822
0.055822223,0.314006343,0.295763463,0.334407971
0.05577495,0.313826923,0.295790454,0.334607673
0.055727572,0.313646909,0.295818594,0.334806925
0.05568009,0.313466305,0.295847881,0.335005723
0.055632506,0.313285117,0.295878314,0.335204063
0.055584821,0.31310335,0.295909889,0.33540194
0.055537036,0.31292101,0.295942606,0.335599349
0.055489153,0.312738104,0.295976459,0.335796284
0.055441173,0.312554642,0.296011446,0.335992739
0.055393096,0.312370634,0.296047562,0.336188707
0.055344926,0.31218609,0.296084804,0.33638418
0.055296664,0.312001022,0.296123167,0.336579147
0.055248311,0.311815443,0.296162647,0.336773599
0.055199871,0.311629368,0.296203237,0.336967525
0.055151344,0.311442811,0.296244931,0.337160913
0.055102733,0.311255791,0.296287724,0.337353752
0.055054041,0.311068322,0.296331607,0.33754603
0.055005269,0.310880422,0.296376573,0.337737736
0.05495642,0.310692107,0.296422616,0.337928858
0.054907496,0.310503392,0.296469725,0.338119387
0.0548585,0.310314292,0.296517894,0.338309314
0.054809435,0.31012482,0.296567113,0.338498632
0.054760303,0.309934989,0.296617376,0.338687332
0.054711105,0.309744812,0.296668673,0.33887541
0.054661843,0.309554299,0.296720999,0.339062859
0.05461252,0.309363463,0.296774345,0.339249673
0.054563135,0.309172315,0.296828705,0.339435845
0.05451369,0.308980868,0.296884073,0.339621368
0.054464187,0.308789134,0.296940445,0.339806234
0.054414628,0.308597123,0.296997816,0.339990434
0.054365013,0.308404848,0.297056181,0.340173959
0.054315344,0.308212322,0.297115534,0.3403568
0.054265623,0.308019557,0.297175871,0.340538949
0.054215851,0.307826565,0.297237188,0.340720395
0.05416603,0.30763336,0.297299479,0.340901132
0.05411616,0.307439952,0.297362738,0.34108115
0.054066243,0.307246354,0.297426961,0.341260442
0.054016279,0.307052579,0.297492142,0.341439
0.05396627,0.30685864,0.297558275,0.341616815
0.053916216,0.306664551,0.297625354,0.341793879
0.053866117,0.30647033,0.297693373,0.341970181
0.053815973,0.306275992,0.297762322,0.342145712
0.053765785,0.306081558,0.297832196,0.342320461
0.053715552,0.305887044,0.297902987,0.342494418
0.053665273,0.30569247,0.297974685,0.342667571
0.053614949,0.305497855,0.298047286,0.34283991
0.05356458,0.305303218,0.29812078,0.343011423
0.053514164,0.30510858,0.29819516,0.343182097
0.053463701,0.304913963,0.298270418,0.343351918
0.053413191,0.30471939,0.298346544,0.343520874
0.053362634,0.304524887,0.29842353,0.343688949
0.053312028,0.304330478,0.298501365,0.343856129
0.053261373,0.304136187,0.298580039,0.344022401
0.053210669,0.303942041,0.298659541,0.34418775
0.053159913,0.303748065,0.29873986,0.344352161
0.053109107,0.303554288,0.298820985,0.344515619
0.053058249,0.303360737,0.298902904,0.344678109
0.053007339,0.303167441,0.298985605,0.344839615
0.052956377,0.302974427,0.299069075,0.345000121
0.052905363,0.302781722,0.299153303,0.345159612
0.052854296,0.302589354,0.299238277,0.345318073
0.052803176,0.302397347,0.299323986,0.34547549
0.052752004,0.302205728,0.299410419,0.345631849
0.052700779,0.302014522,0.299497562,0.345787136
0.052649502,0.301823754,0.299585405,0.345941339
0.052598173,0.301633447,0.299673934,0.346094446
0.052546791,0.301443626,0.299763136,0.346246447
0.052495357,0.301254314,0.299852998,0.346397331
0.05244387,0.301065534,0.299943509,0.346547087
0.052392331,0.300877308,0.300034656,0.346695706
0.052340738,0.300689659,0.300126426,0.346843176
0.052289094,0.300502609,0.300218809,0.346989488
0.052237396,0.300316178,0.300311793,0.347134634
0.052185645,0.300130387,0.300405364,0.347278604
0.052133841,0.299945258,0.300499511,0.34742139
0.052081984,0.299760812,0.300594223,0.347562982
0.052030072,0.299577071,0.300689486,0.347703371
0.051978106,0.299394058,0.300785289,0.347842548
0.051926084,0.299211794,0.300881619,0.347980503
0.051874006,0.299030302,0.300978465,0.348117228
0.05182187,0.298849604,0.301075814,0.348252712
0.051769676,0.298669725,0.301173655,0.348386943
0.051717423,0.298490688,0.301271978,0.348519911
0.051665107,0.298312518,0.30137077,0.348651604
0.051612729,0.29813524,0.30147002,0.348782011
0.051560285,0.297958879,0.301569715,0.348911121
0.051507775,0.297783458,0.301669842,0.349038924
0.051455196,0.297609004,0.30177039,0.349165409
0.051402547,0.297435542,0.301871346,0.349290564
0.051349826,0.297263096,0.301972699,0.349414379
0.051297031,0.29709169,0.302074436,0.349536843
0.05124416,0.296921348,0.302176547,0.349657945
0.051191213,0.296752093,0.302279021,0.349777673
0.051138186,0.296583948,0.302381849,0.349896016
0.05108508,0.296416937,0.302485022,0.350012961
0.05103189,0.29625108,0.302588535,0.350128494
0.050978617,0.296086401,0.302692383,0.3502426
0.050925256,0.295922921,0.302796559,0.350355263
0.050871807,0.295760663,0.302901061,0.350466468
0.050818268,0.295599647,0.303005886,0.350576199
0.050764636,0.295439894,0.303111031,0.350684438
0.050710911,0.295281425,0.303216495,0.350791169
0.05065709,0.295124258,0.303322278,0.350896374
0.050603172,0.294968416,0.303428378,0.351000035
0.050549155,0.294813915,0.303534794,0.351102135
0.050495039,0.294660775,0.303641528,0.351202658
0.050440823,0.294509014,0.303748577,0.351301585
0.050386506,0.294358652,0.30385594,0.351398901
0.050332086,0.294209709,0.303963617,0.351494587
0.050277562,0.294062208,0.304071606,0.351588624
0.050222931,0.293916172,0.304179903,0.351680993
0.050168194,0.293771625,0.304288507,0.351771674
0.050113349,0.293628588,0.304397414,0.351860648
0.050058393,0.293487086,0.304506623,0.351947898
0.050003327,0.29334714,0.30461613,0.352033403
0.049948149,0.293208775,0.304725931,0.352117145
0.049892857,0.293072014,0.304836024,0.352199105
0.049837451,0.292936881,0.304946405,0.352279263
0.04978193,0.292803401,0.30505707,0.352357599
0.049726291,0.292671599,0.305168018,0.352434092
0.049670534,0.292541503,0.305279243,0.35250872
0.049614657,0.292413145,0.305390741,0.352581457
0.049558659,0.292286558,0.305502504,0.35265228
0.049502537,0.292161778,0.305614524,0.352721161
0.049446291,0.292038839,0.305726794,0.352788076
0.049389919,0.291917776,0.305839304,0.352853001
0.049333421,0.291798623,0.305952046,0.352915911
0.049276794,0.291681415,0.30606501,0.352976782
0.049220037,0.291566182,0.306178188,0.353035592
0.049163151,0.291452958,0.306291572,0.35309232
0.049106133,0.291341771,0.306405154,0.353146942
0.049048983,0.291232654,0.306518926,0.353199437
0.0489917,0.291125639,0.30663288,0.353249782
0.048934283,0.291020758,0.306747005,0.353297954
0.048876731,0.290918048,0.30686129,0.353343931
0.048819044,0.290817545,0.306975723,0.353387688
0.048761221,0.290719288,0.307090291,0.3534292
0.048703261,0.290623315,0.307204982,0.353468442
0.048645163,0.290529666,0.307319783,0.353505389
0.048586926,0.290438378,0.30743468,0.353540016
0.048528551,0.290349488,0.30754966,0.353572301
0.048470037,0.290263032,0.30766471,0.35360222
0.048411383,0.290179045,0.307779821,0.353629751
0.04835259,0.290097561,0.307894979,0.353654869
0.048293656,0.290018615,0.308010176,0.353677554
0.04823458,0.289942239,0.3081254,0.35369778
0.048175364,0.28986847,0.308240643,0.353715524
0.048116004,0.28979734,0.308355894,0.353730761
0.048056501,0.289728888,0.308471144,0.353743467
0.047996853,0.289663152,0.308586381,0.353753614
0.047937058,0.289600174,0.308701595,0.353761172
0.047877115,0.289539998,0.308816775,0.353766112
0.04781702,0.289482665,0.308931912,0.353768403
0.047756773,0.289428218,0.309046995,0.353768014
0.047696371,0.289376698,0.309162017,0.353764913
0.047635811,0.289328149,0.30927697,0.35375907
0.047575092,0.289282616,0.309391842,0.353750449
0.04751421,0.289240148,0.309506624,0.353739019
0.047453164,0.28920079,0.309621302,0.353724744
0.04739195,0.289164589,0.309735867,0.353707593
0.047330568,0.28913159,0.309850307,0.353687535
0.047269014,0.289101837,0.309964611,0.353664538
0.047207288,0.289075373,0.310078768,0.353638571
0.047145387,0.289052236,0.310192771,0.353609607
0.047083309,0.289032466,0.310306612,0.353577613
0.047021055,0.289016098,0.310420284,0.353542563
0.046958623,0.289003168,0.310533782,0.353504427
0.046896012,0.288993709,0.310647099,0.35346318
0.046833221,0.288987756,0.310760227,0.353418796
0.04677025,0.288985341,0.31087316,0.353371249
0.046707098,0.288986497,0.31098589,0.353320515
0.046643763,0.288991257,0.311098408,0.353266572
0.046580245,0.28899965,0.311210708,0.353209397
0.046516543,0.289011705,0.311322781,0.35314897
0.046452656,0.28902745,0.311434622,0.353085272
0.046388584,0.289046909,0.311546222,0.353018285
0.046324324,0.289070109,0.311657577,0.35294799
0.046259877,0.289097072,0.311768681,0.35287437
0.046195241,0.289127821,0.311879529,0.352797408
0.046130416,0.28916238,0.311990116,0.352717087
0.0460654,0.289200772,0.312100436,0.352633392
0.046000192,0.289243017,0.312210485,0.352546305
0.045934792,0.289289139,0.312320259,0.352455811
0.045869197,0.289339158,0.312429753,0.352361892
0.045803405,0.2893931,0.312538962,0.352264533
0.045737415,0.289450992,0.312647876,0.352163716
0.045671225,0.289512861,0.312756486,0.352059427
0.045604833,0.289578734,0.312864781,0.351951652
0.045538237,0.289648636,0.31297275,0.351840377
0.045471436,0.289722595,0.313080383,0.351725587
0.045404429,0.289800636,0.313187668,0.351607268
0.045337215,0.289882784,0.313294596,0.351485405
0.045269795,0.289969062,0.313401158,0.351359985
0.045202168,0.290059493,0.313507342,0.351230996
0.045134335,0.290154099,0.31361314,0.351098426
0.045066295,0.290252902,0.313718539,0.350962264
0.044998048,0.290355923,0.31382353,0.350822499
0.044929594,0.290463182,0.313928102,0.350679122
0.044860934,0.290574698,0.314032247,0.350532121
0.044792068,0.290690489,0.314135954,0.350381489
0.044722996,0.29081057,0.314239219,0.350227215
0.044653719,0.290934954,0.314342036,0.350069292
0.044584237,0.291063653,0.3144444,0.34990771
0.044514551,0.291196675,0.31454631,0.349742465
0.044444661,0.291334026,0.314647762,0.349573551
0.044374567,0.29147571,0.314748757,0.349400966
0.044304271,0.291621728,0.314849293,0.349224707
0.044233773,0.291772082,0.314949371,0.349044774
0.044163074,0.291926768,0.315048989,0.348861169
0.044092174,0.292085786,0.315148147,0.348673892
0.044021075,0.292249131,0.315246846,0.348482948
0.043949777,0.292416798,0.315345086,0.34828834
0.04387828,0.292588781,0.315442866,0.348090073
0.043806587,0.292765073,0.315540188,0.347888152
0.043734697,0.292945666,0.315637055,0.347682582
0.043662611,0.293130549,0.31573347,0.34747337
0.04359033,0.293319711,0.315829439,0.34726052
0.043517853,0.293513139,0.315924968,0.347044041
0.043445181,0.293710816,0.316020062,0.34682394
0.043372315,0.29391273,0.31611473,0.346600225
0.043299255,0.294118865,0.316208977,0.346372903
0.043226001,0.294329205,0.316302812,0.346141981
0.043152555,0.294543734,0.316396242,0.345907468
0.043078918,0.294762434,0.316489275,0.345669374
0.04300509,0.294985283,0.316581918,0.345427709
0.042931073,0.29521226,0.316674179,0.345182487
0.042856869,0.295443344,0.316766067,0.344933721
0.042782479,0.295678508,0.316857588,0.344681425
0.042707904,0.295917728,0.316948751,0.344425617
0.042633148,0.296160978,0.317039562,0.344166312
0.04255821,0.29640823,0.31713003,0.34390353
0.042483094,0.296659457,0.317220162,0.343637286
0.042407801,0.29691463,0.317309967,0.343367601
0.042332333,0.297173719,0.317399454,0.343094494
0.042256691,0.297436695,0.317488629,0.342817985
0.042180877,0.297703527,0.317577501,0.342538094
0.042104894,0.297974184,0.317666078,0.342254845
0.042028743,0.298248633,0.317754365,0.341968259
0.041952428,0.298526843,0.31784237,0.341678359
0.041875951,0.298808781,0.317930099,0.341385169
0.041799314,0.299094416,0.318017559,0.341088712
0.04172252,0.299383716,0.318104753,0.340789011
0.041645572,0.299676652,0.318191686,0.340486089
0.041568473,0.299973197,0.318278362,0.340179969
0.041491224,0.300273322,0.318364782,0.339870672
0.041413829,0.300576999,0.31845095,0.339558222
0.041336289,0.3008842,0.318536868,0.339242643
0.041258607,0.301194896,0.318622538,0.338923959
0.041180786,0.301509057,0.31870796,0.338602196
0.041102828,0.301826656,0.318793136,0.33827738
0.041024736,0.30214766,0.318878067,0.337949537
0.040946511,0.30247204,0.318962754,0.337618695
0.040868156,0.302799764,0.319047199,0.33728488
0.040789674,0.303130802,0.319131405,0.336948119
0.040711066,0.303465123,0.319215374,0.336608437
0.040632334,0.303802696,0.319299109,0.33626586
0.040553482,0.304143492,0.319382613,0.335920414
0.04047451,0.30448748,0.319465886,0.335572124
0.040395423,0.304834632,0.319548929,0.335221016
0.040316224,0.305184918,0.319631744,0.334867114
0.040236916,0.305538306,0.319714332,0.334510446
0.040157503,0.305894765,0.319796694,0.334151037
0.040077989,0.306254262,0.319878833,0.333788915
0.039998377,0.306616764,0.319960751,0.333424107
0.039918672,0.306982237,0.320042452,0.333056639
0.039838876,0.307350648,0.320123939,0.332686537
0.039758994,0.307721961,0.320205216,0.332313828
0.03967903,0.308096144,0.320286285,0.331938541
0.039598986,0.308473162,0.32036715,0.331560702
0.039518868,0.308852982,0.320447813,0.331180337
0.039438677,0.309235568,0.32052828,0.330797475
0.039358419,0.309620885,0.320608555,0.330412141
0.039278096,0.310008899,0.320688642,0.330024363
0.039197713,0.310399572,0.320768545,0.32963417
0.039117273,0.31079287,0.320848266,0.32924159
0.03903678,0.311188756,0.320927811,0.328846654
0.038956237,0.311587192,0.321007181,0.32844939
0.03887565,0.311988142,0.321086379,0.328049829
0.038795021,0.312391568,0.32116541,0.327648001
0.038714355,0.312797434,0.321244275,0.327243937
0.038633654,0.313205703,0.321322976,0.326837667
0.038552924,0.313616337,0.321401515,0.326429224
0.038472168,0.314029298,0.321479895,0.326018639
0.03839139,0.31444455,0.321558118,0.325605943
0.038310592,0.314862055,0.321636186,0.325191166
0.03822978,0.315281777,0.321714103,0.32477434
0.038148956,0.315703677,0.321791874,0.324355493
0.038068125,0.316127715,0.321869505,0.323934655
0.037987291,0.316553852,0.321947001,0.323511856
0.037906458,0.316982048,0.322024368,0.323087126
0.03782563,0.31741226,0.322101613,0.322660496
0.037744812,0.317844449,0.322178741,0.322231999
0.037664007,0.318278571,0.322255758,0.321801664
0.037583221,0.318714585,0.322332672,0.321369522
0.037502456,0.319152449,0.32240949,0.320935605
0.037421717,0.31959212,0.322486221,0.320499942
0.037341008,0.320033553,0.322562874,0.320062564
0.037260333,0.320476704,0.322639457,0.319623505
0.037179697,0.320921528,0.322715981,0.319182795
0.037099102,0.32136798,0.322792452,0.318740466
0.037018553,0.321816016,0.322868879,0.318296552
0.036938055,0.32226559,0.322945268,0.317851086
0.036857613,0.322716658,0.323021626,0.317404104
0.036777229,0.323169176,0.323097957,0.316955638
0.036696909,0.323623102,0.323174266,0.316505723
0.036616658,0.324078394,0.323250556,0.316054393
0.036536478,0.324535011,0.323326831,0.31560168
0.036456375,0.324992914,0.323403094,0.315147617
0.036376352,0.325452061,0.323479348,0.314692239
0.036296414,0.325912411,0.323555596,0.314235579
0.036216564,0.326373924,0.323631842,0.31377767
0.036136806,0.326836556,0.323708092,0.313318546
0.036057144,0.327300266,0.323784349,0.312858241
0.035977582,0.327765009,0.32386062,0.312396789
0.035898122,0.328230742,0.323936912,0.311934225
0.035818768,0.328697422,0.324013228,0.311470583
0.035739523,0.329165006,0.324089573,0.311005898
0.03566039,0.329633453,0.324165952,0.310540204
0.035581374,0.330102722,0.324242369,0.310073536
0.035502475,0.330572773,0.324318826,0.309605926
0.035423697,0.331043569,0.324395326,0.309137408
0.035345042,0.331515072,0.324471873,0.308668013
0.035266513,0.331987244,0.324548467,0.308197775
0.035188112,0.33246005,0.32462511,0.307726727
0.035109842,0.332933454,0.324701803,0.307254901
0.035031704,0.333407424,0.324778544,0.306782327
0.034953701,0.333881931,0.324855332,0.306309036
0.034875834,0.334356944,0.324932165,0.305835057
0.034798106,0.334832432,0.32500904,0.305360422
0.034720518,0.335308367,0.325085955,0.30488516
0.034643073,0.335784716,0.325162908,0.304409303
0.034565773,0.33626145,0.325239896,0.303932882
0.034488619,0.336738536,0.325316918,0.303455927
0.034411615,0.337215942,0.325393972,0.302978471
0.034334762,0.337693638,0.325471056,0.302500545
0.034258061,0.338171593,0.325548165,0.302022181
0.034181514,0.338649779,0.325625294,0.301543413
0.034105122,0.339128166,0.325702441,0.30106427
0.034028888,0.339606724,0.325779602,0.300584786
0.033952811,0.340085424,0.325856773,0.300104993
0.033876894,0.340564234,0.325933953,0.299624919
0.033801137,0.341043126,0.326011141,0.299144595
0.033725543,0.341522073,0.326088335,0.298664048
0.033650112,0.342001046,0.326165534,0.298183308
0.033574847,0.342480017,0.326242735,0.2977024
0.033499749,0.342958958,0.326319937,0.297221355
0.033424821,0.343437842,0.326397137,0.2967402
0.033350063,0.34391664,0.326474332,0.296258964
0.033275479,0.344395326,0.326551519,0.295777676
0.03320107,0.344873873,0.326628695,0.295296363
0.033126838,0.345352253,0.326705855,0.294815054
0.033052785,0.34583044,0.326782998,0.294333777
0.032978914,0.346308409,0.326860118,0.293852559
0.032905225,0.346786135,0.326937213,0.293371427
0.032831722,0.347263596,0.327014277,0.292890405
0.032758405,0.34774077,0.327091305,0.292409521
0.032685275,0.348217635,0.327168293,0.291928797
0.032612336,0.348694169,0.327245235,0.29144826
0.032539587,0.34917035,0.327322128,0.290967934
0.032467031,0.349646157,0.327398968,0.290487843
0.03239467,0.350121568,0.327475751,0.290008011
0.032322503,0.350596559,0.327552476,0.289528461
0.032250534,0.351071112,0.327629139,0.289049215
0.032178763,0.351545205,0.327705739,0.288570293
0.032107191,0.35201882,0.327782274,0.288091715
0.032035819,0.352491938,0.327858743,0.2876135
0.031964648,0.352964542,0.327935144,0.287135666
0.031893679,0.353436615,0.328011474,0.286658232
0.031822913,0.353908138,0.328087731,0.286181218
0.03175235,0.354379097,0.328163909,0.285704643
0.031681992,0.354849477,0.328240005,0.285228526
0.031611839,0.355319263,0.328316013,0.284752884
0.031541893,0.355788443,0.328391926,0.284277738
0.031472153,0.356257002,0.328467738,0.283803107
0.031402622,0.356724928,0.328543442,0.283329009
0.031333299,0.357192209,0.32861903,0.282855462
0.031264185,0.357658835,0.328694494,0.282382486
0.031195281,0.358124795,0.328769827,0.281910097
0.031126588,0.358590079,0.32884502,0.281438312
0.031058107,0.359054676,0.328920067,0.280967149
0.030989838,0.359518575,0.328994962,0.280496624
0.030921782,0.359981767,0.329069698,0.280026753
0.030853939,0.360444243,0.329144269,0.279557549
0.030786311,0.360905993,0.329218667,0.279089028
0.030718899,0.361367011,0.329292887,0.278621203
0.030651702,0.361827292,0.329366919,0.278154086
0.030584723,0.362286833,0.329440756,0.277687689
0.03051796,0.36274563,0.329514388,0.277222022
0.030451416,0.363203683,0.329587806,0.276757095
0.030385089,0.36366099,0.329661002,0.276292919
0.030318981,0.364117549,0.329733967,0.275829503
0.030253091,0.364573361,0.329806692,0.275366857
0.030187421,0.365028424,0.329879165,0.274904991
0.03012197,0.365482739,0.329951377,0.274443914
0.030056738,0.365936305,0.330023318,0.273983639
0.029991727,0.366389119,0.33009498,0.273524175
0.029926936,0.36684118,0.330166351,0.273065533
0.029862365,0.367292485,0.330237425,0.272607725
0.029798015,0.367743031,0.330308192,0.272150762
0.029733885,0.368192815,0.330378646,0.271694654
0.029669975,0.368641833,0.330448782,0.271239411
0.029606285,0.369090081,0.330518593,0.270785042
0.029542814,0.369537553,0.330588077,0.270331556
0.029479562,0.369984244,0.330657233,0.269878961
0.029416529,0.370430146,0.330726061,0.269427264
0.029353713,0.370875253,0.330794561,0.268976472
0.029291116,0.371319556,0.330862736,0.268526592
0.029228736,0.371763045,0.33093059,0.268077629
0.029166574,0.372205709,0.330998128,0.267629589
0.02910463,0.372647535,0.331065359,0.267182477
0.029042903,0.373088509,0.331132291,0.266736297
0.028981394,0.373528618,0.331198938,0.266291051
0.028920103,0.373967845,0.331265311,0.265846741
0.028859031,0.374406179,0.331331423,0.265403368
0.028798177,0.374843606,0.331397284,0.264960934
0.028737543,0.375280113,0.331462903,0.264519441
0.028677128,0.375715692,0.331528288,0.264078892
0.028616933,0.376150329,0.331593446,0.263639292
0.028556958,0.376584015,0.331658383,0.263200645
0.028497203,0.377016737,0.331723103,0.262762957
0.028437668,0.377448487,0.331787611,0.262326233
0.028378354,0.377879254,0.331851912,0.26189048
0.028319261,0.378309028,0.331916009,0.261455702
0.028260389,0.3787378,0.331979904,0.261021907
0.028201738,0.379165562,0.332043601,0.260589098
0.02814331,0.379592307,0.3321071,0.260157283
0.028085104,0.380018026,0.332170403,0.259726467
0.02802712,0.380442715,0.33223351,0.259296655
0.02796936,0.380866364,0.332296422,0.258867854
0.027911823,0.381288966,0.332359142,0.258440069
0.027854509,0.381710516,0.332421671,0.258013304
0.02779742,0.382131004,0.332484011,0.257587565
0.027740555,0.382550424,0.332546164,0.257162856
0.027683916,0.382968767,0.332608133,0.256739184
0.027627504,0.383386026,0.332669919,0.256316552
0.027571317,0.383802192,0.332731525,0.255894966
0.027515358,0.384217257,0.332792951,0.255474434
0.027459626,0.384631212,0.332854198,0.255054964
0.027404122,0.385044049,0.332915266,0.254636563
0.027348847,0.38545576,0.332976153,0.254219241
0.0272938,0.385866337,0.333036857,0.253803006
0.027238984,0.386275771,0.333097375,0.253387871
0.027184398,0.386684051,0.333157703,0.252973847
0.027130045,0.387091168,0.333217836,0.25256095
0.027075926,0.387497109,0.33327777,0.252149195
0.027022042,0.387901864,0.3333375,0.251738594
0.026968393,0.388305419,0.333397023,0.251329164
0.026914982,0.388707764,0.333456335,0.250920919
0.026861809,0.389108886,0.333515432,0.250513873
0.026808875,0.389508773,0.333574313,0.250108039
0.026756182,0.389907412,0.333632972,0.249703434
0.02670373,0.39030479,0.333691409,0.249300071
0.02665152,0.390700894,0.333749619,0.248897967
0.026599553,0.391095712,0.333807598,0.248497137
0.026547831,0.39148923,0.333865343,0.248097597
0.026496353,0.391881434,0.333922849,0.247699364
0.026445121,0.392272312,0.333980113,0.247302454
0.026394136,0.39266185,0.33403713,0.246906884
0.026343399,0.393050036,0.334093896,0.24651267
0.02629291,0.393436856,0.334150408,0.246119827
0.02624267,0.393822298,0.334206661,0.24572837
0.02619268,0.394206351,0.334262654,0.245338315
0.026142941,0.394589004,0.334318381,0.244949675
0.026093452,0.394970244,0.33437384,0.244562465
0.026044214,0.395350062,0.334429027,0.244176697
0.025995228,0.395728447,0.334483939,0.243792386
0.025946495,0.396105388,0.334538575,0.243409543
0.025898014,0.396480874,0.334592931,0.24302818
0.025849786,0.396854897,0.334647008,0.242648309
0.025801812,0.397227447,0.334700803,0.242269938
0.025754091,0.397598515,0.334754318,0.241893076
0.025706624,0.397968093,0.334807549,0.241517734
0.025659411,0.398336172,0.334860498,0.241143919
0.025612453,0.398702744,0.334913164,0.240771639
0.025565748,0.399067803,0.334965547,0.240400903
0.025519297,0.399431339,0.335017646,0.240031718
0.0254731,0.399793346,0.335069462,0.239664092
0.025427156,0.400153818,0.335120995,0.239298031
0.025381466,0.400512747,0.335172243,0.238933543
0.02533603,0.400870127,0.335223208,0.238570636
0.025290846,0.40122595,0.335273887,0.238209316
0.025245916,0.401580211,0.335324282,0.23784959
0.025201239,0.401932903,0.335374393,0.237491465
0.025156814,0.40228402,0.335424219,0.237134947
0.025112643,0.402633553,0.33547376,0.236780043
0.025068725,0.402981498,0.335523018,0.236426759
0.025025059,0.403327848,0.33557199,0.236075102
0.024981647,0.403672596,0.335620679,0.235725078
0.024938487,0.404015738,0.335669083,0.235376692
0.02489558,0.404357268,0.335717201,0.235029951
0.024852926,0.404697182,0.335765033,0.234684859
0.024810524,0.405035478,0.335812577,0.23434142
0.024768373,0.405372154,0.335859833,0.23399964
0.024726474,0.405707205,0.335906799,0.233659522
0.024684825,0.40604063,0.335953475,0.23332107
0.024643427,0.406372427,0.335999861,0.232984286
0.024602278,0.406702592,0.336045956,0.232649174
0.024561379,0.407031124,0.336091761,0.232315737
0.024520728,0.407358019,0.336137275,0.231983978
0.024480325,0.407683274,0.3361825,0.231653901
0.024440171,0.408006885,0.336227437,0.231325507
0.024400263,0.408328848,0.33627209,0.230998799
0.024360603,0.408649158,0.336316461,0.230673778
0.02432119,0.408967812,0.336360551,0.230350446
0.024282023,0.409284809,0.336404363,0.230028805
0.024243103,0.409600146,0.336447897,0.229708855
0.024204428,0.409913821,0.336491153,0.229390598
0.024165997,0.410225833,0.336534132,0.229074037
0.024127811,0.410536182,0.336576835,0.228759173
0.024089868,0.410844867,0.336619259,0.228446006
0.024052167,0.41115189,0.336661406,0.228134537
0.024014707,0.411457252,0.336703274,0.227824768
0.023977488,0.411760952,0.336744861,0.227516699
0.023940508,0.412062993,0.336786169,0.22721033
0.023903768,0.412363374,0.336827195,0.226905663
0.023867265,0.412662094,0.336867943,0.226602698
0.023830999,0.412959153,0.336908413,0.226301435
0.02379497,0.413254549,0.336948608,0.226001873
0.023759175,0.413548282,0.33698853,0.225704013
0.023723614,0.41384035,0.337028183,0.225407853
0.023688286,0.414130753,0.337067569,0.225113392
0.02365319,0.414419492,0.33710669,0.224820627
0.023618326,0.414706566,0.337145552,0.224529556
0.023583692,0.414991978,0.337184155,0.224240176
0.023549286,0.415275728,0.337222502,0.223952484
0.02351511,0.415557819,0.337260595,0.223666477
0.02348116,0.415838253,0.337298436,0.223382152
0.023447437,0.416117032,0.337336027,0.223099504
0.02341394,0.416394158,0.33737337,0.222818532
0.023380667,0.416669634,0.337410468,0.222539231
0.023347617,0.416943462,0.337447324,0.222261597
0.023314791,0.417215644,0.33748394,0.221985626
0.023282186,0.417486183,0.337520318,0.221711314
0.023249802,0.417755082,0.33755646,0.221438657
0.023217637,0.418022345,0.337592367,0.221167651
0.023185692,0.418287976,0.33762804,0.220898292
0.023153963,0.418551979,0.337663481,0.220630577
0.023122452,0.418814358,0.337698689,0.220364502
0.023091155,0.419075116,0.337733665,0.220100064
0.023060073,0.419334257,0.337768411,0.21983726
0.023029203,0.419591785,0.337802926,0.219576086
0.022998546,0.419847702,0.337837213,0.219316539
0.0229681,0.420102013,0.337871272,0.219058615
0.022937864,0.420354719,0.337905104,0.218802313
0.022907837,0.420605824,0.337938711,0.218547628
0.022878019,0.42085533,0.337972093,0.218294558
0.022848408,0.421103239,0.338005252,0.218043101
0.022819004,0.421349554,0.33803819,0.217793252
0.022789806,0.421594278,0.338070906,0.217545009
0.022760814,0.421837414,0.338103403,0.21729837
0.022732025,0.422078963,0.33813568,0.217053332
0.022703439,0.422318928,0.33816774,0.216809893
0.022675054,0.422557311,0.338199582,0.216568052
0.022646871,0.422794115,0.338231209,0.216327806
0.022618887,0.423029342,0.338262618,0.216089153
0.022591101,0.423262996,0.338293811,0.215852092
0.022563513,0.423495079,0.338324788,0.21561662
0.022536121,0.423725595,0.338355548,0.215382736
0.022508925,0.423954547,0.338386091,0.215150436
0.022481924,0.424181939,0.338416417,0.21491972
0.022455115,0.424407775,0.338446527,0.214690583
0.0224285,0.424632057,0.338476418,0.214463025
0.022402075,0.424854789,0.338506092,0.214237044
0.022375841,0.425075973,0.338535547,0.214012639
0.022349796,0.425295611,0.338564783,0.213789811
0.022323939,0.425513704,0.3385938,0.213568557
0.022298269,0.425730255,0.338622598,0.213348878
0.022272786,0.425945265,0.338651176,0.213130772
0.022247487,0.426158736,0.338679535,0.212914241
0.022222373,0.426370671,0.338707674,0.212699282
0.022197441,0.42658107,0.338735593,0.212485896
0.022172691,0.426789936,0.338763292,0.212274081
0.022148121,0.426997273,0.338790769,0.212063836
0.022123731,0.427203083,0.338818026,0.211855161
0.022099518,0.427407369,0.33884506,0.211648053
0.022075483,0.427610134,0.338871872,0.211442511
0.022051622,0.427811384,0.338898461,0.211238533
0.022027936,0.428011122,0.338924825,0.211036117
0.022004423,0.428209353,0.338950963,0.21083526
0.021981081,0.428406083,0.338976875,0.210635961
0.021957909,0.428601315,0.33900256,0.210438216
0.021934907,0.428795058,0.339028014,0.210242021
0.021912071,0.428987317,0.339053237,0.210047375
0.021889401,0.429178099,0.339078226,0.209854273
0.021866896,0.429367411,0.33910298,0.209662714
0.021844553,0.429555258,0.339127496,0.209472693
0.021822371,0.429741644,0.339151777,0.209284209
0.021800348,0.429926574,0.339175821,0.209097257
0.021778484,0.430110052,0.33919963,0.208911834
0.021756776,0.430292083,0.339223205,0.208727936
0.021735222,0.430472671,0.339246547,0.20854556
0.021713822,0.43065182,0.339269658,0.2083647
0.021692574,0.430829534,0.339292539,0.208185353
0.021671477,0.431005818,0.339315193,0.208007513
0.021650528,0.431180673,0.339337622,0.207831176
0.021629729,0.431354104,0.339359829,0.207656338
0.021609076,0.431526113,0.339381816,0.207482995
0.02158857,0.431696702,0.339403585,0.207311143
0.021568208,0.431865875,0.339425139,0.207140778
0.02154799,0.432033635,0.339446481,0.206971895
0.021527915,0.432199984,0.339467611,0.20680449
0.021507982,0.432364925,0.339488533,0.206638559
0.02148819,0.432528462,0.33950925,0.206474099
0.021468537,0.432690595,0.339529763,0.206311105
0.021449023,0.432851328,0.339550076,0.206149574
0.021429646,0.433010659,0.339570192,0.205989503
0.021410406,0.43316859,0.339590113,0.205830891
0.021391301,0.433325121,0.339609843,0.205673734
0.021372331,0.433480252,0.339629385,0.205518032
0.021353495,0.433633982,0.339648741,0.205363782
0.021334791,0.433786311,0.339667914,0.205210984
0.021316221,0.433937238,0.339686904,0.205059637
0.021297782,0.434086762,0.339705715,0.204909741
0.021279475,0.434234881,0.339724348,0.204761296
0.0212613,0.434381595,0.339742802,0.204614303
0.021243257,0.434526902,0.339761079,0.204468762
0.021225346,0.4346708,0.339779179,0.204324674
0.021207568,0.43481329,0.339797102,0.20418204
0.021189921,0.434954373,0.339814848,0.204040858
0.021172407,0.435094048,0.339832415,0.203901131
0.021155025,0.435232317,0.339849801,0.203762857
0.021137777,0.435369184,0.339867003,0.203626036
0.021120663,0.435504649,0.339884018,0.203490669
0.021103684,0.435638716,0.339900844,0.203356756
0.02108684,0.435771387,0.339917476,0.203224297
0.021070132,0.435902664,0.339933912,0.203093292
0.021053561,0.436032552,0.339950147,0.20296374
0.021037128,0.436161054,0.339966177,0.202835641
0.021020833,0.436288174,0.339981999,0.202708994
0.021004678,0.436413914,0.339997609,0.202583798
0.020988663,0.43653828,0.340013003,0.202460054
0.020972789,0.436661275,0.340028176,0.20233776
0.020957057,0.436782904,0.340043124,0.202216915
0.020941468,0.436903171,0.340057842,0.202097519
0.020926021,0.437022083,0.340072326,0.20197957
0.020910718,0.437139645,0.34008657,0.201863067
0.02089556,0.437255863,0.340100569,0.201748008
0.020880548,0.437370742,0.34011432,0.20163439
0.02086568,0.437484288,0.340127819,0.201522213
0.02085096,0.437596505,0.340141062,0.201411474
0.020836386,0.437707398,0.340154046,0.201302171
0.020821959,0.437816971,0.34016677,0.2011943
0.02080768,0.437925228,0.340179231,0.201087861
0.02079355,0.438032172,0.340191429,0.200982849
0.020779569,0.438137807,0.340203363,0.200879261
0.020765737,0.438242136,0.340215032,0.200777094
0.020752055,0.438345162,0.340226437,0.200676345
0.020738523,0.438446889,0.340237578,0.200577011
0.020725142,0.438547318,0.340248452,0.200479088
0.020711912,0.438646453,0.340259061,0.200382573
0.020698834,0.438744298,0.340269405,0.200287464
0.020685908,0.438840852,0.340279483,0.200193757
0.020673134,0.438936119,0.340289297,0.200101449
0.020660513,0.439030099,0.34029885,0.200010538
0.020648045,0.439122792,0.340308143,0.199921019
0.020635731,0.439214198,0.340317181,0.199832891
0.02062357,0.439304314,0.340325967,0.199746148
0.020611565,0.43939314,0.340334505,0.19966079
0.020599714,0.439480674,0.340342799,0.199576814
0.020588018,0.439566914,0.340350851,0.199494217
0.020576477,0.439651859,0.340358667,0.199412997
0.020565092,0.439735508,0.34036625,0.19933315
0.020553863,0.43981786,0.340373603,0.199254675
0.020542789,0.439898912,0.340380729,0.19917757
0.020531871,0.439978665,0.340387631,0.199101832
0.02052111,0.440057117,0.340394314,0.19902746
0.020510504,0.440134266,0.340400778,0.198954452
0.020500054,0.440210113,0.340407028,0.198882805
0.02048976,0.440284656,0.340413065,0.198812519
0.020479621,0.440357895,0.340418894,0.19874359
0.020469638,0.440429829,0.340424516,0.198676017
0.020459811,0.440500457,0.340429934,0.198609798
0.02045014,0.440569776,0.340435151,0.198544933
0.020440624,0.440637788,0.340440169,0.198481419
0.020431265,0.44070449,0.34044499,0.198419256
0.020422061,0.440769881,0.340449616,0.198358441
0.020413014,0.440833962,0.340454052,0.198298973
0.020404122,0.440896729,0.340458301,0.198240848
0.020395386,0.440958181,0.340462369,0.198184064
0.020386805,0.441018317,0.34046626,0.198128618
0.02037838,0.441077134,0.34046998,0.198074506
0.02037011,0.44113463,0.340473536,0.198021724
0.020361995,0.441190802,0.340476934,0.197970269
0.020354036,0.441245646,0.34048018,0.197920139
0.020346231,0.441299159,0.340483278,0.197871332
0.020338581,0.441351337,0.340486236,0.197823847
0.020331086,0.441402176,0.340489058,0.19777768
0.020323746,0.441451671,0.340491751,0.197732832
0.020316562,0.441499818,0.340494323,0.197689297
0.020309533,0.441546612,0.34049678,0.197647075
0.02030266,0.441592047,0.340499131,0.197606162
0.020295944,0.441636118,0.340501383,0.197566555
0.020289384,0.44167882,0.340503546,0.19752825
0.020282981,0.441720149,0.340505626,0.197491244
0.020276735,0.441760099,0.340507633,0.197455533
0.020270646,0.441798668,0.340509573,0.197421114
0.020264714,0.441835849,0.340511454,0.197387982
0.02025894,0.441871641,0.340513284,0.197356135
0.020253324,0.441906039,0.340515069,0.197325568
0.020247866,0.441939038,0.340516817,0.197296278
0.020242566,0.441970637,0.340518535,0.197268263
0.020237424,0.44200083,0.340520228,0.197241518
0.020232441,0.442029616,0.340521902,0.19721604
0.020227617,0.442056993,0.340523563,0.197191826
0.020222953,0.44208296,0.340525216,0.197168871
0.020218447,0.442107516,0.340526865,0.197147172
0.020214101,0.442130661,0.340528514,0.197126723
0.020209915,0.442152398,0.340530167,0.19710752
0.020205889,0.442172729,0.340531825,0.197089558
0.020202022,0.442191654,0.340533492,0.197072832
0.020198315,0.442209178,0.340535169,0.197057338
0.020194768,0.442225304,0.340536857,0.197043071
0.020191381,0.442240037,0.340538557,0.197030025
0.020188154,0.442253381,0.34054027,0.197018195
0.020185087,0.442265342,0.340541995,0.197007576
0.020182179,0.442275925,0.340543733,0.196998163
0.020179432,0.442285132,0.340545484,0.196989953
0.020176845,0.442292967,0.340547248,0.19698294
0.020174417,0.442299433,0.340549028,0.196977122
0.02017215,0.442304533,0.340550822,0.196972495
0.020170042,0.44230827,0.340552633,0.196969055
0.020168094,0.442310647,0.340554459,0.1969668
0.020166305,0.442311666,0.340556301,0.196965728
0.020164676,0.442311331,0.340558156,0.196965837
0.020163205,0.442309646,0.340560023,0.196967126
0.020161892,0.442306614,0.3405619,0.196969594
0.020160738,0.442302239,0.340563785,0.196973238
0.020159741,0.442296527,0.340565675,0.196978057
0.0201589,0.442289485,0.340567564,0.196984051
0.020158216,0.442281118,0.340569449,0.196991217
0.020157688,0.442271434,0.340571324,0.196999555
0.020157315,0.442260439,0.340573183,0.197009063
0.020157096,0.442248141,0.340575021,0.197019742
0.020157032,0.442234548,0.340576831,0.197031589
0.020157121,0.442219666,0.340578608,0.197044605
0.020157362,0.442203504,0.340580346,0.197058788
0.020157755,0.442186069,0.340582039,0.197074137
0.020158299,0.442167368,0.340583681,0.197090651
0.020158994,0.442147407,0.34058527,0.197108329
0.020159838,0.442126194,0.340586799,0.197127169
0.020160832,0.442103736,0.340588264,0.197147168
0.020161975,0.442080039,0.340589661,0.197168325
0.020163266,0.442055112,0.340590984,0.197190638
0.020164704,0.442028962,0.34059223,0.197214103
0.02016629,0.442001598,0.340593393,0.19723872
0.020168021,0.441973025,0.340594469,0.197264484
0.020169899,0.441943253,0.340595454,0.197291394
0.020171922,0.441912289,0.340596343,0.197319446
0.020174089,0.44188014,0.340597132,0.197348639
0.0201764,0.441846814,0.340597816,0.197378969
0.020178855,0.44181232,0.340598392,0.197410433
0.020181452,0.441776666,0.340598856,0.197443027
0.02018419,0.441739859,0.340599203,0.197476748
0.020187069,0.441701908,0.34059943,0.197511593
0.020190089,0.441662821,0.340599532,0.197547558
0.020193248,0.441622606,0.340599506,0.19758464
0.020196547,0.44158127,0.340599348,0.197622836
0.020199984,0.44153882,0.340599054,0.197662142
0.020203559,0.441495264,0.340598622,0.197702555
0.020207271,0.441450611,0.340598047,0.197744071
0.02021112,0.441404868,0.340597326,0.197786686
0.020215106,0.441358044,0.340596456,0.197830395
0.020219227,0.441310146,0.340595434,0.197875193
0.020223482,0.441261184,0.340594256,0.197921077
0.020227873,0.441211166,0.34059292,0.197968041
0.020232397,0.441160101,0.340591423,0.198016079
0.020237055,0.441107996,0.340589763,0.198065186
0.020241845,0.441054859,0.340587938,0.198115357
0.020246769,0.441000698,0.340585946,0.198166587
0.020251825,0.440945518,0.340583787,0.19821887
0.020257013,0.440889328,0.340581458,0.198272201
0.020262332,0.440832134,0.340578958,0.198326576
0.020267782,0.440773944,0.340576287,0.198381988
0.020273362,0.440714763,0.340573443,0.198438432
0.020279071,0.440654598,0.340570426,0.198495904
0.02028491,0.440593456,0.340567236,0.198554397
0.020290877,0.440531343,0.340563873,0.198613907
0.020296972,0.440468264,0.340560337,0.198674427
0.020303194,0.440404225,0.340556629,0.198735952
0.020309542,0.440339233,0.340552749,0.198798476
0.020316016,0.440273294,0.340548697,0.198861993
0.020322615,0.440206414,0.340544474,0.198926497
0.020329338,0.440138601,0.340540079,0.198991982
0.020336184,0.440069861,0.340535514,0.199058441
0.020343153,0.440000202,0.340530778,0.199125867
0.020350243,0.439929631,0.340525872,0.199194254
0.020357454,0.439858156,0.340520795,0.199263595
0.020364785,0.439785785,0.340515546,0.199333884
0.020372234,0.439712527,0.340510125,0.199405114
0.020379801,0.439638393,0.340504528,0.199477278
0.020387484,0.439563394,0.340498754,0.199550368
0.020395284,0.439487542,0.340492799,0.199624375
0.020403198,0.43941085,0.34048666,0.199699292
0.020411225,0.439333331,0.340480334,0.199775111
0.020419365,0.439254997,0.340473817,0.199851822
0.020427616,0.439175863,0.340467105,0.199929417
0.020435977,0.439095942,0.340460194,0.200007887
0.020444446,0.439015249,0.340453079,0.200087225
0.020453024,0.438933798,0.340445755,0.200167422
0.020461709,0.438851602,0.340438218,0.200248471
0.020470501,0.438768676,0.34043046,0.200330363
0.020479398,0.438685031,0.340422478,0.200413093
0.020488399,0.438600682,0.340414265,0.200496653
0.020497505,0.438515641,0.340405817,0.200581037
0.020506714,0.43842992,0.34039713,0.200666237
0.020516024,0.43834353,0.340388199,0.200752247
0.020525437,0.438256483,0.340379021,0.20083906
0.020534949,0.43816879,0.340369592,0.200926669
0.020544561,0.438080462,0.340359911,0.201015066
0.020554272,0.437991509,0.340349973,0.201104245
0.020564081,0.437901945,0.340339776,0.201194198
0.020573986,0.437811779,0.340329317,0.201284918
0.020583987,0.437721026,0.34031859,0.201376397
0.020594084,0.437629696,0.340307594,0.201468627
0.020604274,0.437537802,0.340296324,0.2015616
0.020614558,0.437445355,0.340284779,0.201655308
0.020624934,0.437352367,0.340272956,0.201749743
0.020635401,0.43725885,0.340260853,0.201844896
0.020645958,0.437164814,0.34024847,0.201940758
0.020656604,0.43707027,0.340235807,0.202037318
0.020667338,0.436975229,0.340222866,0.202134567
0.020678158,0.4368797,0.340209647,0.202232495
0.020689063,0.436783692,0.340196152,0.202331093
0.020700052,0.436687212,0.340182384,0.202430353
0.020711122,0.43659027,0.340168343,0.202530265
0.020722274,0.436492872,0.340154033,0.202630821
0.020733505,0.436395027,0.340139454,0.202732014
0.020744813,0.436296743,0.340124608,0.202833835
0.020756199,0.436198027,0.340109497,0.202936277
0.020767659,0.436098885,0.340094123,0.203039333
0.020779194,0.435999326,0.340078487,0.203142993
0.0207908,0.435899355,0.340062593,0.203247252
0.020802478,0.43579898,0.340046441,0.203352102
0.020814224,0.435698206,0.340030035,0.203457534
0.020826039,0.435597041,0.340013376,0.203563543
0.020837921,0.435495492,0.339996466,0.203670121
0.020849868,0.435393566,0.339979306,0.20377726
0.020861879,0.435291269,0.339961898,0.203884954
0.020873952,0.435188608,0.339944244,0.203993195
0.020886088,0.435085591,0.339926345,0.204101977
0.020898283,0.434982223,0.339908203,0.204211291
0.020910537,0.434878512,0.339889818,0.204321133
0.020922849,0.434774464,0.339871192,0.204431494
0.020935218,0.434670087,0.339852326,0.204542368
0.020947642,0.434565387,0.339833221,0.204653749
0.02096012,0.434460372,0.339813877,0.204765631
0.020972652,0.434355047,0.339794295,0.204878005
0.020985237,0.434249421,0.339774474,0.204990868
0.020997873,0.434143501,0.339754414,0.205104212
0.021010561,0.434037292,0.339734115,0.205218032
0.021023299,0.433930803,0.339713575,0.205332323
0.021036087,0.433824039,0.339692793,0.205447082
0.152752681,0.2170069,0.274999867,0.355240552
0.152766422,0.216799677,0.275058301,0.3553756
0.152780531,0.216593841,0.275115652,0.355509976
0.152795005,0.216389416,0.275171909,0.35564367
0.152809843,0.216186426,0.275227057,0.355776674
0.152825039,0.215984897,0.275281085,0.355908979
0.152840592,0.215784853,0.275333979,0.356040576
0.152856497,0.215586322,0.275385726,0.356171456
0.152872752,0.215389329,0.275436311,0.356301609
0.152889353,0.215193901,0.275485722,0.356431025
0.152906296,0.215000063,0.275533945,0.356559695
0.15292358,0.21480784,0.27558097,0.35668761
0.152941198,0.214617258,0.275626782,0.356814762
0.152959149,0.21442834,0.27567137,0.356941141
0.152977428,0.214241111,0.275714722,0.357066739
0.152996032,0.214055593,0.275756827,0.357191549
0.153014955,0.21387181,0.275797673,0.357315562
0.153034196,0.213689785,0.275837249,0.35743877
0.153053749,0.213509541,0.275875545,0.357561165
0.153073612,0.213331099,0.275912549,0.357682739
0.153093781,0.213154483,0.275948251,0.357803485
0.153114252,0.212979713,0.275982639,0.357923396
0.153135021,0.212806811,0.276015705,0.358042463
0.153156085,0.212635796,0.27604744,0.358160679
0.153177439,0.21246669,0.276077834,0.358278037
0.15319908,0.212299512,0.27610688,0.358394528
0.153221003,0.212134281,0.276134568,0.358510148
0.153243202,0.211971017,0.27616089,0.358624891
0.153265673,0.211809738,0.276185838,0.358738751
0.153288412,0.21165046,0.276209403,0.358851726
0.153311411,0.211493201,0.276231577,0.358963811
0.153334667,0.211337976,0.276252351,0.359075005
0.153358174,0.211184803,0.276271717,0.359185307
0.153381925,0.211033695,0.276289666,0.359294714
0.153405915,0.210884669,0.276306191,0.359403225
0.153430139,0.210737739,0.276321283,0.35951084
0.153454591,0.210592919,0.276334934,0.359617556
0.153479265,0.210450226,0.276347137,0.359723372
0.153504156,0.210309672,0.276357885,0.359828287
0.153529258,0.210171273,0.27636717,0.359932299
0.153554566,0.210035043,0.276374984,0.360035408
0.153580074,0.209900993,0.276381321,0.360137612
0.153605777,0.209769137,0.276386174,0.360238911
0.15363167,0.209639488,0.276389537,0.360339305
0.153657746,0.209512058,0.276391403,0.360438794
0.153684,0.209386857,0.276391767,0.360537375
0.153710429,0.209263899,0.276390623,0.360635049
0.153737028,0.209143194,0.276387965,0.360731812
0.153763796,0.209024753,0.276383787,0.360827664
0.15379073,0.208908586,0.276378083,0.360922601
0.153817828,0.208794703,0.276370848,0.361016621
0.153845091,0.208683112,0.276362076,0.361109721
0.153872521,0.20857382,0.276351759,0.3612019
0.153900121,0.208466834,0.276339891,0.361293154
0.153927894,0.20836216,0.276326464,0.361383482
0.153955846,0.208259802,0.276311469,0.361472882
0.153983981,0.208159767,0.276294901,0.361561351
0.154012304,0.208062058,0.276276751,0.361648886
0.154040818,0.207966682,0.276257015,0.361735486
0.154069527,0.207873641,0.276235685,0.361821147
0.154098438,0.207782939,0.276212756,0.361905867
0.154127554,0.207694579,0.276188223,0.361989643
0.154156882,0.207608564,0.276162082,0.362072473
0.154186425,0.207524895,0.276134327,0.362154353
0.154216191,0.207443573,0.276104954,0.362235282
0.154246184,0.2073646,0.276073961,0.362315256
0.154276409,0.207287976,0.276041342,0.362394273
0.154306873,0.207213703,0.276007094,0.36247233
0.154337579,0.207141782,0.275971216,0.362549423
0.154368533,0.207072214,0.275933704,0.362625549
0.154399739,0.207004998,0.275894558,0.362700705
0.154431201,0.206940135,0.275853777,0.362774887
0.154462925,0.206877625,0.275811359,0.362848091
0.154494912,0.206817469,0.275767307,0.362920313
0.154527168,0.206759665,0.27572162,0.362991546
0.154559696,0.206704214,0.275674302,0.363061788
0.154592499,0.206651115,0.275625353,0.363131033
0.154625583,0.206600366,0.275574776,0.363199275
0.15465895,0.206551967,0.275522574,0.36326651
0.154692604,0.206505918,0.275468748,0.36333273
0.154726547,0.206462223,0.275413299,0.363397931
0.154760783,0.206420885,0.27535623,0.363462103
0.154795313,0.206381906,0.275297543,0.363525238
0.154830138,0.206345291,0.275237242,0.363587329
0.15486526,0.206311043,0.275175332,0.363648365
0.154900684,0.206279163,0.275111814,0.363708339
0.154936412,0.206249654,0.275046692,0.363767242
0.154972449,0.206222517,0.27497997,0.363825064
0.1550088,0.206197755,0.27491165,0.363881795
0.15504547,0.206175369,0.274841735,0.363937427
0.155082463,0.206155363,0.274770228,0.363991947
0.155119786,0.206137739,0.274697131,0.364045344
0.155157442,0.206122501,0.27462245,0.364097608
0.155195435,0.206109649,0.274546187,0.364148728
0.155233771,0.206099187,0.274468349,0.364198694
0.155272452,0.206091114,0.274388938,0.364247496
0.155311483,0.206085433,0.274307961,0.364295124
0.155350866,0.206082144,0.274225422,0.364341569
0.155390603,0.206081248,0.274141326,0.364386822
0.155430698,0.206082744,0.274055681,0.364430877
0.155471151,0.206086632,0.273968491,0.364473725
0.155511963,0.206092911,0.273879764,0.364515362
0.155553135,0.20610158,0.273789505,0.36455578
0.155594666,0.206112638,0.273697721,0.364594976
0.155636554,0.206126085,0.273604416,0.364632945
0.155678798,0.206141922,0.273509593,0.364669687
0.155721394,0.20616015,0.273413256,0.3647052
0.155764339,0.20618077,0.273315406,0.364739485
0.15580763,0.206203783,0.273216048,0.364772539
0.155851261,0.20622919,0.273115184,0.364804365
0.155895228,0.20625699,0.273012818,0.364834964
0.155939525,0.206287181,0.272908956,0.364864337
0.155984148,0.206319763,0.272803601,0.364892488
0.15602909,0.206354734,0.272696757,0.36491942
0.156074346,0.206392091,0.272588426,0.364945137
0.15611991,0.206431832,0.272478611,0.364969647
0.156165775,0.206473954,0.272367315,0.364992956
0.156211934,0.206518454,0.27225454,0.365015073
0.156258379,0.206565327,0.272140288,0.365036006
0.156305105,0.206614569,0.272024564,0.365055762
0.156352103,0.206666177,0.271907372,0.365074348
0.156399368,0.206720145,0.271788715,0.365091772
0.156446895,0.206776468,0.271668597,0.36510804
0.15649468,0.206835141,0.27154702,0.365123159
0.156542719,0.206896158,0.271423988,0.365137135
0.156591008,0.206959512,0.271299501,0.365149978
0.156639543,0.207025195,0.271173561,0.365161701
0.156688319,0.207093197,0.271046169,0.365172315
0.15673733,0.20716351,0.270917326,0.365181834
0.156786572,0.207236124,0.270787035,0.365190269
0.15683604,0.207311029,0.270655298,0.365197633
0.156885732,0.207388214,0.270522116,0.365203938
0.156935646,0.207467667,0.270387493,0.365209194
0.156985781,0.207549379,0.270251431,0.36521341
0.157036134,0.20763334,0.270113935,0.365216591
0.157086702,0.207719542,0.269975015,0.365218741
0.157137482,0.207807976,0.26983468,0.365219862
0.157188471,0.207898636,0.269692943,0.365219951
0.157239665,0.207991516,0.269549815,0.365219003
0.157291064,0.208086615,0.269405309,0.365217011
0.157342663,0.208183936,0.269259436,0.365213965
0.15739446,0.208283481,0.269112204,0.365209855
0.157446452,0.208385253,0.268963624,0.365204672
0.157498634,0.208489253,0.268813706,0.365198407
0.157551001,0.208595483,0.268662463,0.365191053
0.15760355,0.208703943,0.268509908,0.365182599
0.157656275,0.208814634,0.268356055,0.365173036
0.157709169,0.208927561,0.268200919,0.36516235
0.157762226,0.209042728,0.268044517,0.365150529
0.157815438,0.209160137,0.267886863,0.365137562
0.157868797,0.209279791,0.267727973,0.365123438
0.157922298,0.209401691,0.267567862,0.365108149
0.157975931,0.209525836,0.267406546,0.365091687
0.158029688,0.209652221,0.267244042,0.365074048
0.158083558,0.209780842,0.267080366,0.365055234
0.15813753,0.209911691,0.26691553,0.36503525
0.158191592,0.21004476,0.266749548,0.3650141
0.158245735,0.21018004,0.266582437,0.364991788
0.158299947,0.210317526,0.26641421,0.364968317
0.158354217,0.210457214,0.266244881,0.364943688
0.158408532,0.210599102,0.266074465,0.364917902
0.158462879,0.21074319,0.265902974,0.364890958
0.158517244,0.210889477,0.265730423,0.364862856
0.158571616,0.211037961,0.265556826,0.364833597
0.158625978,0.21118864,0.2653822,0.364803181
0.158680318,0.211341513,0.265206559,0.36477161
0.158734622,0.211496576,0.265029919,0.364738884
0.158788875,0.211653828,0.264852294,0.364705004
0.158843063,0.211813267,0.264673699,0.364669971
0.158897172,0.211974892,0.264494149,0.364633786
0.15895119,0.212138698,0.26431366,0.364596452
0.159005103,0.212304684,0.264132246,0.364557968
0.159058895,0.212472844,0.263949923,0.364518338
0.15911255,0.212643175,0.263766708,0.364477567
0.159166049,0.21281567,0.263582619,0.364435662
0.159219374,0.212990323,0.263397675,0.364392628
0.159272508,0.213167123,0.2632119,0.364348469
0.159325432,0.213346062,0.263025316,0.36430319
0.159378127,0.213527125,0.262837951,0.364256798
0.159430573,0.213710298,0.262649832,0.364209298
0.15948275,0.213895564,0.262460985,0.364160701
0.159534636,0.214082904,0.262271438,0.364111022
0.159586213,0.214272295,0.262081215,0.364060277
0.159637459,0.214463715,0.261890341,0.364008485
0.159688355,0.214657137,0.26169884,0.363955667
0.159738881,0.214852536,0.261506735,0.363901849
0.159789015,0.215049882,0.261314047,0.363847057
0.159838737,0.215249145,0.261120797,0.36379132
0.159888027,0.215450295,0.260927008,0.36373467
0.159936866,0.215653299,0.2607327,0.363677136
0.159985236,0.215858122,0.260537894,0.363618748
0.160033119,0.216064732,0.260342612,0.363559538
0.160080497,0.216273092,0.260146874,0.363499537
0.160127354,0.216483165,0.259950701,0.36343878
0.160173672,0.216694913,0.259754112,0.363377303
0.160219434,0.216908297,0.259557127,0.363315141
0.160264624,0.217123279,0.259359763,0.363252334
0.160309221,0.21733982,0.259162037,0.363188921
0.160353208,0.21755788,0.258963968,0.363124943
0.160396566,0.217777419,0.258765575,0.36306044
0.160439274,0.217998393,0.258566877,0.362995456
0.160481315,0.218220756,0.258367896,0.362930033
0.160522669,0.218444462,0.258168652,0.362864217
0.160563322,0.21866946,0.257969169,0.36279805
0.16060326,0.218895701,0.257769466,0.362731573
0.16064247,0.219123136,0.257569566,0.362664828
0.16068094,0.219351715,0.257369491,0.362597854
0.160718661,0.219581388,0.257169266,0.362530685
0.16075562,0.219812106,0.256968914,0.36246336
0.160791808,0.220043819,0.256768462,0.36239591
0.160827216,0.220276477,0.256567935,0.362328372
0.160861832,0.220510028,0.256367362,0.362260779
0.160895648,0.220744422,0.256166767,0.362193163
0.160928656,0.220979608,0.255966179,0.362125557
0.160960846,0.221215536,0.255765623,0.362057996
0.160992209,0.221452155,0.255565127,0.361990509
0.161022738,0.221689416,0.255364719,0.361923127
0.161052423,0.221927271,0.255164426,0.36185588
0.161081254,0.22216567,0.254964278,0.361788797
0.161109223,0.222404569,0.254764302,0.361721906
0.161136319,0.222643923,0.254564525,0.361655234
0.161162534,0.222883688,0.254364973,0.361588806
0.161187856,0.223123823,0.254165674,0.361522647
0.161212277,0.22336429,0.253966655,0.361456779
0.161235784,0.22360505,0.253767943,0.361391223
0.161258367,0.223846069,0.253569568,0.361325997
0.161280012,0.224087312,0.253371557,0.361261119
0.161300707,0.224328749,0.253173939,0.361196605
0.161320438,0.224570348,0.252976742,0.361132472
0.16133919,0.224812078,0.252779993,0.361068739
0.161356948,0.225053908,0.252583718,0.361005426
0.161373698,0.225295809,0.252387941,0.360942551
0.161389424,0.225537754,0.252192689,0.360880134
0.16140411,0.225779717,0.251997982,0.36081819
0.161417741,0.226021677,0.251803846,0.360756736
0.161430301,0.226263608,0.251610303,0.360695788
0.161441773,0.22650549,0.251417375,0.360635362
0.161452143,0.226747299,0.251225085,0.360575473
0.161461394,0.226989013,0.251033454,0.360516139
0.161469513,0.227230609,0.250842502,0.360457376
0.161476485,0.227472063,0.250652251,0.360399201
0.161482294,0.227713353,0.25046272,0.360341633
0.16148693,0.227954456,0.250273928,0.360284687
0.16149038,0.228195348,0.250085892,0.36022838
0.161492633,0.228436007,0.24989863,0.360172729
0.16149368,0.228676411,0.249712157,0.360117751
0.161493513,0.228916538,0.249526489,0.360063461
0.161492124,0.229156364,0.249341638,0.360009874
0.161489511,0.229395869,0.249157617,0.359957003
0.161485671,0.229635031,0.248974437,0.359904861
0.161480603,0.229873829,0.248792108,0.35985346
0.161474309,0.230112243,0.248610638,0.35980281
0.161466793,0.230350253,0.248430032,0.359752922
0.161458056,0.230587837,0.248250297,0.359703809
0.161448105,0.230824976,0.248071438,0.35965548
0.161436948,0.231061648,0.24789346,0.359607945
0.161424594,0.231297829,0.24771637,0.359561208
0.161411057,0.231533497,0.247540173,0.359515272
0.16139635,0.23176863,0.247364878,0.359470142
0.161380489,0.232003203,0.24719049,0.359425819
0.161363486,0.232237192,0.247017018,0.359382304
0.161345358,0.232470572,0.246844471,0.359339599
0.161326118,0.23270332,0.246672857,0.359297705
0.161305784,0.232935411,0.246502185,0.35925662
0.16128437,0.233166821,0.246332466,0.359216343
0.161261893,0.233397525,0.24616371,0.359176872
0.161238369,0.233627498,0.245995928,0.359138205
0.161213817,0.233856716,0.24582913,0.359100338
0.161188252,0.234085154,0.245663325,0.359063269
0.161161691,0.23431279,0.245498524,0.359026995
0.161134152,0.234539599,0.245334737,0.358991512
0.161105649,0.234765559,0.245171972,0.358956819
0.1610762,0.234990648,0.245010239,0.358922913
0.16104582,0.235214845,0.244849543,0.358889792
0.161014524,0.235438127,0.24468989,0.35885746
0.160982328,0.235660472,0.244531282,0.358825918
0.160949246,0.235881857,0.244373724,0.358795173
0.160915294,0.236102261,0.244217216,0.358765229
0.160880488,0.236321664,0.244061761,0.358736087
0.160844842,0.236540048,0.243907359,0.358707751
0.160808372,0.236757397,0.243754011,0.35868022
0.160771092,0.236973695,0.243601716,0.358653496
0.16073302,0.237188927,0.243450474,0.358627579
0.16069417,0.237403077,0.243300282,0.358602471
0.160654558,0.237616131,0.24315114,0.358578172
0.160614199,0.237828074,0.243003044,0.358554683
0.160573107,0.238038892,0.242855994,0.358532007
0.160531296,0.238248571,0.242709987,0.358510145
0.160488781,0.238457098,0.242565024,0.358489097
0.160445572,0.238664458,0.242421104,0.358468866
0.160401684,0.238870641,0.242278226,0.35844945
0.160357127,0.239075635,0.24213639,0.358430849
0.160311912,0.239279429,0.241995595,0.358413063
0.160266052,0.239482016,0.241855841,0.358396092
0.160219556,0.239683385,0.241717128,0.358379932
0.160172436,0.23988353,0.241579455,0.35836458
0.160124702,0.240082445,0.24144282,0.358350034
0.160076364,0.240280126,0.241307223,0.358336288
0.160027432,0.240476569,0.241172659,0.35832334
0.159977914,0.240671772,0.241039126,0.358311189
0.159927821,0.240865729,0.240906619,0.358299832
0.159877159,0.241058436,0.240775135,0.35828927
0.159825936,0.241249889,0.240644674,0.358279501
0.15977416,0.241440082,0.240515232,0.358270526
0.159721838,0.241629008,0.24038681,0.358262343
0.159668978,0.241816663,0.240259406,0.358254952
0.159615584,0.242003044,0.240133019,0.358248352
0.159561664,0.242188149,0.240007647,0.358242541
0.159507221,0.242371978,0.239883287,0.358237514
0.159452258,0.242554532,0.239759939,0.35823327
0.159396781,0.242735812,0.239637602,0.358229805
0.159340793,0.242915818,0.239516273,0.358227117
0.159284299,0.243094551,0.239395952,0.358225199
0.159227305,0.243272013,0.239276636,0.358224046
0.159169815,0.243448207,0.239158327,0.358223651
0.159111836,0.243623136,0.239041024,0.358224005
0.159053373,0.243796802,0.238924727,0.358225098
0.158994431,0.24396921,0.238809438,0.358226921
0.158935017,0.24414036,0.238695157,0.358229466
0.158875136,0.244310256,0.238581886,0.358232722
0.158814794,0.2444789,0.238469625,0.358236681
0.158753998,0.244646292,0.238358377,0.358241332
0.158692755,0.244812434,0.238248144,0.358246667
0.158631071,0.244977325,0.238138928,0.358252675
0.158568954,0.245140966,0.23803073,0.35825935
0.158506411,0.245303355,0.237923551,0.358266683
0.158443451,0.245464491,0.237817391,0.358274667
0.15838008,0.245624375,0.237712249,0.358283296
0.158316309,0.245783004,0.237608127,0.358292561
0.158252144,0.245940378,0.237505022,0.358302456
0.158187594,0.246096497,0.237402934,0.358312975
0.158122668,0.24625136,0.237301861,0.358324111
0.158057373,0.246404965,0.237201802,0.35833586
0.157991718,0.246557312,0.237102757,0.358348214
0.15792571,0.246708399,0.237004723,0.358361168
0.157859357,0.246858224,0.236907699,0.35837472
0.157792666,0.247006786,0.236811683,0.358388865
0.157725643,0.247154083,0.236716673,0.358403601
0.157658296,0.247300111,0.236622668,0.358418926
0.15759063,0.24744487,0.236529664,0.358434836
0.157522655,0.247588357,0.236437659,0.358451329
0.157454376,0.247730571,0.236346651,0.358468403
0.157385801,0.24787151,0.236256637,0.358486052
0.157316936,0.248011176,0.236167615,0.358504273
0.15724779,0.248149567,0.236079581,0.358523062
0.15717837,0.248286684,0.235992534,0.358542413
0.157108683,0.248422526,0.235906469,0.358562322
0.157038738,0.248557093,0.235821383,0.358582785
0.156968545,0.248690384,0.235737272,0.358603798
0.156898111,0.248822398,0.235654132,0.358625358
0.156827446,0.248953132,0.235571958,0.358647463
0.156756557,0.249082587,0.235490745,0.35867011
0.156685454,0.249210762,0.235410488,0.358693296
0.156614146,0.249337656,0.235331181,0.358717017
0.156542641,0.249463269,0.235252821,0.358741269
0.156470947,0.249587604,0.235175402,0.358766048
0.156399073,0.24971066,0.235098918,0.358791349
0.156327028,0.249832441,0.235023365,0.358817167
0.156254818,0.249952951,0.234948735,0.358843495
0.156182452,0.250072198,0.234875024,0.358870327
0.156109937,0.250190185,0.234802225,0.358897654
0.156037279,0.25030692,0.234730333,0.358925467
0.155964488,0.250422409,0.234659344,0.358953759
0.155891569,0.250536658,0.234589252,0.358982522
0.155818529,0.250649673,0.234520052,0.359011746
0.155745377,0.250761462,0.234451739,0.359041422
0.155672118,0.250872034,0.234384308,0.35907154
0.15559876,0.250981396,0.234317754,0.359102091
0.155525308,0.251089559,0.234252069,0.359133064
0.155451769,0.251196533,0.23418725,0.359164449
0.155378149,0.251302329,0.234123289,0.359196233
0.155304454,0.25140696,0.234060182,0.359228405
0.155230691,0.251510436,0.233997922,0.359260952
0.155156865,0.251612771,0.233936503,0.359293861
0.155082982,0.251713979,0.233875917,0.359327122
0.155009047,0.251814075,0.233816158,0.35936072
0.154935066,0.251913071,0.233757218,0.359394645
0.154861044,0.252010981,0.23369909,0.359428885
0.154786984,0.252107818,0.233641771,0.359463426
0.154712892,0.252203596,0.233585255,0.359498258
0.154638769,0.252298328,0.233529537,0.359533366
0.15456462,0.25239203,0.233474611,0.359568738
0.154490447,0.252484719,0.233420472,0.359604361
0.154416253,0.252576412,0.233367113,0.359640222
0.15434204,0.252667124,0.233314527,0.359676309
0.154267809,0.252756872,0.233262706,0.359712612
0.154193565,0.25284567,0.233211644,0.359749121
0.154119309,0.252933532,0.233161335,0.359785823
0.154045046,0.253020472,0.233111772,0.35982271
0.15397078,0.253106503,0.233062948,0.359859769
0.153896514,0.253191639,0.233014857,0.35989699
0.153822253,0.253275895,0.23296749,0.359934362
0.153748001,0.253359283,0.23292084,0.359971876
0.153673765,0.253441815,0.232874901,0.360009519
0.153599548,0.253523503,0.232829665,0.360047284
0.153525356,0.253604359,0.232785125,0.36008516
0.153451195,0.253684392,0.232741275,0.360123138
0.15337707,0.253763612,0.232698106,0.360161212
0.153302987,0.253842029,0.232655611,0.360199373
0.153228952,0.253919653,0.232613781,0.360237614
0.15315497,0.253996491,0.232572609,0.360275929
0.153081048,0.254072553,0.232532088,0.360314311
0.153007192,0.254147845,0.232492209,0.360352753
0.152933408,0.254222377,0.232452965,0.36039125
0.152859702,0.254296156,0.232414348,0.360429795
0.152786079,0.25436919,0.23237635,0.360468382
0.152712547,0.254441487,0.232338963,0.360507004
0.152639112,0.254513054,0.232302179,0.360545654
0.152565783,0.254583899,0.232265993,0.360584324
0.152492568,0.254654032,0.232230396,0.360623005
0.152419473,0.254723458,0.232195381,0.360661687
0.152346508,0.254792188,0.232160942,0.360700362
0.152273682,0.254860227,0.232127072,0.360739019
0.152201003,0.254927585,0.232093765,0.360777648
0.152128479,0.254994267,0.232061015,0.360816239
0.152056119,0.255060281,0.232028817,0.360854783
0.15198393,0.255125635,0.231997166,0.36089327
0.15191192,0.255190334,0.231966055,0.360931691
0.151840098,0.255254387,0.231935477,0.360970038
0.15176847,0.2553178,0.231905428,0.361008301
0.151697044,0.255380582,0.231875901,0.361046472
0.151625828,0.25544274,0.231846891,0.361084542
0.151554828,0.255504281,0.23181839,0.361122501
0.15148405,0.255565214,0.231790393,0.361160342
0.151413502,0.255625546,0.231762897,0.361198055
0.15134319,0.255685283,0.231735895,0.361235632
0.151273119,0.255744434,0.231709384,0.361273063
0.151203295,0.255803006,0.23168336,0.361310339
0.151133723,0.255861007,0.231657819,0.361347451
0.151064408,0.255918443,0.231632759,0.361384389
0.150995355,0.255975322,0.231608177,0.361421146
0.150926569,0.256031651,0.231584069,0.361457711
0.150858053,0.256087436,0.231560432,0.361494078
0.150789812,0.256142687,0.231537263,0.361530238
0.15072185,0.256197411,0.231514555,0.361566183
0.15065417,0.25625162,0.231492303,0.361601907
0.150586774,0.256305322,0.231470502,0.361637402
0.150519663,0.256358531,0.231449143,0.361672663
0.150452841,0.256411255,0.231428222,0.361707683
0.150386307,0.256463505,0.231407731,0.361742457
0.150320065,0.256515291,0.231387666,0.361776978
0.150254114,0.256566623,0.23136802,0.361811243
0.150188454,0.256617512,0.231348788,0.361845246
0.150123087,0.256667964,0.231329964,0.361878985
0.150058013,0.256717989,0.231311541,0.361912457
0.149993233,0.256767593,0.231293514,0.36194566
0.149928749,0.256816785,0.231275876,0.36197859
0.149864563,0.256865573,0.23125862,0.362011245
0.149800678,0.256913963,0.231241738,0.362043621
0.149737095,0.256961964,0.231225225,0.362075716
0.149673815,0.257009586,0.231209071,0.362107527
0.149610839,0.257056839,0.231193269,0.362139054
0.149548165,0.257103732,0.231177809,0.362170293
0.149485795,0.257150277,0.231162684,0.362201243
0.149423728,0.257196487,0.231147885,0.3622319
0.149361963,0.257242372,0.231133404,0.36226226
0.149300498,0.257287949,0.231119234,0.362292319
0.149239332,0.25733323,0.231105366,0.362322072
0.149178463,0.257378228,0.231091793,0.362351516
0.149117888,0.257422957,0.231078506,0.362380648
0.149057605,0.257467428,0.231065498,0.362409469
0.148997609,0.257511652,0.23105276,0.36243798
0.148937897,0.257555639,0.231040284,0.362466181
0.148878466,0.257599397,0.231028062,0.362494075
0.148819312,0.257642936,0.231016088,0.362521663
0.148760433,0.257686263,0.231004356,0.362548948
0.148701826,0.257729385,0.230992857,0.362575932
0.148643486,0.257772311,0.230981586,0.362602617
0.148585413,0.257815047,0.230970536,0.362629004
0.148527601,0.257857602,0.230959699,0.362655097
0.148470048,0.257899986,0.230949069,0.362680897
0.14841275,0.257942209,0.230938638,0.362706404
0.148355702,0.257984281,0.230928399,0.362731618
0.148298901,0.258026214,0.230918345,0.362756539
0.148242345,0.258068018,0.230908471,0.362781167
0.148186029,0.258109702,0.230898769,0.362805501
0.148129951,0.258151276,0.230889232,0.362829541
0.14807411,0.258192748,0.230879855,0.362853287
0.148018503,0.258234125,0.230870632,0.36287674
0.147963129,0.258275414,0.230861556,0.362899901
0.14790799,0.258316624,0.230852618,0.362922769
0.147853086,0.25835776,0.23084381,0.362945343
0.147798419,0.258398833,0.230835125,0.362967624
0.147743989,0.258439849,0.230826551,0.362989611
0.147689797,0.258480818,0.23081808,0.363011305
0.147635844,0.258521747,0.230809703,0.363032706
0.147582133,0.258562644,0.23080141,0.363053814
0.147528663,0.258603516,0.230793191,0.36307463
0.147475438,0.258644368,0.230785038,0.363095156
0.147422459,0.258685207,0.23077694,0.363115394
0.147369728,0.258726038,0.230768889,0.363135345
0.147317247,0.258766865,0.230760876,0.363155011
0.147265019,0.258807694,0.230752892,0.363174396
0.147213044,0.258848528,0.230744926,0.363193502
0.147161325,0.258889374,0.230736968,0.363212333
0.147109862,0.258930235,0.230729008,0.363230895
0.147058656,0.258971113,0.230721036,0.363249195
0.147007707,0.259012013,0.230713039,0.363267241
0.146957015,0.259052936,0.230705007,0.363285042
0.14690658,0.259093888,0.23069693,0.363302603
0.146856401,0.25913487,0.230688797,0.363319933
0.146806477,0.259175885,0.230680599,0.363337039
0.14675681,0.259216938,0.230672327,0.363353926
0.146707397,0.259258029,0.230663973,0.363370602
0.146658237,0.259299161,0.230655528,0.363387073
0.14660933,0.259340337,0.230646987,0.363403346
0.146560674,0.25938156,0.23063834,0.363419426
0.146512268,0.259422831,0.230629581,0.363435319
0.14646411,0.259464155,0.230620704,0.363451031
0.146416199,0.259505535,0.230611701,0.363466565
0.146368533,0.259546973,0.230602568,0.363481926
0.14632111,0.259588472,0.230593297,0.363497121
0.14627393,0.259630034,0.230583884,0.363512152
0.146226989,0.259671663,0.230574325,0.363527024
0.146180287,0.259713359,0.230564613,0.363541741
0.146133821,0.259755127,0.230554747,0.363556306
0.14608759,0.259796969,0.230544721,0.36357072
0.146041592,0.259838888,0.230534532,0.363584988
0.145995826,0.259880888,0.230524177,0.363599109
0.145950288,0.259922972,0.230513653,0.363613087
0.145904979,0.259965142,0.230502954,0.363626925
0.145859895,0.260007404,0.230492078,0.363640623
0.145815036,0.260049758,0.23048102,0.363654186
0.145770399,0.260092209,0.230469777,0.363667614
