0.046114051,0.417147252,0.365743143,0.170995554
0.04597655,0.417068565,0.365920818,0.171034067
0.045839389,0.416991156,0.366098592,0.171070863
0.045702579,0.416915013,0.366276474,0.171105934
0.04556613,0.416840123,0.366454474,0.171139273
0.04543005,0.416766475,0.3666326,0.171170874
0.045294351,0.416694059,0.366810861,0.17120073
0.045159041,0.416622863,0.366989263,0.171228833
0.045024132,0.416552878,0.367167815,0.171255175
0.044889631,0.416484096,0.367346525,0.171279749
0.044755547,0.416416507,0.367525403,0.171302543
0.044621889,0.416350106,0.367704456,0.171323549
0.044488667,0.416284887,0.367883692,0.171342754
0.044355888,0.416220852,0.368063115,0.171360145
0.044223561,0.416158008,0.368242725,0.171375706
0.044091695,0.416096365,0.368422519,0.171389421
0.043960299,0.416035937,0.368602491,0.171401273
0.043829381,0.415976738,0.368782636,0.171411245
0.043698949,0.415918786,0.368962946,0.17141932
0.043569009,0.415862107,0.369143405,0.171425479
0.043439568,0.415806736,0.369323995,0.171429701
0.043310634,0.41575271,0.369504694,0.171431962
0.043182214,0.415700069,0.369685477,0.17143224
0.043054315,0.415648856,0.36986632,0.17143051
0.042926943,0.415599128,0.370047188,0.171426741
0.042800103,0.415550966,0.370228033,0.171420899
0.042673795,0.415504476,0.370408791,0.171412938
0.04254802,0.415459777,0.370589391,0.171402812
0.042422778,0.415416997,0.370769755,0.17139047
0.042298069,0.415376266,0.370949803,0.171375862
0.042173893,0.415337722,0.37112945,0.171358935
0.042050248,0.415301507,0.37130861,0.171339634
0.041927136,0.415267766,0.371487193,0.171317905
0.041804554,0.415236643,0.37166511,0.171293692
0.041682503,0.415208285,0.371842269,0.171266942
0.041560981,0.415182834,0.372018585,0.1712376
0.041439986,0.415160428,0.37219397,0.171205616
0.041319515,0.415141205,0.372368341,0.171170939
0.041199568,0.415125295,0.372541617,0.17113352
0.04108014,0.415112829,0.372713718,0.171093312
0.040961232,0.415103932,0.372884566,0.17105027
0.040842839,0.415098728,0.373054085,0.171004348
0.040724959,0.415097337,0.373222202,0.170955502
0.040607591,0.415099874,0.373388847,0.170903688
0.04049073,0.415106451,0.373553953,0.170848866
0.040374375,0.415117176,0.373717454,0.170790995
0.040258522,0.415132153,0.373879287,0.170730038
0.04014317,0.415151485,0.374039388,0.170665956
0.040028316,0.415175274,0.374197693,0.170598717
0.039913955,0.415203619,0.374354138,0.170528288
0.039800086,0.415236613,0.374508657,0.170454643
0.039686704,0.41527435,0.374661189,0.170377757
0.039573805,0.415316916,0.374811668,0.17029761
0.039461385,0.415364395,0.374960035,0.170214185
0.03934944,0.415416863,0.375106225,0.170127472
0.039237966,0.415474393,0.375250176,0.170037465
0.039126957,0.415537052,0.375391823,0.169944168
0.039016408,0.415604904,0.375531101,0.169847587
0.038906316,0.415678008,0.375667948,0.169747728
0.038796675,0.415756424,0.375802302,0.169644599
0.038687481,0.415840209,0.375934104,0.169538206
0.038578728,0.415929416,0.376063298,0.169428557
0.038470412,0.4160241,0.37618983,0.169315658
0.038362528,0.416124313,0.376313645,0.169199514
0.038255072,0.416230103,0.376434693,0.169080132
0.038148041,0.416341517,0.376552922,0.16895752
0.038041433,0.416458597,0.376668284,0.168831685
0.037935247,0.416581382,0.376780735,0.168702636
0.037829483,0.416709906,0.376890232,0.16857038
0.037724139,0.4168442,0.376996733,0.168434929
0.037619217,0.416984294,0.377100197,0.168296292
0.037514718,0.417130212,0.377200587,0.168154482
0.037410646,0.417281977,0.377297863,0.168009513
0.037307004,0.417439609,0.377391984,0.167861403
0.037203794,0.417603125,0.37748291,0.167710172
0.03710102,0.417772538,0.3775706,0.167555841
0.036998685,0.417947861,0.377655019,0.167398435
0.036896793,0.418129103,0.377736128,0.167237975
0.036795347,0.418316275,0.377813894,0.167074484
0.036694352,0.418509385,0.37788828,0.166907983
0.036593813,0.418708444,0.377959252,0.16673849
0.036493735,0.418913462,0.378026776,0.166566027
0.036394123,0.41912445,0.378090817,0.166390611
0.036294981,0.419341414,0.378151342,0.166212262
0.036196316,0.41956436,0.378208321,0.166031003
0.03609813,0.419793291,0.378261726,0.165846853
0.036000427,0.420028204,0.378311532,0.165659837
0.035903209,0.42026909,0.37835772,0.165469981
0.03580648,0.420515935,0.37840027,0.165277315
0.03571024,0.420768722,0.378439165,0.165081874
0.035614491,0.421027436,0.378474384,0.16488369
0.035519233,0.421292061,0.378505906,0.164682799
0.035424468,0.421562588,0.378533708,0.164479236
0.035330194,0.421839008,0.37855776,0.164273038
0.035236411,0.422121321,0.378578027,0.164064241
0.035143117,0.422409533,0.378594474,0.163852877
0.03505031,0.422703651,0.378607061,0.163638979
0.034957991,0.423003682,0.378615749,0.163422578
0.034866158,0.423309636,0.378620501,0.163203705
0.034774811,0.423621527,0.378621274,0.162982388
0.034683947,0.423939374,0.378618024,0.162758654
0.034593566,0.4242632,0.378610705,0.162532529
0.034503665,0.424593027,0.378599268,0.16230404
0.034414243,0.424928875,0.378583666,0.162073215
0.034325298,0.425270765,0.378563853,0.161840085
0.034236827,0.42561871,0.378539781,0.161604681
0.034148828,0.425972723,0.378511411,0.161367037
0.034061299,0.426332812,0.378478702,0.161127187
0.033974236,0.426698983,0.378441617,0.160885163
0.033887636,0.427071241,0.37840012,0.160641003
0.033801497,0.427449587,0.378354172,0.160394743
0.033715817,0.427834021,0.378303736,0.160146426
0.033630594,0.428224546,0.37824877,0.15989609
0.033545823,0.42862117,0.37818923,0.159643777
0.033461501,0.429023905,0.378125071,0.159389523
0.033377624,0.429432764,0.378056248,0.159133364
0.033294188,0.429847755,0.377982722,0.158875336
0.033211185,0.430268887,0.377904456,0.158615471
0.033128611,0.430696167,0.377821418,0.158353804
0.033046458,0.431129598,0.377733581,0.158090364
0.032964717,0.431569177,0.377640922,0.157825184
0.032883381,0.432014901,0.377543424,0.157558293
0.032802442,0.432466765,0.377441068,0.157289725
0.032721891,0.432924761,0.377333838,0.15701951
0.032641722,0.433388878,0.377221718,0.156747683
0.032561927,0.433859101,0.377104696,0.156474276
0.032482498,0.434335411,0.376982765,0.156199325
0.03240343,0.434817787,0.376855916,0.155922867
0.032324715,0.435306204,0.376724143,0.155644937
0.032246346,0.435800635,0.376587443,0.155365575
0.032168316,0.436301052,0.376445809,0.155084823
0.032090618,0.436807423,0.376299233,0.154802726
0.032013245,0.437319718,0.376147705,0.154519332
0.03193619,0.437837907,0.375991214,0.154234688
0.031859447,0.438361959,0.375829751,0.153948843
0.03178301,0.438891839,0.375663306,0.153661845
0.031706874,0.43942751,0.375491871,0.153373745
0.031631033,0.439968931,0.375315439,0.153084597
0.03155548,0.44051606,0.375134002,0.152794458
0.03148021,0.441068852,0.374947555,0.152503383
0.031405217,0.441627261,0.374756092,0.15221143
0.031330495,0.442191242,0.374559609,0.151918654
0.031256037,0.442760745,0.374358103,0.151625115
0.031181837,0.443335717,0.374151574,0.151330871
0.031107891,0.443916098,0.37394002,0.151035991
0.031034192,0.444501827,0.373723438,0.150740543
0.030960734,0.445092838,0.373501826,0.150444602
0.030887513,0.445689066,0.373275184,0.150148237
0.030814524,0.446290442,0.373043519,0.149851515
0.030741761,0.446896892,0.372806844,0.149554503
0.030669221,0.447508336,0.372565177,0.149257265
0.030596898,0.448124692,0.372318541,0.148959869
0.030524789,0.448745873,0.372066958,0.14866238
0.03045289,0.44937179,0.371810453,0.148364867
0.030381202,0.450002346,0.371549053,0.148067399
0.030309723,0.450637445,0.371282789,0.147770043
0.030238455,0.451276982,0.371011691,0.147472872
0.030167398,0.451920855,0.37073579,0.147175957
0.030096555,0.452568954,0.370455123,0.146879368
0.030025927,0.453221168,0.370169728,0.146583178
0.029955516,0.453877378,0.369879648,0.146287457
0.029885327,0.454537464,0.369584932,0.145992278
0.029815361,0.455201302,0.369285628,0.145697709
0.029745623,0.455868768,0.368981787,0.145403821
0.029676117,0.456539742,0.368673457,0.145110684
0.029606844,0.457214107,0.36836068,0.144818369
0.029537808,0.457891753,0.368043489,0.14452695
0.029469013,0.458572566,0.367721917,0.144236503
0.029400467,0.459256431,0.367395997,0.143947105
0.029332178,0.459943227,0.367065762,0.143658832
0.029264156,0.46063284,0.366731249,0.143371755
0.02919641,0.461325157,0.366392493,0.14308594
0.029128952,0.462020062,0.366049531,0.142801455
0.029061797,0.462717437,0.365702401,0.142518365
0.028994962,0.463417156,0.365351143,0.142236739
0.028928466,0.464119091,0.364995799,0.141956644
0.028862329,0.464823111,0.364636415,0.141678146
0.028796569,0.465529084,0.364273037,0.14140131
0.028731205,0.466236874,0.363905719,0.141126202
0.028666259,0.466946345,0.363534512,0.140852884
0.028601751,0.467657356,0.36315947,0.140581422
0.028537704,0.468369769,0.362780645,0.140311882
0.028474139,0.469083442,0.362398089,0.14004433
0.028411077,0.469798235,0.362011851,0.139778836
0.02834854,0.470514007,0.361621985,0.139515469
0.028286547,0.471230615,0.361228542,0.139254296
0.028225119,0.471947914,0.36083158,0.138995388
0.028164275,0.472665761,0.360431153,0.138738812
0.028104034,0.473384014,0.360027317,0.138484636
0.028044414,0.474102532,0.359620127,0.138232926
0.027985436,0.474821171,0.359209644,0.13798375
0.027927116,0.475539783,0.358795931,0.13773717
0.027869472,0.47625822,0.358379055,0.137493253
0.027812522,0.476976327,0.357959088,0.137252062
0.027756284,0.477693949,0.357536105,0.137013662
0.027700774,0.478410932,0.35711018,0.136778114
0.02764601,0.479127121,0.356681389,0.136545479
0.027592009,0.479842362,0.356249808,0.136315821
0.027538789,0.4805565,0.355815511,0.1360892
0.027486369,0.48126938,0.355378572,0.135865678
0.027434769,0.481980849,0.354939069,0.135645313
0.02738401,0.48269075,0.35449708,0.135428161
0.027334117,0.483398924,0.354052686,0.135214272
0.027285121,0.484105211,0.353605971,0.135003697
0.027237051,0.484809447,0.35315702,0.134796482
0.027189941,0.485511467,0.352705919,0.134592672
0.027143824,0.486211109,0.352252755,0.134392312
0.027098736,0.486908205,0.351797617,0.134195442
0.027054717,0.487602589,0.351340591,0.134002103
0.027011809,0.488294092,0.350881766,0.133812334
0.026970055,0.488982543,0.350421233,0.133626169
0.026929497,0.489667769,0.349959092,0.133443642
0.026890174,0.490349597,0.349495446,0.133264783
0.026852126,0.491027849,0.349030405,0.13308962
0.026815394,0.491702346,0.348564078,0.132918183
0.026780019,0.492372902,0.348096576,0.132750503
0.026746044,0.49303933,0.347628007,0.132586619
0.026713509,0.49370144,0.347158475,0.132426576
0.026682456,0.494359038,0.346688083,0.132270423
0.026652928,0.495011933,0.346216932,0.132118207
0.026624973,0.495659935,0.345745122,0.13196997
0.026598635,0.496302852,0.345272758,0.131825754
0.026573963,0.496940497,0.344799943,0.131685597
0.026551001,0.497572681,0.344326782,0.131549537
0.026529796,0.498199218,0.343853374,0.131417611
0.026510396,0.498819927,0.343379821,0.131289857
0.026492848,0.499434625,0.342906217,0.13116631
0.0264772,0.500043135,0.342432661,0.131047004
0.026463498,0.500645279,0.341959245,0.130931978
0.026451789,0.501240884,0.341486059,0.130821268
0.026442121,0.501829773,0.341013189,0.130714917
0.026434544,0.502411773,0.34054072,0.130612962
0.026429109,0.502986712,0.340068738,0.130515442
0.026425867,0.503554417,0.339597326,0.13042239
0.026424869,0.504114722,0.339126569,0.130333839
0.02642617,0.504667463,0.338656549,0.130249818
0.026429819,0.505212483,0.338187343,0.130170355
0.026435867,0.505749626,0.337719032,0.130095475
0.026444362,0.506278738,0.33725169,0.13002521
0.026455352,0.506799661,0.336785392,0.129959595
0.026468885,0.507312235,0.336320211,0.129898669
0.026485005,0.507816293,0.33585622,0.129842482
0.026503756,0.508311665,0.335393489,0.12979109
0.02652518,0.508798173,0.334932083,0.129744565
0.026549314,0.509275635,0.334472067,0.129702984
0.026576195,0.50974387,0.334013504,0.129666431
0.026605859,0.510202698,0.333556457,0.129634986
0.026638342,0.510651942,0.333100988,0.129608728
0.026673682,0.511091425,0.332647159,0.129587734
0.026711917,0.511520976,0.332195029,0.129572078
0.026753084,0.511940426,0.331744657,0.129561833
0.02679722,0.512349612,0.331296104,0.129557064
0.026844358,0.512748378,0.330849428,0.129557836
0.02689453,0.513136579,0.330404683,0.129564208
0.026947768,0.513514072,0.329961923,0.129576236
0.027004102,0.513880723,0.329521201,0.129593974
0.027063558,0.514236398,0.329082569,0.129617475
0.02712616,0.51458097,0.328646083,0.129646787
0.027191928,0.514914313,0.328211803,0.129681956
0.027260883,0.515236307,0.327779789,0.12972302
0.027333049,0.515546832,0.327350105,0.129770014
0.027408451,0.515845766,0.326922811,0.129822973
0.027487119,0.516132983,0.326497969,0.129881929
0.027569086,0.516408355,0.326075638,0.129946921
0.027654383,0.516671751,0.325655878,0.130017988
0.027743043,0.51692304,0.325238744,0.130095173
0.027835106,0.517162086,0.324824286,0.130178522
0.027930611,0.517388745,0.324412559,0.130268085
0.028029602,0.517602863,0.324003619,0.130363916
0.02813212,0.517804278,0.323597531,0.130466071
0.028238203,0.517992823,0.323194361,0.130574612
0.02834789,0.518168334,0.322794169,0.130689607
0.028461215,0.518330648,0.322397008,0.130811129
0.02857821,0.518479611,0.322002931,0.130939249
0.028698904,0.518615075,0.321611992,0.131074029
0.028823321,0.518736902,0.321224253,0.131215524
0.028951482,0.518844956,0.320839779,0.131363782
0.029083405,0.518939113,0.320458636,0.131518846
0.029219105,0.519019255,0.32008089,0.131680751
0.029358596,0.519085273,0.319706599,0.131849531
0.029501893,0.519137069,0.319335822,0.132025216
0.029649007,0.519174549,0.318968611,0.132207833
0.029799946,0.519197619,0.318605023,0.132397412
0.029954715,0.519206192,0.318245111,0.132593982
0.03011332,0.51920018,0.317888933,0.132797568
0.030275761,0.519179504,0.317536545,0.133008189
0.030442041,0.519144087,0.317188011,0.133225861
0.030612158,0.519093855,0.316843394,0.133450593
0.030786107,0.519028743,0.316502759,0.133682391
0.030963883,0.518948685,0.316166164,0.133921267
0.031145481,0.518853622,0.315833658,0.134167239
0.031330896,0.518743491,0.315505277,0.134420336
0.031520127,0.518618229,0.315181044,0.1346806
0.031713172,0.51847778,0.314860976,0.134948072
0.031910027,0.518322099,0.314545083,0.135222792
0.032110689,0.518151148,0.314233371,0.135504791
0.032315159,0.517964901,0.313925844,0.135794095
0.032523439,0.517763336,0.313622501,0.136090724
0.032735529,0.51754644,0.313323336,0.136394695
0.032951428,0.517314205,0.313028346,0.136706021
0.033171133,0.517066634,0.312737524,0.13702471
0.033394636,0.516803738,0.312450862,0.137350763
0.033621929,0.516525542,0.312168353,0.137684176
0.033853002,0.516232075,0.311889984,0.138024939
0.034087841,0.51592338,0.311615745,0.138373034
0.034326434,0.515599502,0.311345624,0.138728439
0.034568767,0.5152605,0.31107961,0.139091123
0.034814824,0.514906435,0.310817692,0.139461048
0.035064589,0.514537382,0.310559859,0.13983817
0.03531804,0.514153423,0.310306102,0.140222436
0.035575155,0.513754645,0.310056409,0.140613791
0.035835913,0.513341141,0.309810771,0.141012175
0.036100297,0.512913007,0.309569172,0.141417524
0.036368291,0.512470339,0.309331599,0.141829771
0.036639881,0.512013232,0.309098036,0.142248851
0.036915051,0.511541785,0.30886847,0.142674693
0.037193785,0.511056096,0.30864289,0.143107229
0.037476067,0.510556264,0.308421282,0.143546386
0.037761886,0.510042389,0.308203631,0.143992094
0.038051229,0.509514567,0.307989919,0.144444285
0.038344082,0.508972892,0.307780132,0.144902894
0.038640427,0.508417458,0.307574258,0.145367857
0.038940242,0.50784836,0.30737229,0.145839108
0.039243503,0.507265698,0.307174222,0.146316578
0.039550179,0.506669576,0.306980049,0.146800196
0.039860238,0.506060102,0.306789767,0.147289893
0.040173643,0.505437389,0.306603367,0.147785601
0.040490356,0.504801549,0.306420847,0.148287248
0.040810334,0.5041527,0.306242207,0.148794759
0.041133536,0.503490958,0.306067455,0.149308051
0.041459919,0.502816444,0.305896599,0.149827038
0.041789437,0.502129287,0.305729651,0.150351625
0.042122046,0.501429615,0.305566625,0.150881715
0.042457696,0.50071756,0.305407538,0.151417206
0.042796337,0.499993254,0.305252418,0.15195799
0.043137916,0.499256829,0.305101297,0.152503958
0.043482378,0.498508417,0.304954205,0.153055
0.043829664,0.497748157,0.304811174,0.153611005
0.044179718,0.49697619,0.304672234,0.154171858
0.044532482,0.496192655,0.304537421,0.154737442
0.044887898,0.49539769,0.304406777,0.155307636
0.045245909,0.494591432,0.304280345,0.155882314
0.045606456,0.493774019,0.304158173,0.156461353
0.045969478,0.492945591,0.304040305,0.157044625
0.046334916,0.492106293,0.303926786,0.157632005
0.046702705,0.491256269,0.303817662,0.158223364
0.047072785,0.490395665,0.303712975,0.158818575
0.047445093,0.489524624,0.303612772,0.159417512
0.047819568,0.488643289,0.303517097,0.160020046
0.048196149,0.4877518,0.303425999,0.160626052
0.048574777,0.486850295,0.303339528,0.161235401
0.048955392,0.485938908,0.303257738,0.161847961
0.049337937,0.485017774,0.303180682,0.162463607
0.049722356,0.484087025,0.303108405,0.163082214
0.050108599,0.483146792,0.303040948,0.163703662
0.050496618,0.482197204,0.302978345,0.164327833
0.05088637,0.48123839,0.302920633,0.164954607
0.05127781,0.480270477,0.302867845,0.165583867
0.051670894,0.479293603,0.30282001,0.166215492
0.052065576,0.478307911,0.302777151,0.166849362
0.052461807,0.477313551,0.302739284,0.167485358
0.05285954,0.476310679,0.302706417,0.168123364
0.05325872,0.475299451,0.302678553,0.168763276
0.053659295,0.47428002,0.302655689,0.169404995
0.054061209,0.473252541,0.302637819,0.170048431
0.054464405,0.472217171,0.302624932,0.170693492
0.054868829,0.471174072,0.302617013,0.171340087
0.055274423,0.470123407,0.302614044,0.171988126
0.055681131,0.469065346,0.302616006,0.172637518
0.056088897,0.468000056,0.302622878,0.173288168
0.056497666,0.46692771,0.302634642,0.173939982
0.056907383,0.465848476,0.302651281,0.17459286
0.057317996,0.464762519,0.302672775,0.175246709
0.057729455,0.463670003,0.302699106,0.175901436
0.05814171,0.462571092,0.30273025,0.176556948
0.058554713,0.461465944,0.302766186,0.177213158
0.058968416,0.460354715,0.302806894,0.177869975
0.059382777,0.459237558,0.302852354,0.178527311
0.059797755,0.458114624,0.302902546,0.179185075
0.060213309,0.456986065,0.302957449,0.179843176
0.060629399,0.455852034,0.303017044,0.180501524
0.061045982,0.454712687,0.303081306,0.181160025
0.061463015,0.453568186,0.30315021,0.18181859
0.061880456,0.452418692,0.303223725,0.182477127
0.062298263,0.451264368,0.30330182,0.183135549
0.062716396,0.450105375,0.303384461,0.183793768
0.063134814,0.448941873,0.303471613,0.184451699
0.06355348,0.44777402,0.30356324,0.185109259
0.063972356,0.446601976,0.303659305,0.185766363
0.064391405,0.445425901,0.303759767,0.186422927
0.064810593,0.444245959,0.303864583,0.187078866
0.065229885,0.443062315,0.303973707,0.187734093
0.065649249,0.441875136,0.304087092,0.188388523
0.066068651,0.440684587,0.304204689,0.189042073
0.066488057,0.439490834,0.304326451,0.189694658
0.066907436,0.438294039,0.30445233,0.190346195
0.067326754,0.437094366,0.304582277,0.190996603
0.067745982,0.435891976,0.304716243,0.191645798
0.06816509,0.43468703,0.304854178,0.192293703
0.068584046,0.433479687,0.304996033,0.192940235
0.069002821,0.432270104,0.30514176,0.193585315
0.069421385,0.431058435,0.305291313,0.194228868
0.069839709,0.42984483,0.305444642,0.194870818
0.070257768,0.428629437,0.305601699,0.195511095
0.070675535,0.4274124,0.305762436,0.196149628
0.071092984,0.426193859,0.305926805,0.196786352
0.071510087,0.424973952,0.306094756,0.197421205
0.071926818,0.423752814,0.306266239,0.198054128
0.072343151,0.422530582,0.306441201,0.198685067
0.072759056,0.421307388,0.306619586,0.199313969
0.073174506,0.420083366,0.306801339,0.19994079
0.073589471,0.418858643,0.306986403,0.200565483
0.074003924,0.417633346,0.307174724,0.201188007
0.074417836,0.416407599,0.307366247,0.201808318
0.074831181,0.415181525,0.307560917,0.202426378
0.075243934,0.413955243,0.307758676,0.203042146
0.07565607,0.412728873,0.307959469,0.203655588
0.076067563,0.411502531,0.308163238,0.204266668
0.07647839,0.410276329,0.308369926,0.204875355
0.076888526,0.409050377,0.308579475,0.205481622
0.077297949,0.407824784,0.308791825,0.206085442
0.077706635,0.406599657,0.309006921,0.206686787
0.078114561,0.405375102,0.309224706,0.207285631
0.078521704,0.404151223,0.309445126,0.207881947
0.078928039,0.402928124,0.309668127,0.20847571
0.079333545,0.401705905,0.309893656,0.209066894
0.079738196,0.400484669,0.310121661,0.209655474
0.080141969,0.399264513,0.310352091,0.210241427
0.08054484,0.398045534,0.310584897,0.21082473
0.080946784,0.396827821,0.310820029,0.211405365
0.08134778,0.395611465,0.311057441,0.211983314
0.081747801,0.394396551,0.311297084,0.212558564
0.082146826,0.393183162,0.31153891,0.213131102
0.08254483,0.391971378,0.311782875,0.213700917
0.082941789,0.390761276,0.312028934,0.214268001
0.08333768,0.389552933,0.312277044,0.214832343
0.08373248,0.388346423,0.31252716,0.215393937
0.084126166,0.387141821,0.312779238,0.215952774
0.084518716,0.385939202,0.313033232,0.216508851
0.084910105,0.384738636,0.313289098,0.217062161
0.085300312,0.383540194,0.31354679,0.217612704
0.085689314,0.382343944,0.313806265,0.218160476
0.086077091,0.381149954,0.314067479,0.218705476
0.086463622,0.379958291,0.314330389,0.219247699
0.086848889,0.378769018,0.31459495,0.219787143
0.087232872,0.377582201,0.314861121,0.220323806
0.087615553,0.376397901,0.315128859,0.220857686
0.087996913,0.375216182,0.315398123,0.221388782
0.088376933,0.374037104,0.315668871,0.221917092
0.088755595,0.372860726,0.315941063,0.222442616
0.089132882,0.371687104,0.316214658,0.222965356
0.089508774,0.370516292,0.316489616,0.223485319
0.089883254,0.369348338,0.316765897,0.22400251
0.090256303,0.368183293,0.317043463,0.224516941
0.090627903,0.3670212,0.317322278,0.225028619
0.090998035,0.365862102,0.317602306,0.225537558
0.091366679,0.364706036,0.317883515,0.226043769
0.091733814,0.363553037,0.318165877,0.226547272
0.092099419,0.362403134,0.318449361,0.227048086
0.092463471,0.361256352,0.318733938,0.227546239
0.09282595,0.360112717,0.319019578,0.228041754
0.093186836,0.358972256,0.31930625,0.228534658
0.09354611,0.357834991,0.319593927,0.229024971
0.093903755,0.356700949,0.319882581,0.229512715
0.094259756,0.355570154,0.320172183,0.229997907
0.094614098,0.354442631,0.320462705,0.230480566
0.094966767,0.353318408,0.320754118,0.230960707
0.095317753,0.352197509,0.321046393,0.231438346
0.095667044,0.35107996,0.321339499,0.231913498
0.09601463,0.349965786,0.321633407,0.232386176
0.096360504,0.348855014,0.321928087,0.232856394
0.096704657,0.347747669,0.322223511,0.233324163
0.097047081,0.346643778,0.322519649,0.233789492
0.097387767,0.345543367,0.322816476,0.23425239
0.097726709,0.344446463,0.323113966,0.234712862
0.0980639,0.343353089,0.323412097,0.235170915
0.098399335,0.34226327,0.323710848,0.235626548
0.098733008,0.341177031,0.324010202,0.23607976
0.099064912,0.340094396,0.324310145,0.236530547
0.099395042,0.339015393,0.324610662,0.236978903
0.099723391,0.337940048,0.324911739,0.237424822
0.100049955,0.336868388,0.32521336,0.237868297
0.100374727,0.335800439,0.325515512,0.238309321
0.100697704,0.334736226,0.32581818,0.23874789
0.101018882,0.333675774,0.326121347,0.239183997
0.101338256,0.332619107,0.326424999,0.239617638
0.101655822,0.331566252,0.326729119,0.240048806
0.101971574,0.330517237,0.32703369,0.240477499
0.102285508,0.329472087,0.327338693,0.240903712
0.102597616,0.328430832,0.327644111,0.241327441
0.102907895,0.327393498,0.327949924,0.241748683
0.103216338,0.326360115,0.328256112,0.242167435
0.10352294,0.325330713,0.328562653,0.242583694
0.103827695,0.324305319,0.328869526,0.242997459
0.104130598,0.323283965,0.32917671,0.243408727
0.104431645,0.322266677,0.329484181,0.243817497
0.104730829,0.321253484,0.329791919,0.244223768
0.105028146,0.320244413,0.330099902,0.244627538
0.105323593,0.31923949,0.330408111,0.245028806
0.105617165,0.318238741,0.330716526,0.245427568
0.105908859,0.31724219,0.33102513,0.24582382
0.106198672,0.316249861,0.331333908,0.246217559
0.1064866,0.315261775,0.331642844,0.24660878
0.106772641,0.314277952,0.331951927,0.24699748
0.10705679,0.313298408,0.332261147,0.247383655
0.107339045,0.31232316,0.332570494,0.247767301
0.107619407,0.311352222,0.332879955,0.248148416
0.107897874,0.310385607,0.333189521,0.248526997
0.108174448,0.309423327,0.33349918,0.248903045
0.108449131,0.308465393,0.333808918,0.249276557
0.108721924,0.307511814,0.334118726,0.249647537
0.108992829,0.306562596,0.33442859,0.250015984
0.109261849,0.305617746,0.3347385,0.250381904
0.109528987,0.304677269,0.335048444,0.2507453
0.109794246,0.303741167,0.335358411,0.251106176
0.110057628,0.302809446,0.335668389,0.251464537
0.110319137,0.301882108,0.335978369,0.251820387
0.110578776,0.300959155,0.33628834,0.25217373
0.11083655,0.300040589,0.336598289,0.252524573
0.11109246,0.299126411,0.336908205,0.252872924
0.111346512,0.298216624,0.337218074,0.25321879
0.11159871,0.297311226,0.337527882,0.253562182
0.111849056,0.29641022,0.337837616,0.253903108
0.112097556,0.295513604,0.338147261,0.254241579
0.112344213,0.294621378,0.3384568,0.254577609
0.112589032,0.29373354,0.338766218,0.25491121
0.112832018,0.292850088,0.339075499,0.255242395
0.113073175,0.291971019,0.339384627,0.255571179
0.113312509,0.291096331,0.339693586,0.255897573
0.113550026,0.290226022,0.340002362,0.25622159
0.113785731,0.289360088,0.340310938,0.256543243
0.114019632,0.288498525,0.3406193,0.256862543
0.114251735,0.287641331,0.340927431,0.257179503
0.114482049,0.286788498,0.341235317,0.257494135
0.114710584,0.285940023,0.341542941,0.257806452
0.114937351,0.285095897,0.341850287,0.258116465
0.115162361,0.284256113,0.342157338,0.258424188
0.115385626,0.283420663,0.342464076,0.258729634
0.11560716,0.282589538,0.342770487,0.259032815
0.11582698,0.281762726,0.343076552,0.259333742
0.116045101,0.280940216,0.343382259,0.259632424
0.11626154,0.280121995,0.343687595,0.25992887
0.116476314,0.279308049,0.343992551,0.260223085
0.116689438,0.278498363,0.344297121,0.260515077
0.116900927,0.277692924,0.344601298,0.260804852
0.117110799,0.276891715,0.344905071,0.261092414
0.117319071,0.276094725,0.345208435,0.26137777
0.117525761,0.275301937,0.34551138,0.261660922
0.117730887,0.274513337,0.345813901,0.261941874
0.117934467,0.273728911,0.346115992,0.26222063
0.118136521,0.272948643,0.346417646,0.26249719
0.11833707,0.27217252,0.346718854,0.262771555
0.118536134,0.27140053,0.347019608,0.263043728
0.118733734,0.270632659,0.347319898,0.263313709
0.118929889,0.269868896,0.347619715,0.2635815
0.119124618,0.269109225,0.347919051,0.263847105
0.11931794,0.268353634,0.348217897,0.264110529
0.11950987,0.267602108,0.348516243,0.264371779
0.119700426,0.266854632,0.348814083,0.264630859
0.119889624,0.266111191,0.349111408,0.264887777
0.12007748,0.265371771,0.349408212,0.265142537
0.120264008,0.264636358,0.349704486,0.265395148
0.120449226,0.263904936,0.350000224,0.265645614
0.120633147,0.263177493,0.350295417,0.265893943
0.120815788,0.262454012,0.350590058,0.266140142
0.120997162,0.26173448,0.350884139,0.266384219
0.121177283,0.261018881,0.351177652,0.266626184
0.121356166,0.2603072,0.351470587,0.266866047
0.121533822,0.259599422,0.351762934,0.267103821
0.121710264,0.258895532,0.352054684,0.267339521
0.121885502,0.258195513,0.352345826,0.267573159
0.122059549,0.257499348,0.352636352,0.267804752
0.122232413,0.256807022,0.352926252,0.268034314
0.122404104,0.256118517,0.353215518,0.268261861
0.122574631,0.255433813,0.353504145,0.268487411
0.122744,0.254752891,0.353792131,0.268710978
0.122912217,0.254075728,0.354079474,0.268932581
0.12307929,0.253402299,0.354366172,0.269152239
0.123245224,0.252732582,0.354652221,0.269369974
0.123410026,0.252066551,0.354937616,0.269585807
0.123573704,0.251404182,0.355222354,0.26979976
0.123736265,0.25074545,0.355506426,0.270011858
0.123897718,0.250090332,0.35578983,0.27022212
0.124058072,0.2494388,0.356072559,0.27043057
0.124217335,0.24879083,0.356354609,0.270637226
0.124375517,0.248146397,0.356635977,0.270842108
0.124532629,0.247505477,0.356916658,0.271045236
0.124688679,0.246868046,0.357196649,0.271246627
0.124843676,0.246234079,0.357475944,0.271446301
0.12499763,0.245603552,0.357754539,0.271644279
0.125150548,0.244976443,0.358032428,0.271840581
0.12530244,0.244352727,0.358309606,0.272035227
0.125453312,0.24373238,0.358586071,0.272228237
0.125603174,0.24311538,0.358861817,0.27241963
0.125752032,0.242501703,0.359136841,0.272609425
0.125899896,0.241891325,0.35941114,0.272797639
0.126046774,0.241284226,0.359684711,0.272984289
0.126192675,0.240680383,0.359957551,0.273169391
0.126337607,0.240079776,0.360229659,0.273352958
0.126481578,0.239482384,0.360501032,0.273535006
0.126624596,0.238888187,0.360771667,0.27371555
0.126766671,0.238297167,0.361041559,0.273894603
0.126907812,0.237709303,0.361310707,0.274072179
0.127048026,0.237124577,0.361579106,0.274248291
0.127187323,0.236542971,0.361846756,0.274422949
0.127325712,0.235964468,0.362113658,0.274596162
0.127463198,0.235389051,0.362379812,0.274767939
0.12759979,0.234816701,0.362645221,0.274938288
0.127735494,0.234247403,0.362909887,0.275107216
0.127870315,0.233681138,0.363173815,0.275274732
0.128004259,0.23311789,0.363437008,0.275440844
0.12813733,0.232557639,0.363699472,0.275605559
0.128269532,0.232000371,0.363961212,0.275768886
0.128400869,0.231446067,0.364222231,0.275930833
0.128531346,0.230894711,0.364482534,0.276091408
0.128660966,0.230346287,0.364742125,0.276250622
0.128789732,0.229800778,0.365001004,0.276408485
0.128917648,0.229258169,0.365259175,0.276565008
0.129044715,0.228718441,0.36551664,0.276720204
0.129170938,0.228181578,0.3657734,0.276874083
0.12929632,0.227647564,0.366029457,0.277026659
0.129420864,0.227116381,0.366284812,0.277177942
0.129544574,0.226588014,0.366539468,0.277327944
0.129667455,0.226062445,0.366793425,0.277476676
0.12978951,0.225539659,0.367046683,0.277624147
0.129910746,0.22501964,0.367299245,0.277770369
0.130031166,0.224502373,0.367551111,0.277915351
0.130150778,0.223987842,0.36780228,0.2780591
0.130269585,0.223476033,0.368052756,0.278201626
0.130387595,0.222966931,0.368302538,0.278342936
0.130504813,0.222460521,0.368551627,0.278483039
0.130621245,0.22195679,0.368800025,0.278621941
0.130736895,0.221455722,0.369047733,0.27875965
0.130851768,0.220957305,0.369294752,0.278896175
0.130965869,0.220461522,0.369541087,0.279031522
0.131079201,0.21996836,0.369786742,0.279165696
0.131191769,0.219477806,0.370031722,0.279298704
0.131303574,0.218989844,0.370276032,0.279430549
0.13141462,0.218504463,0.370519683,0.279561234
0.131524908,0.218021649,0.370762685,0.279690758
0.131634441,0.217541387,0.371005053,0.279819119
0.13174322,0.217063666,0.371246799,0.279946314
0.13185125,0.216588471,0.371487938,0.280072341
0.131958534,0.216115791,0.37172848,0.280197195
0.132065075,0.215645612,0.371968438,0.280320874
0.132170879,0.215177922,0.372207823,0.280443377
0.132275948,0.214712708,0.372446644,0.2805647
0.132380287,0.214249959,0.372684912,0.280684841
0.1324839,0.213789663,0.372922639,0.280803799
0.132586792,0.213331807,0.373159832,0.280921569
0.132688967,0.212876381,0.373396503,0.281038149
0.13279043,0.212423371,0.37363266,0.281153538
0.132891186,0.211972767,0.373868313,0.281267734
0.132991241,0.211524556,0.37410347,0.281380733
0.133090599,0.211078727,0.374338139,0.281492535
0.133189265,0.210635269,0.374572328,0.281603138
0.133287244,0.210194169,0.374806043,0.281712544
0.13338454,0.209755416,0.375039293,0.281820751
0.133481158,0.209318999,0.375272084,0.28192776
0.133577102,0.208884906,0.375504421,0.282033571
0.133672377,0.208453126,0.375736311,0.282138185
0.133766988,0.20802365,0.375967759,0.282241603
0.133860939,0.207596466,0.37619877,0.282343825
0.133954234,0.207171564,0.37642935,0.282444853
0.134046877,0.206748933,0.376659502,0.282544688
0.134138873,0.206328564,0.37688923,0.282643333
0.134230228,0.205910445,0.377118537,0.282740789
0.134320947,0.205494566,0.377347426,0.282837061
0.134411037,0.205080917,0.377575897,0.28293215
0.134500505,0.204669487,0.377803949,0.283026059
0.134589358,0.204260267,0.378031582,0.283118794
0.134677605,0.203853245,0.378258792,0.283210358
0.134765257,0.203448411,0.378485575,0.283300757
0.134852326,0.203045754,0.378711924,0.283389996
0.134938822,0.202645264,0.378937836,0.283478078
0.135024758,0.202246931,0.379163303,0.283565008
0.135110145,0.201850746,0.37938832,0.283650789
0.135194994,0.201456698,0.379612882,0.283735426
0.135279315,0.201064779,0.379836983,0.283818923
0.135363119,0.200674979,0.380060616,0.283901286
0.135446415,0.200287289,0.380283777,0.283982519
0.135529212,0.1999017,0.380506459,0.284062629
0.13561152,0.199518204,0.380728656,0.28414162
0.135693347,0.199136792,0.380950363,0.284219498
0.135774702,0.198757458,0.381171573,0.284296267
0.135855594,0.198380192,0.381392282,0.284371932
0.135936031,0.198004988,0.381612484,0.284446497
0.136016022,0.197631837,0.381832174,0.284519968
0.136095576,0.197260731,0.382051346,0.284592347
0.136174702,0.196891662,0.382269995,0.284663641
0.136253409,0.196524623,0.382488117,0.284733852
0.136331704,0.196159605,0.382705706,0.284802985
0.136409596,0.195796602,0.382922757,0.284871045
0.136487094,0.195435606,0.383139265,0.284938036
0.136564204,0.195076611,0.383355224,0.285003962
0.136640933,0.194719611,0.383570628,0.285068828
0.136717289,0.194364601,0.383785472,0.285132638
0.136793278,0.194011573,0.383999751,0.285195398
0.136868904,0.193660524,0.384213459,0.285257113
0.136944173,0.193311448,0.384426591,0.285317788
0.137019089,0.19296434,0.384639143,0.285377428
0.137093655,0.192619194,0.384851109,0.285436041
0.137167875,0.192276005,0.385062488,0.285493632
0.137241751,0.191934765,0.385273276,0.285550207
0.137315285,0.191595469,0.385483471,0.285605775
0.137388479,0.191258111,0.385693068,0.285660342
0.137461335,0.190922684,0.385902065,0.285713916
0.137533856,0.190589183,0.386110458,0.285766503
0.137606042,0.190257602,0.386318244,0.285818112
0.137677895,0.189927936,0.386525421,0.285868748
0.137749417,0.189600177,0.386731987,0.285918419
0.137820609,0.189274321,0.386937939,0.28596713
0.137891475,0.188950361,0.387143275,0.286014889
0.137962017,0.188628291,0.387347992,0.2860617
0.138032241,0.188308104,0.387552088,0.286107567
0.138102149,0.187989795,0.387755562,0.286152494
0.138171747,0.187673357,0.387958411,0.286196485
0.138241041,0.187358782,0.388160633,0.286239544
0.138310039,0.187046062,0.388362226,0.286281674
0.138378747,0.186735188,0.388563187,0.286322879
0.138447175,0.18642615,0.388763513,0.286363162
0.138515331,0.186118942,0.3889632,0.286402527
0.138583224,0.185813554,0.389162246,0.286440976
0.138650862,0.185509977,0.389360648,0.286478514
0.138718253,0.185208204,0.389558402,0.286515142
0.138785406,0.184908225,0.389755505,0.286550864
0.138852331,0.184610031,0.389951954,0.286585683
0.138919038,0.184313615,0.390147744,0.286619602
0.138985536,0.184018968,0.390342872,0.286652624
0.139051834,0.183726079,0.390537334,0.286684752
0.139117942,0.183434941,0.390731126,0.286715991
0.139183868,0.183145544,0.390924244,0.286746345
0.139249621,0.182857878,0.391116683,0.286775818
0.13931521,0.182571934,0.391308442,0.286804415
0.139380642,0.182287703,0.391499514,0.286832141
0.139445925,0.182005175,0.391689898,0.286859001
0.139511066,0.181724342,0.391879591,0.286885001
0.139576073,0.181445195,0.392068588,0.286910144
0.139640952,0.181167725,0.392256887,0.286934436
0.13970571,0.180891922,0.392444486,0.286957883
0.139770351,0.180617779,0.39263138,0.28698049
0.139834883,0.180345285,0.392817567,0.287002265
0.139899309,0.180074433,0.393003046,0.287023213
0.139963633,0.179805212,0.393187812,0.287043342
0.140027862,0.179537615,0.393371865,0.287062659
0.140091997,0.179271633,0.3935552,0.28708117
0.140156044,0.179007256,0.393737815,0.287098884
0.140220006,0.178744477,0.393919709,0.287115807
0.140283889,0.178483288,0.394100877,0.287131947
0.140347696,0.178223679,0.394281316,0.287147309
0.140411432,0.177965643,0.394461024,0.287161901
0.140475103,0.177709172,0.394639996,0.287175729
0.140538712,0.177454258,0.39481823,0.287188799
0.140602265,0.177200894,0.394995723,0.287201118
0.140665764,0.176949072,0.395172471,0.287212693
0.140729215,0.176698784,0.395348473,0.287223527
0.140792622,0.176450023,0.395523727,0.287233628
0.140855986,0.176202783,0.39569823,0.287243001
0.140919314,0.175957056,0.39587198,0.28725165
0.140982607,0.175712834,0.396044978,0.28725958
0.141045871,0.175470112,0.396217221,0.287266796
0.141109107,0.175228881,0.396388709,0.287273303
0.141172321,0.174989134,0.396559443,0.287279103
0.141235514,0.174750863,0.396729422,0.287284201
0.14129869,0.174514061,0.396898648,0.287288601
0.141361852,0.174278719,0.397067123,0.287292306
0.141425003,0.174044829,0.397234848,0.287295321
0.141488144,0.173812381,0.397401827,0.287297648
0.141551277,0.173581367,0.397568064,0.287299292
0.141614404,0.173351775,0.397733563,0.287300257
0.141677526,0.173123598,0.397898327,0.287300549
0.141740643,0.172896824,0.398062361,0.287300171
0.141803758,0.172671445,0.398225669,0.287299128
0.141866869,0.172447449,0.398388256,0.287297426
0.141929978,0.172224828,0.398550124,0.287295071
0.141993084,0.172003572,0.398711277,0.287292068
0.142056188,0.17178367,0.398871716,0.287288426
0.142119289,0.171565113,0.399031446,0.287284152
0.142182389,0.171347891,0.399190466,0.287279254
0.142245487,0.171131996,0.399348778,0.28727374
0.142308581,0.170917419,0.39950638,0.28726762
0.142371671,0.170704153,0.39966327,0.287260906
0.142434756,0.170492189,0.399819448,0.287253607
0.142497836,0.170281519,0.399974911,0.287245734
0.142560909,0.170072136,0.400129658,0.287237297
0.142623975,0.16986403,0.400283688,0.287228307
0.142687032,0.169657196,0.400437,0.287218773
0.142750078,0.169451624,0.400589593,0.287208705
0.142813113,0.169247309,0.400741466,0.287198112
0.142876135,0.169044244,0.400892617,0.287187004
0.142939145,0.16884242,0.401043045,0.287175389
0.143002143,0.168641832,0.401192749,0.287163276
0.143065129,0.168442472,0.401341725,0.287150673
0.143128104,0.168244333,0.401489974,0.287137589
0.143191068,0.168047409,0.401637492,0.287124031
0.143254022,0.167851691,0.401784279,0.287110007
0.143316967,0.167657174,0.401930332,0.287095527
0.143379903,0.167463849,0.402075651,0.287080596
0.143442832,0.167271711,0.402220233,0.287065223
0.143505756,0.167080752,0.402364078,0.287049414
0.143568675,0.166890964,0.402507185,0.287033176
0.143631592,0.16670234,0.402649554,0.287016513
0.143694509,0.166514873,0.402791184,0.286999434
0.143757425,0.166328554,0.402932078,0.286981943
0.143820343,0.166143376,0.403072235,0.286964045
0.143883263,0.165959331,0.403211659,0.286945747
0.143946186,0.16577641,0.403350351,0.286927054
0.144009112,0.165594607,0.403488312,0.286907969
0.144072042,0.165413914,0.403625545,0.2868885
0.144134977,0.165234324,0.403762049,0.286868651
0.144197917,0.165055829,0.403897825,0.286848429
0.144260864,0.164878422,0.404032874,0.286827841
0.144323817,0.164702096,0.404167195,0.286806892
0.144386778,0.164526843,0.404300789,0.286785589
0.144449747,0.164352658,0.404433656,0.286763939
0.144512725,0.164179533,0.404565796,0.286741946
0.144575713,0.164007462,0.404697209,0.286719617
0.144638712,0.163836438,0.404827894,0.286696956
0.144701724,0.163666456,0.404957851,0.286673969
0.144764751,0.163497509,0.405087078,0.286650662
0.144827796,0.163329591,0.405215575,0.286627039
0.14489086,0.163162695,0.40534334,0.286603105
0.144953946,0.162996815,0.405470375,0.286578864
0.145017054,0.162831945,0.405596679,0.286554321
0.145080186,0.162668077,0.405722256,0.28652948
0.145143343,0.162505205,0.405847106,0.286504346
0.145206525,0.162343321,0.405971232,0.286478921
0.145269733,0.162182419,0.406094638,0.28645321
0.145332967,0.162022491,0.406217327,0.286427215
0.145396229,0.161863529,0.406339303,0.286400939
0.145459518,0.161705527,0.40646057,0.286374386
0.145522834,0.161548475,0.40658113,0.28634756
0.14558618,0.161392368,0.406700986,0.286320466
0.145649555,0.161237197,0.406820139,0.286293108
0.145712961,0.161082956,0.406938593,0.28626549
0.145776398,0.160929638,0.407056348,0.286237616
0.145839867,0.160777237,0.407173407,0.286209488
0.145903368,0.160625748,0.407289773,0.286181111
0.145966901,0.160475165,0.407405448,0.286152485
0.146030466,0.160325483,0.407520436,0.286123615
0.146094063,0.160176698,0.407634739,0.286094501
0.14615769,0.160028805,0.40774836,0.286065146
0.146221346,0.159881801,0.407861303,0.286035551
0.14628503,0.159735683,0.40797357,0.286005718
0.146348739,0.159590446,0.408085163,0.285975651
0.146412474,0.159446089,0.408196085,0.285945353
0.14647623,0.159302606,0.408306336,0.285914828
0.146540005,0.159159993,0.408415919,0.285884083
0.146603798,0.159018247,0.408524832,0.285853122
0.146667605,0.158877365,0.408633078,0.285821952
0.146731424,0.158737341,0.408740656,0.285790579
0.146795252,0.158598172,0.408847566,0.285759009
0.146859086,0.158459855,0.40895381,0.285727249
0.146922922,0.158322387,0.409059386,0.285695305
0.146986757,0.158185764,0.409164295,0.285663185
0.147050587,0.158049983,0.409268537,0.285630893
0.147114408,0.157915043,0.409372113,0.285598436
0.147178216,0.157780942,0.409475025,0.285565818
0.147242007,0.157647675,0.409577272,0.285533045
0.147305778,0.157515243,0.409678857,0.285500123
0.147369524,0.157383641,0.409779779,0.285467056
0.147433241,0.157252868,0.409880041,0.28543385
0.147496927,0.157122924,0.409979641,0.285400508
0.147560577,0.156993808,0.410078582,0.285367033
0.147624187,0.15686552,0.410176863,0.28533343
0.147687755,0.156738063,0.410274483,0.285299699
0.147751277,0.156611437,0.410371442,0.285265843
0.14781475,0.156485645,0.41046774,0.285231864
0.147878172,0.156360687,0.410563376,0.285197765
0.147941541,0.156236564,0.410658347,0.285163547
0.148004855,0.15611328,0.410752654,0.285129212
0.148068112,0.155990835,0.410846293,0.28509476
0.148131309,0.155869231,0.410939266,0.285060194
0.148194446,0.155748471,0.411031569,0.285025515
0.148257519,0.155628556,0.411123202,0.284990723
0.148320527,0.155509488,0.411214164,0.284955821
0.14838347,0.155391269,0.411304453,0.284920809
0.148446346,0.155273899,0.411394067,0.284885688
0.148509153,0.15515738,0.411483006,0.284850461
0.148571891,0.155041713,0.411571268,0.284815128
0.148634559,0.154926899,0.41165885,0.284779692
0.148697157,0.15481294,0.411745751,0.284744153
0.148759682,0.154699836,0.411831968,0.284708513
0.148822136,0.154587589,0.411917502,0.284672774
0.148884516,0.154476198,0.412002349,0.284636937
0.148946823,0.154365664,0.412086508,0.284601005
0.149009056,0.154255989,0.412169978,0.284564977
0.149071214,0.154147172,0.412252757,0.284528858
0.149133296,0.154039214,0.412334843,0.284492647
0.149195302,0.153932115,0.412416236,0.284456346
0.149257232,0.153825877,0.412496934,0.284419958
0.149319083,0.153720498,0.412576935,0.284383484
0.149380857,0.15361598,0.412656239,0.284346925
0.149442551,0.153512322,0.412734844,0.284310283
0.149504166,0.153409525,0.412812749,0.284273561
0.1495657,0.153307588,0.412889953,0.284236759
0.149627154,0.153206513,0.412966455,0.284199879
0.149688525,0.153106298,0.413042255,0.284162922
0.149749815,0.153006946,0.41311735,0.28412589
0.149811021,0.152908455,0.41319174,0.284088785
0.149872142,0.152810826,0.413265424,0.284051608
0.149933179,0.15271406,0.413338401,0.28401436
0.14999413,0.152618156,0.413410671,0.283977044
0.150054994,0.152523115,0.413482232,0.28393966
0.15011577,0.152428937,0.413553083,0.283902209
0.150176458,0.152335623,0.413623224,0.283864695
0.150237055,0.152243173,0.413692655,0.283827116
0.150297562,0.152151588,0.413761374,0.283789476
0.150357978,0.152060867,0.413829381,0.283751774
0.1504183,0.151971012,0.413896676,0.283714012
0.150478529,0.151882021,0.413963258,0.283676191
0.150538663,0.151793896,0.414029128,0.283638312
0.1505987,0.151706637,0.414094286,0.283600377
0.15065864,0.151620242,0.414158733,0.283562385
0.150718482,0.151534713,0.414222468,0.283524337
0.150778223,0.151450049,0.414285494,0.283486235
0.150837862,0.15136625,0.41434781,0.283448078
0.150897397,0.151283317,0.414409419,0.283409867
0.150956828,0.151201248,0.414470321,0.283371603
0.151016152,0.151120044,0.414530517,0.283333287
0.151075368,0.151039705,0.414590009,0.283294919
0.151134474,0.150960229,0.414648797,0.2832565
0.151193468,0.150881616,0.414706883,0.283218033
0.151252349,0.150803866,0.414764266,0.283179519
0.151311114,0.150726979,0.414820947,0.28314096
0.151369762,0.150650952,0.414876928,0.283102358
0.15142829,0.150575785,0.414932208,0.283063716
0.151486697,0.150501477,0.41498679,0.283025036
0.151544981,0.150428026,0.415040673,0.28298632
0.151603139,0.150355431,0.415093859,0.282947572
0.151661169,0.150283689,0.415146349,0.282908792
0.151719069,0.1502128,0.415198146,0.282869984
0.151776836,0.150142762,0.415249251,0.282831151
0.151834469,0.150073571,0.415299666,0.282792294
0.151891964,0.150005228,0.415349393,0.282753416
0.151949317,0.149937728,0.415398435,0.28271452
0.152006527,0.14987107,0.415446795,0.282675608
0.15206359,0.149805252,0.415494476,0.282636682
0.152120502,0.149740271,0.415541482,0.282597745
0.152177261,0.149676123,0.415587816,0.2825588
0.152233862,0.149612807,0.415633483,0.282519848
0.152290304,0.14955032,0.415678485,0.282480891
0.152346582,0.149488658,0.415722827,0.282441933
0.152402695,0.14942782,0.415766512,0.282402974
0.152458639,0.149367801,0.415809544,0.282364016
0.152514412,0.149308599,0.415851927,0.282325062
0.152570011,0.149250211,0.415893665,0.282286113
0.152625433,0.149192634,0.415934763,0.28224717
0.152680675,0.149135866,0.415975224,0.282208236
0.152735735,0.149079902,0.416015052,0.282169311
0.15279061,0.14902474,0.416054253,0.282130397
0.152845298,0.148970377,0.41609283,0.282091495
0.152899797,0.14891681,0.416130787,0.282052606
0.152954103,0.148864035,0.416168129,0.282013733
0.153008215,0.14881205,0.41620486,0.281974874
0.153062131,0.148760853,0.416240985,0.281936032
0.153115847,0.14871044,0.416276506,0.281897207
0.153169363,0.14866081,0.416311428,0.281858399
0.153222675,0.14861196,0.416345755,0.28181961
0.153275782,0.14856389,0.41637949,0.281780839
0.153328681,0.148516595,0.416412638,0.281742086
0.15338137,0.148470076,0.416445201,0.281703352
0.153433847,0.14842433,0.416477186,0.281664637
0.153486111,0.148379356,0.416508594,0.28162594
0.153538158,0.14833515,0.41653943,0.281587261
0.153589988,0.148291713,0.416569698,0.281548601
0.153641598,0.148249041,0.416599402,0.281509959
0.153692988,0.148207132,0.416628544,0.281471336
0.153744154,0.148165985,0.416657129,0.281432732
0.153795096,0.148125596,0.416685161,0.281394147
0.153845812,0.148085964,0.416712643,0.281355581
0.153896301,0.148047085,0.416739579,0.281317035
0.15394656,0.148008959,0.416765971,0.28127851
0.153996588,0.147971581,0.416791824,0.281240006
0.154046385,0.14793495,0.41681714,0.281201525
0.154095946,0.147899062,0.416841923,0.281163069
0.154145272,0.147863915,0.416866175,0.281124638
0.15419436,0.147829504,0.4168899,0.281086235
0.15424321,0.147795828,0.416913101,0.281047861
0.154291818,0.147762883,0.416935781,0.281009518
0.154340186,0.147730665,0.416957941,0.280971208
0.15438831,0.147699171,0.416979586,0.280932933
0.15443619,0.147668399,0.417000718,0.280894693
0.154483824,0.147638345,0.41702134,0.280856491
0.154531213,0.147609004,0.417041455,0.280818328
0.154578354,0.147580375,0.417061065,0.280780206
0.154625247,0.147552452,0.417080175,0.280742125
0.154671891,0.147525234,0.417098787,0.280704089
0.154718286,0.147498715,0.417116903,0.280666097
0.15476443,0.147472892,0.417134527,0.280628152
0.154810323,0.147447761,0.417151661,0.280590255
0.154855964,0.147423319,0.417168309,0.280552408
0.154901353,0.147399561,0.417184474,0.280514612
0.154946489,0.147376484,0.417200158,0.280476869
0.154991371,0.147354084,0.417215365,0.28043918
0.155035998,0.147332357,0.417230097,0.280401548
0.155080372,0.147311298,0.417244358,0.280363972
0.15512449,0.147290906,0.41725815,0.280326455
0.155168352,0.147271175,0.417271475,0.280288997
0.155211958,0.147252104,0.417284338,0.2802516
0.174186068,0.131798911,0.458057616,0.235957405
0.174197297,0.13196247,0.45783251,0.236007723
0.174207429,0.132128312,0.457607095,0.236057165
0.174216455,0.132296471,0.457381366,0.236105709
0.174224365,0.132466985,0.457155314,0.236153336
0.174231149,0.132639893,0.456928931,0.236200027
0.174236798,0.132815231,0.45670221,0.236245761
0.174241301,0.132993035,0.456475144,0.236290519
0.17424465,0.133173342,0.456247727,0.236334282
0.174246835,0.133356185,0.456019951,0.23637703
0.174247846,0.133541599,0.455791811,0.236418744
0.174247674,0.133729618,0.455563302,0.236459406
0.17424631,0.133920276,0.455334416,0.236498997
0.174243746,0.134113608,0.455105149,0.236537497
0.174239971,0.13430965,0.454875492,0.236574887
0.174234976,0.134508438,0.454645439,0.236611147
0.174228751,0.134710014,0.45441498,0.236646255
0.174221286,0.134914418,0.454184105,0.236680191
0.17421257,0.135121694,0.453952805,0.236712931
0.174202592,0.135331884,0.453721069,0.236744455
0.174191341,0.135545034,0.453488887,0.236774738
0.174178805,0.135761192,0.453256246,0.236803757
0.174164972,0.135980407,0.453023133,0.236831488
0.174149831,0.136202728,0.452789536,0.236857906
0.174133369,0.136428207,0.452555438,0.236882986
0.174115575,0.136656893,0.452320827,0.236906705
0.174096438,0.136888836,0.452085688,0.236929039
0.174075945,0.137124082,0.451850009,0.236949964
0.174054087,0.137362679,0.451613777,0.236969457
0.174030851,0.137604672,0.451376981,0.236987496
0.174006228,0.137850106,0.451139608,0.237004059
0.173980207,0.138099026,0.450901644,0.237019122
0.173952777,0.138351479,0.450663078,0.237032665
0.173923929,0.138607506,0.450423898,0.237044667
0.173893652,0.138867152,0.450184091,0.237055105
0.173861936,0.139130458,0.449943645,0.237063961
0.173828771,0.139397465,0.449702551,0.237071214
0.173794148,0.139668211,0.449460796,0.237076845
0.173758057,0.139942735,0.449218373,0.237080835
0.17372049,0.140221075,0.44897527,0.237083166
0.173681439,0.140503264,0.448731478,0.237083819
0.173640895,0.140789336,0.448486989,0.237082779
0.173598851,0.141079326,0.448241795,0.237080028
0.1735553,0.141373264,0.447995887,0.23707555
0.173510233,0.141671183,0.447749256,0.237069328
0.173463645,0.141973116,0.447501893,0.237061346
0.173415528,0.142279093,0.44725379,0.237051589
0.173365875,0.142589144,0.447004939,0.237040042
0.173314681,0.142903298,0.446755332,0.237026689
0.173261938,0.143221585,0.446504961,0.237011516
0.173207642,0.14354403,0.446253819,0.23699451
0.173151787,0.14387066,0.446001897,0.236975656
0.173094367,0.144201502,0.44574919,0.236954941
0.173035377,0.144536583,0.445495688,0.236932351
0.172974812,0.144875931,0.445241384,0.236907873
0.172912666,0.145219573,0.444986267,0.236881493
0.172848934,0.145567536,0.444730331,0.236853199
0.172783612,0.145919844,0.444473567,0.236822977
0.172716695,0.146276522,0.444215966,0.236790817
0.172648178,0.146637594,0.443957522,0.236756705
0.172578059,0.147003084,0.443698227,0.23672063
0.172506333,0.147373012,0.443438074,0.236682581
0.172432997,0.147747402,0.443177054,0.236642547
0.172358047,0.148126274,0.442915162,0.236600517
0.172281482,0.148509648,0.442652389,0.236556481
0.172203297,0.148897546,0.442388729,0.236510428
0.17212349,0.149289986,0.442124174,0.23646235
0.172042059,0.149686988,0.441858718,0.236412235
0.171959001,0.150088569,0.441592353,0.236360077
0.171874315,0.150494746,0.441325074,0.236305864
0.171788,0.150905534,0.441056876,0.23624959
0.171700053,0.151320949,0.440787751,0.236191247
0.171610474,0.151741004,0.440517695,0.236130827
0.171519262,0.15216571,0.440246704,0.236068325
0.171426417,0.152595079,0.439974771,0.236003733
0.171331938,0.153029123,0.439701893,0.235937046
0.171235824,0.153467852,0.439428065,0.235868258
0.171138077,0.153911276,0.439153283,0.235797364
0.171038694,0.154359402,0.438877544,0.235724359
0.170937677,0.15481224,0.438600844,0.235649238
0.170835027,0.155269797,0.438323179,0.235571997
0.170730742,0.155732081,0.438044545,0.235492632
0.170624823,0.156199101,0.437764939,0.235411137
0.170517271,0.156670864,0.437484357,0.235327509
0.170408085,0.157147377,0.437202796,0.235241742
0.170297266,0.157628649,0.436920252,0.235153834
0.170184814,0.158114683,0.436636722,0.235063781
0.170070729,0.158605486,0.436352206,0.234971578
0.169955013,0.159101062,0.436066702,0.234877223
0.169837664,0.159601415,0.43578021,0.234780711
0.169718684,0.160106548,0.435492728,0.234682039
0.169598074,0.160616463,0.435204258,0.234581205
0.169475835,0.161131161,0.434914798,0.234478206
0.169351968,0.161650642,0.43462435,0.23437304
0.169226475,0.162174907,0.434332912,0.234265706
0.169099358,0.162703955,0.434040484,0.234156202
0.16897062,0.163237787,0.433747066,0.234044528
0.168840261,0.1637764,0.433452657,0.233930683
0.168708286,0.164319792,0.433157257,0.233814665
0.168574698,0.164867961,0.432860866,0.233696475
0.168439498,0.165420903,0.432563485,0.233576114
0.168302691,0.165978615,0.432265113,0.23345358
0.168164281,0.166541093,0.431965752,0.233328874
0.168024269,0.167108333,0.431665401,0.233201997
0.167882661,0.167680328,0.431364061,0.233072949
0.16773946,0.168257075,0.431061735,0.23294173
0.167594671,0.168838566,0.430758421,0.232808342
0.167448296,0.169424797,0.430454122,0.232672786
0.16730034,0.170015762,0.430148837,0.232535062
0.167150806,0.170611457,0.429842566,0.232395171
0.166999699,0.171211878,0.429535309,0.232253115
0.166847021,0.171817021,0.429227065,0.232108892
0.166692777,0.172426882,0.428917836,0.231962505
0.166536969,0.173041458,0.428607619,0.231813954
0.166379602,0.173660746,0.428296414,0.231663238
0.166220677,0.174284745,0.427984219,0.231510358
0.166060198,0.174913454,0.427671033,0.231355314
0.165898168,0.175546872,0.427356855,0.231198105
0.165734588,0.176184997,0.427041683,0.231038731
0.165569463,0.176827828,0.426725517,0.230877193
0.165402793,0.17747536,0.426408356,0.230713491
0.165234584,0.17812759,0.4260902,0.230547627
0.165064836,0.178784513,0.425771049,0.230379602
0.164893555,0.179446126,0.425450902,0.230209417
0.164720741,0.180112424,0.425129761,0.230037074
0.164546399,0.180783401,0.424807624,0.229862576
0.164370531,0.181459053,0.424484494,0.229685923
0.164193141,0.182139371,0.42416037,0.229507117
0.164014232,0.182824351,0.423835255,0.229326162
0.163833807,0.183513985,0.423509149,0.229143059
0.163651869,0.184208265,0.423182056,0.22895781
0.163468422,0.184907181,0.422853978,0.228770418
0.163283469,0.185610725,0.422524921,0.228580885
0.163097011,0.186318887,0.422194889,0.228389213
0.162909052,0.187031657,0.421863887,0.228195404
0.162719595,0.187749024,0.42153192,0.227999461
0.162528641,0.188470978,0.421198995,0.227801386
0.162336193,0.189197506,0.420865121,0.22760118
0.162142253,0.189928598,0.420530304,0.227398845
0.161946823,0.190664243,0.420194552,0.227194382
0.161749904,0.191404431,0.419857874,0.226987791
0.161551497,0.192149152,0.419520277,0.226779074
0.161351603,0.192898395,0.41918177,0.226568233
0.161150223,0.193652147,0.418842365,0.226355266
0.160947357,0.194410398,0.41850207,0.226140175
0.160743007,0.195173135,0.418160896,0.225922962
0.160537173,0.195940348,0.417818854,0.225703625
0.160329855,0.196712026,0.417475952,0.225482167
0.160121052,0.197488158,0.417132203,0.225258587
0.159910766,0.198268734,0.416787616,0.225032884
0.159698994,0.199053746,0.416442202,0.224805058
0.159485737,0.199843186,0.416095969,0.224575109
0.159270994,0.200637045,0.415748926,0.224343035
0.159054764,0.201435317,0.415401082,0.224108837
0.158837048,0.202237993,0.415052445,0.223872514
0.158617844,0.203045066,0.414703025,0.223634066
0.158397153,0.203856528,0.414352828,0.223393491
0.158174973,0.204672373,0.414001864,0.22315079
0.157951305,0.205492598,0.413650138,0.22290596
0.157726146,0.206317203,0.413297654,0.222658998
0.157499493,0.207146188,0.412944417,0.222409902
0.157271346,0.207979554,0.412590433,0.222158668
0.157041702,0.208817301,0.412235705,0.221905292
0.156810558,0.20965943,0.41188024,0.221649772
0.156577913,0.210505941,0.411524043,0.221392103
0.156343763,0.211356836,0.411167118,0.221132283
0.156108108,0.212212115,0.410809471,0.220870307
0.155870944,0.213071777,0.410451105,0.220606173
0.15563227,0.213935823,0.410092028,0.220339879
0.155392085,0.214804252,0.409732242,0.220071421
0.155150387,0.215677062,0.409371753,0.219800798
0.154907177,0.21655425,0.409010566,0.219528007
0.154662453,0.217435814,0.408648687,0.219253047
0.154416215,0.218321752,0.408286119,0.218975914
0.154168463,0.219212061,0.407922868,0.218696608
0.153919197,0.220106737,0.407558942,0.218415124
0.153668418,0.221005773,0.407194347,0.218131462
0.153416126,0.221909164,0.406829092,0.217845618
0.153162321,0.222816907,0.406463182,0.21755759
0.152907004,0.223729003,0.40609662,0.217267372
0.152650175,0.224645455,0.40572941,0.216974961
0.152391832,0.225566266,0.405361551,0.216680351
0.152131977,0.22649144,0.404993044,0.216383539
0.151870609,0.227420984,0.404623889,0.216084519
0.151607727,0.228354903,0.404254083,0.215783286
0.151343333,0.229293207,0.403883624,0.215479836
0.151077426,0.230235899,0.403512511,0.215174163
0.150810008,0.231182987,0.403140741,0.214866265
0.150541079,0.23213447,0.402768315,0.214556136
0.15027064,0.233090352,0.402395235,0.214243774
0.149998692,0.234050632,0.402021499,0.213929176
0.149725237,0.235015311,0.40164711,0.213612342
0.149450277,0.235984388,0.401272067,0.213293268
0.149173812,0.236957862,0.400896371,0.212971955
0.148895846,0.237935731,0.400520021,0.212648401
0.148616379,0.238917994,0.400143019,0.212322607
0.148335415,0.239904647,0.399765366,0.211994572
0.148052954,0.240895686,0.399387063,0.211664297
0.147769001,0.241891106,0.399008111,0.211331782
0.147483556,0.2428909,0.398628515,0.210997028
0.147196624,0.243895062,0.398248278,0.210660037
0.146908205,0.244903581,0.397867404,0.21032081
0.146618304,0.245916447,0.3974859,0.209979349
0.146326923,0.246933647,0.397103773,0.209635657
0.146034063,0.247955168,0.396721031,0.209289737
0.14573973,0.248980994,0.396337684,0.208941592
0.145443925,0.250011108,0.39595374,0.208591227
0.145146652,0.251045492,0.39556921,0.208238646
0.144847915,0.252084124,0.395184105,0.207883855
0.144547718,0.253126984,0.394798437,0.20752686
0.144246065,0.25417405,0.394412219,0.207167666
0.14394296,0.255225299,0.394025463,0.206806279
0.143638406,0.256280706,0.393638183,0.206442705
0.14333241,0.257340247,0.393250394,0.206076949
0.143024975,0.258403896,0.392862109,0.205709021
0.142716105,0.259471625,0.392473344,0.205338926
0.142405806,0.260543405,0.392084113,0.204966676
0.142094082,0.261619208,0.391694431,0.204592279
0.141780939,0.262699003,0.391304314,0.204215745
0.14146638,0.263782759,0.390913778,0.203837083
0.14115041,0.264870445,0.390522842,0.203456304
0.140833033,0.265962028,0.390131524,0.203073415
0.140514255,0.267057473,0.389739845,0.202688427
0.140194079,0.268156746,0.389347825,0.202301349
0.139872511,0.269259811,0.388955487,0.201912191
0.139549556,0.270366629,0.388562852,0.201520963
0.139225219,0.271477165,0.388169941,0.201127676
0.138899505,0.272591381,0.387776775,0.200732339
0.13857242,0.273709242,0.387383376,0.200334962
0.138243969,0.27483071,0.386989763,0.199935558
0.137914158,0.275955752,0.386595955,0.199534135
0.137582992,0.277084331,0.386201971,0.199130706
0.137250476,0.278216414,0.385807829,0.198725281
0.136916617,0.279351967,0.385413545,0.198317871
0.136581419,0.280490959,0.385019136,0.197908487
0.136244888,0.281633361,0.384624614,0.197497138
0.135907029,0.282779143,0.384229993,0.197083835
0.135567847,0.283928277,0.383835287,0.196668588
0.135227349,0.285080732,0.38344051,0.196251409
0.134885539,0.286236476,0.383045676,0.195832308
0.134542425,0.287395479,0.382650799,0.195411297
0.134198012,0.288557705,0.382255894,0.194988388
0.133852309,0.289723123,0.381860975,0.194563593
0.133505321,0.290891698,0.381466058,0.194136923
0.133157055,0.292063396,0.381071157,0.193708392
0.13280752,0.293238181,0.380676285,0.193278014
0.132456723,0.294416019,0.380281458,0.1928458
0.13210467,0.295596874,0.379886688,0.192411767
0.131751372,0.296780709,0.379491991,0.191975929
0.131396835,0.297967484,0.37909738,0.191538301
0.131041069,0.299157162,0.37870287,0.1910989
0.130684082,0.3003497,0.378308477,0.190657741
0.130325883,0.301545059,0.377914215,0.190214843
0.129966481,0.302743198,0.3775201,0.18977022
0.129605885,0.303944077,0.377126147,0.189323891
0.129244104,0.305147654,0.376732371,0.188875871
0.128881147,0.306353888,0.376338786,0.188426178
0.128517026,0.307562734,0.375945409,0.187974831
0.12815175,0.30877415,0.375552253,0.187521847
0.127785331,0.309988091,0.375159334,0.187067244
0.12741778,0.311204511,0.374766667,0.186611042
0.127049111,0.312423364,0.374374264,0.186153261
0.126679334,0.313644603,0.373982141,0.185693921
0.126308464,0.31486818,0.373590313,0.185233043
0.125936513,0.316094047,0.373198793,0.184770648
0.125563494,0.317322154,0.372807595,0.184306756
0.125189421,0.318552453,0.372416735,0.183841391
0.124814308,0.319784896,0.372026224,0.183374573
0.124438168,0.321019433,0.371636075,0.182906324
0.124061015,0.322256016,0.371246302,0.182436667
0.123682864,0.323494596,0.370856917,0.181965623
0.123303728,0.324735125,0.370467933,0.181493214
0.122923622,0.325977554,0.370079364,0.18101946
0.122542558,0.327221836,0.369691221,0.180544384
0.122160553,0.328467922,0.369303519,0.180068007
0.121777619,0.32971576,0.368916271,0.17959035
0.121393773,0.330965301,0.368529493,0.179111433
0.121009028,0.332216494,0.368143199,0.178631279
0.120623398,0.333469288,0.367757406,0.178149908
0.120236898,0.334723637,0.367372126,0.177667339
0.119849542,0.335979493,0.366987371,0.177183594
0.119461344,0.337236811,0.366603153,0.176698692
0.119072318,0.338495545,0.366219483,0.176212654
0.118682477,0.339755652,0.365836372,0.175725499
0.118291834,0.34101709,0.365453828,0.175237248
0.117900404,0.342279815,0.365071863,0.174747918
0.117508199,0.343543785,0.364690486,0.174257531
0.117115232,0.344808956,0.364309706,0.173766106
0.116721518,0.346075284,0.363929536,0.173273662
0.11632707,0.347342727,0.363549983,0.17278022
0.115931902,0.348611242,0.363171057,0.1722858
0.115536026,0.349880788,0.362792765,0.171790421
0.115139456,0.351151326,0.362415115,0.171294103
0.114742206,0.352422815,0.362038113,0.170796866
0.114344289,0.353695214,0.361661766,0.170298731
0.113945719,0.354968485,0.361286079,0.169799717
0.113546509,0.356242589,0.360911058,0.169299844
0.113146674,0.357517486,0.360536707,0.168799133
0.112746227,0.358793139,0.36016303,0.168297604
0.112345182,0.360069509,0.359790032,0.167795277
0.111943554,0.361346557,0.359417716,0.167292173
0.111541356,0.362624242,0.359046088,0.166788314
0.111138604,0.363902524,0.358675152,0.166283721
0.110735312,0.365181358,0.358304915,0.165778415
0.110331497,0.366460703,0.357935383,0.165272417
0.109927172,0.367740515,0.357566564,0.16476575
0.109522352,0.36902075,0.357198464,0.164258433
0.109117054,0.370301364,0.356831093,0.163750489
0.108711292,0.371582312,0.356464458,0.163241938
0.108305082,0.372863548,0.356098568,0.162732802
0.10789844,0.374145025,0.355733432,0.162223103
0.107491381,0.375426696,0.35536906,0.161712864
0.107083922,0.376708512,0.355005461,0.161202106
0.106676079,0.377990424,0.354642645,0.160690852
0.106267869,0.379272385,0.354280621,0.160179125
0.105859308,0.380554343,0.353919399,0.159666949
0.105450414,0.381836251,0.353558988,0.159154348
0.105041202,0.383118055,0.353199397,0.158641345
0.104631691,0.384399706,0.352840637,0.158127965
0.104221898,0.385681152,0.352482717,0.157614233
0.103811841,0.38696234,0.352125646,0.157100172
0.103401537,0.38824322,0.351769435,0.156585808
0.102991004,0.389523739,0.351414092,0.156071165
0.102580259,0.390803846,0.351059628,0.155556267
0.102169321,0.392083488,0.350706053,0.155041138
0.101758207,0.393362613,0.350353376,0.154525804
0.101346936,0.394641168,0.350001608,0.154010288
0.100935524,0.395919101,0.349650759,0.153494616
0.100523991,0.397196359,0.349300839,0.152978811
0.100112354,0.398472889,0.348951858,0.152462899
0.099700632,0.399748637,0.348603827,0.151946904
0.099288842,0.401023548,0.348256757,0.151430853
0.098877003,0.402297569,0.347910657,0.150914771
0.098465133,0.403570645,0.347565537,0.150398684
0.098053251,0.404842722,0.347221409,0.149882617
0.097641375,0.406113744,0.346878284,0.149366597
0.097229523,0.407383656,0.346536172,0.148850649
0.096817714,0.408652405,0.346195084,0.148334797
0.096405965,0.409919936,0.345855031,0.147819069
0.095994295,0.411186194,0.345516023,0.147303489
0.095582721,0.412451126,0.34517807,0.146788083
0.095171262,0.41371468,0.344841182,0.146272876
0.094759936,0.414976801,0.344505369,0.145757894
0.094348761,0.416237437,0.34417064,0.145243161
0.093937754,0.417496535,0.343837006,0.144728705
0.093526933,0.418754045,0.343504474,0.144214549
0.093116315,0.420009914,0.343173054,0.143700717
0.092705918,0.421264095,0.342842752,0.143187234
0.092295759,0.422516538,0.342513578,0.142674125
0.091885854,0.423767196,0.342185536,0.142161413
0.091476221,0.425016025,0.341858632,0.141649122
0.091066876,0.426262982,0.341532869,0.141137274
0.090657834,0.427508025,0.34120825,0.140625891
0.090249111,0.428751115,0.340884777,0.140114997
0.089840724,0.429992213,0.340562452,0.139604611
0.089432687,0.431231279,0.340241278,0.139094756
0.089025017,0.432468275,0.339921255,0.138585453
0.088617729,0.433703164,0.339602386,0.138076721
0.088210838,0.434935906,0.339284674,0.137568582
0.087804361,0.436166464,0.33896812,0.137061056
0.087398312,0.437394799,0.338652727,0.136554162
0.086992706,0.438620875,0.338338498,0.136047921
0.08658756,0.439844653,0.338025434,0.135542353
0.086182889,0.441066096,0.337713538,0.135037477
0.085778707,0.442285166,0.337402813,0.134533314
0.08537503,0.443501824,0.337093261,0.134029884
0.084971875,0.444716033,0.336784885,0.133527207
0.084569257,0.445927752,0.336477689,0.133025302
0.084167191,0.447136942,0.336171676,0.13252419
0.083765695,0.448343563,0.335866851,0.132023891
0.083364784,0.449547574,0.335563217,0.131524425
0.082964474,0.450748935,0.335260778,0.131025813
0.08256478,0.451947606,0.334959539,0.130528076
0.082165718,0.453143544,0.334659503,0.130031234
0.081767305,0.454336712,0.334360675,0.129535308
0.081369556,0.455527067,0.334063059,0.129040319
0.080972486,0.456714569,0.333766658,0.128546287
0.080576112,0.457899179,0.333471476,0.128053233
0.080180448,0.459080855,0.333177519,0.127561178
0.079785509,0.460259559,0.332884792,0.12707014
0.079391312,0.461435251,0.332593297,0.12658014
0.07899787,0.462607891,0.332303042,0.126091197
0.078605199,0.463777441,0.33201403,0.12560333
0.078213314,0.464943861,0.331726267,0.125116559
0.077822228,0.466107112,0.331439759,0.124630901
0.077431957,0.467267156,0.331154511,0.124146376
0.077042514,0.468423956,0.330870528,0.123663002
0.076653913,0.469577473,0.330587816,0.123180798
0.076266169,0.47072767,0.330306379,0.122699782
0.075879295,0.471874511,0.330026222,0.122219972
0.075493304,0.47301796,0.329747349,0.121741387
0.07510821,0.474157983,0.329469763,0.121264044
0.074724025,0.475294547,0.329193469,0.120787959
0.074340762,0.47642762,0.328918469,0.120313149
0.073958433,0.47755717,0.328644766,0.11983963
0.073577051,0.478683168,0.328372362,0.119367419
0.073196626,0.479805581,0.32810126,0.118896533
0.072817171,0.48092438,0.327831463,0.118426986
0.072438697,0.482039533,0.327562974,0.117958796
0.072061214,0.48315101,0.327295797,0.117491978
0.071684734,0.484258779,0.32702994,0.117026547
0.071309268,0.485362807,0.326765407,0.116562518
0.070934826,0.486463063,0.326502205,0.116099905
0.070561419,0.487559517,0.326240341,0.115638723
0.070189058,0.488652137,0.32597982,0.115178985
0.069817753,0.489740893,0.325720648,0.114720706
0.069447515,0.490825756,0.32546283,0.1142639
0.069078354,0.491906695,0.325206372,0.113808579
0.068710279,0.492983681,0.324951282,0.113354758
0.068343301,0.494056684,0.324697565,0.11290245
0.06797743,0.495125676,0.324445227,0.112451667
0.067612674,0.496190628,0.324194275,0.112002423
0.067249044,0.497251512,0.323944714,0.11155473
0.066886549,0.498308301,0.323696549,0.111108602
0.066525197,0.49936097,0.323449785,0.110664049
0.066164997,0.500409492,0.323204427,0.110221083
0.065805959,0.501453845,0.322960479,0.109779717
0.06544809,0.502494004,0.322717946,0.10933996
0.065091399,0.503529946,0.322476829,0.108901825
0.064735894,0.504561649,0.322237134,0.108465322
0.064381585,0.505589088,0.321998865,0.108030462
0.064028478,0.506612243,0.321762024,0.107597256
0.063676582,0.50763109,0.321526615,0.107165713
0.063325905,0.508645607,0.321292642,0.106735846
0.062976454,0.509655776,0.321060106,0.106307664
0.062628237,0.510661575,0.32082901,0.105881178
0.062281259,0.51166299,0.320599353,0.105456398
0.061935528,0.512660003,0.320371136,0.105033332
0.061591051,0.513652601,0.320144359,0.104611989
0.061247832,0.514640767,0.319919024,0.104192377
0.060905879,0.515624487,0.319695131,0.103774503
0.060565195,0.516603748,0.319472681,0.103358375
0.060225788,0.517578537,0.319251676,0.102943999
0.059887662,0.518548839,0.319032117,0.102531383
0.059550822,0.519514639,0.318814007,0.102120532
0.059215274,0.520475921,0.318597352,0.101711454
0.058881021,0.521432669,0.318382158,0.101304153
0.058548069,0.522384866,0.318168431,0.100898634
0.058216423,0.523332496,0.317956176,0.100494904
0.057886087,0.524275545,0.3177454,0.100092968
0.057557066,0.525213997,0.317536107,0.099692831
0.057229363,0.526147836,0.317328303,0.099294498
0.056902983,0.527077047,0.317121993,0.098897976
0.056577931,0.528001616,0.316917184,0.098503269
0.05625421,0.528921527,0.31671388,0.098110383
0.055931824,0.529836767,0.316512087,0.097719322
0.055610777,0.53074732,0.316311812,0.097330091
0.055291073,0.531653172,0.316113059,0.096942695
0.054972715,0.532554311,0.315915834,0.09655714
0.054655707,0.533450721,0.315720141,0.096173431
0.054340053,0.534342391,0.315525984,0.095791572
0.054025755,0.535229307,0.315333368,0.09541157
0.053712818,0.536111458,0.315142296,0.095033428
0.053401245,0.536988832,0.314952772,0.094657152
0.053091037,0.537861415,0.3147648,0.094282748
0.0527822,0.538729196,0.314578383,0.093910221
0.052474736,0.539592163,0.314393523,0.093539578
0.052168647,0.540450307,0.314210224,0.093170822
0.051863936,0.541303615,0.314028489,0.09280396
0.051560606,0.542152079,0.31384832,0.092438995
0.05125866,0.542995689,0.31366972,0.092075931
0.050958099,0.543834436,0.313492691,0.091714773
0.050658926,0.544668313,0.313317236,0.091355525
0.050361143,0.545497312,0.313143354,0.090998191
0.050064754,0.546321426,0.312971046,0.090642774
0.049769759,0.54714065,0.312800312,0.090289279
0.049476163,0.547954976,0.312631153,0.089937709
0.049183966,0.548764399,0.312463568,0.089588067
0.048893172,0.549568914,0.312297557,0.089240357
0.048603783,0.550368516,0.312133119,0.088894582
0.0483158,0.551163199,0.311970255,0.088550745
0.048029227,0.551952959,0.311808964,0.08820885
0.047744063,0.552737792,0.311649245,0.0878689
0.047460312,0.553517694,0.311491097,0.087530897
0.047177975,0.55429266,0.311334522,0.087194844
0.046897054,0.555062685,0.311179518,0.086860743
0.046617549,0.555827767,0.311026088,0.086528597
0.046339462,0.556587899,0.310874232,0.086198407
0.046062795,0.557343078,0.310723951,0.085870176
0.045787548,0.558093302,0.310575246,0.085543904
0.045513723,0.558838567,0.310428117,0.085219594
0.04524132,0.559578871,0.310282563,0.084897246
0.044970341,0.560314214,0.310138583,0.084576862
0.044700786,0.561044594,0.309996177,0.084258443
0.044432656,0.56177001,0.309855344,0.08394199
0.044165953,0.562490461,0.309716082,0.083627504
0.043900675,0.563205948,0.309578391,0.083314986
0.043636825,0.56391647,0.309442269,0.083004436
0.043374401,0.564622028,0.309307715,0.082695856
0.043113405,0.565322621,0.309174728,0.082389246
0.042853836,0.566018247,0.309043309,0.082084608
0.042595695,0.566708907,0.308913457,0.081781941
0.042338981,0.5673946,0.308785173,0.081481246
0.042083696,0.568075327,0.308658456,0.081182522
0.041829839,0.568751087,0.308533306,0.080885769
0.04157741,0.56942188,0.308409723,0.080590987
0.041326409,0.570087706,0.308287708,0.080298176
0.041076838,0.570748564,0.308167261,0.080007337
0.040828695,0.57140445,0.308048384,0.079718471
0.040581982,0.572055362,0.30793108,0.079431576
0.040336698,0.572701293,0.307815355,0.079146654
0.040092843,0.573342241,0.307701214,0.078863702
0.039850415,0.5739782,0.307588664,0.078582721
0.039609415,0.574609168,0.30747771,0.078303708
0.03936984,0.575235138,0.30736836,0.078026662
0.03913169,0.575856106,0.30726062,0.077751584
0.038894963,0.576472065,0.307154499,0.077478473
0.038659658,0.577083009,0.307050004,0.077207329
0.038425774,0.577688932,0.306947142,0.076938153
0.038193308,0.578289829,0.306845919,0.076670944
0.037962261,0.578885697,0.306746341,0.076405701
0.037732629,0.579476533,0.306648413,0.076142425
0.037504412,0.580062334,0.306552139,0.075881115
0.037277608,0.580643097,0.306457526,0.075621769
0.037052216,0.581218816,0.306364581,0.075364386
0.036828234,0.581789487,0.306273312,0.075108966
0.036605661,0.582355103,0.306183729,0.074855507
0.036384493,0.582915658,0.306095843,0.074604006
0.03616473,0.583471144,0.306009664,0.074354463
0.035946369,0.584021553,0.305925204,0.074106874
0.035729409,0.584566877,0.305842474,0.07386124
0.035513848,0.585107108,0.305761486,0.073617558
0.035299684,0.585642238,0.305682252,0.073375826
0.035086915,0.586172259,0.305604784,0.073136043
0.03487554,0.586697161,0.305529093,0.072898207
0.034665556,0.587216936,0.305455191,0.072662317
0.034456962,0.587731576,0.30538309,0.072428372
0.034249756,0.588241074,0.305312801,0.072196369
0.034043936,0.588745423,0.305244334,0.071966307
0.033839501,0.589244617,0.305177698,0.071738184
0.033636447,0.589738651,0.305112903,0.071511999
0.033434775,0.590227518,0.305049958,0.071287749
0.03323448,0.590711215,0.304988871,0.071065433
0.033035562,0.591189737,0.304929652,0.070845049
0.032838019,0.591663078,0.304872309,0.070626594
0.032641848,0.592131235,0.30481685,0.070410066
0.032447048,0.592594205,0.304763284,0.070195463
0.032253617,0.593051983,0.304711618,0.069982782
0.032061553,0.593504569,0.304661859,0.06977202
0.031870854,0.593951961,0.304614012,0.069563174
0.031681518,0.594394157,0.304568083,0.069356243
0.031493543,0.594831157,0.304524077,0.069151222
0.031306929,0.595262963,0.304481999,0.068948109
0.031121672,0.595689575,0.304441851,0.068746902
0.030937771,0.596110996,0.304403637,0.068547596
0.030755223,0.596527229,0.30436736,0.068350188
0.030574028,0.596938277,0.304333019,0.068154675
0.030394182,0.597344146,0.304300618,0.067961053
0.030215684,0.597744841,0.304270158,0.067769318
0.030038531,0.598140366,0.304241638,0.067579465
0.029862722,0.598530728,0.30421506,0.06739149
0.029688254,0.598915933,0.304190425,0.067205388
0.029515125,0.599295989,0.304167731,0.067021156
0.029343332,0.599670904,0.304146977,0.066838787
0.029172873,0.600040688,0.304128161,0.066658279
0.029003744,0.600405349,0.304111281,0.066479626
0.028835945,0.600764899,0.304096333,0.066302823
0.028669471,0.601119347,0.304083315,0.066127867
0.028504321,0.601468703,0.304072224,0.065954752
0.028340491,0.60181298,0.304063055,0.065783474
0.028177979,0.602152188,0.304055805,0.065614028
0.028016782,0.602486338,0.30405047,0.06544641
0.027856897,0.602815443,0.304047046,0.065280614
0.027698322,0.603139515,0.304045528,0.065116636
0.027541054,0.603458565,0.304045911,0.06495447
0.02738509,0.603772608,0.30404819,0.064794112
0.027230429,0.604081656,0.30405236,0.064635555
0.027077067,0.604385722,0.304058415,0.064478796
0.026925002,0.604684821,0.30406635,0.064323827
0.026774231,0.604978966,0.304076158,0.064170644
0.026624752,0.605268172,0.304087835,0.06401924
0.026476564,0.605552453,0.304101374,0.063869609
0.026329663,0.605831823,0.304116768,0.063721746
0.026184047,0.606106299,0.304134011,0.063575642
0.026039715,0.606375896,0.304153095,0.063431293
0.025896664,0.606640631,0.304174013,0.063288692
0.025754892,0.606900519,0.304196757,0.063147831
0.025614397,0.607155579,0.30422132,0.063008704
0.025475176,0.607405826,0.304247693,0.062871304
0.025337227,0.607651276,0.304275872,0.062735625
0.025200548,0.607891945,0.304305849,0.062601658
0.025065136,0.608127847,0.304337619,0.062469397
0.024930989,0.608358998,0.304371178,0.062338835
0.024798106,0.608585412,0.304406519,0.062209963
0.024666482,0.608807107,0.304443635,0.062082775
0.024536117,0.609024099,0.304482521,0.061957263
0.024407008,0.609236405,0.304523167,0.06183342
0.024279152,0.609444043,0.304565568,0.061711238
0.024152546,0.609647029,0.304609714,0.061590711
0.024027188,0.609845383,0.304655598,0.06147183
0.023903076,0.610039122,0.304703213,0.06135459
0.023780206,0.610228262,0.304752551,0.061238981
0.023658576,0.610412821,0.304803606,0.061124997
0.023538182,0.610592817,0.30485637,0.061012632
0.023419022,0.610768267,0.304910834,0.060901876
0.023301094,0.610939192,0.30496699,0.060792724
0.023184393,0.61110561,0.305024829,0.060685169
0.023068917,0.611267541,0.305084339,0.060579203
0.022954664,0.611425008,0.30514551,0.060474818
0.022841629,0.611578032,0.305208331,0.060372009
0.022729809,0.611726635,0.305272788,0.060270768
0.022619202,0.611870839,0.305338871,0.060171088
0.022509805,0.612010666,0.305406566,0.060072963
0.022401614,0.612146139,0.305475862,0.059976386
0.022294626,0.612277278,0.305546747,0.059881349
0.022188839,0.612404105,0.305619209,0.059787847
0.022084249,0.612526643,0.305693237,0.059695871
0.021980853,0.612644915,0.305768817,0.059605415
0.021878647,0.612758942,0.305845939,0.059516472
0.021777628,0.612868747,0.305924591,0.059429035
0.021677793,0.612974352,0.306004761,0.059343095
0.021579138,0.61307578,0.306086437,0.059258644
0.02148166,0.613173054,0.306169609,0.059175676
0.021385357,0.613266196,0.306254263,0.059094183
0.021290225,0.613355228,0.306340389,0.059014158
0.021196262,0.613440171,0.306427973,0.058935593
0.021103465,0.613521046,0.306517005,0.058858483
0.02101183,0.613597875,0.306607473,0.058782821
0.020921356,0.613670678,0.306699365,0.058708601
0.020832038,0.613739476,0.306792669,0.058635817
0.020743874,0.61380429,0.306887373,0.058564463
0.020656861,0.613865141,0.306983466,0.058494532
0.020570996,0.613922049,0.307080937,0.058426018
0.020486276,0.613975036,0.307179774,0.058358915
0.020402696,0.614024123,0.307279966,0.058293215
0.020320254,0.614069334,0.307381499,0.058228912
0.020238945,0.614110692,0.307484364,0.058165998
0.020158767,0.61414822,0.307588547,0.058104466
0.020079713,0.61418194,0.307694038,0.058044308
0.020001782,0.614211878,0.307800824,0.057985516
0.019924967,0.614238056,0.307908893,0.057928083
0.019849266,0.614260501,0.308018235,0.057871999
0.019774673,0.614279234,0.308128837,0.057817256
0.019701183,0.61429428,0.30824069,0.057763847
0.019628792,0.61430566,0.308353784,0.057711763
0.019557496,0.614313398,0.308468111,0.057660995
0.019487289,0.614317515,0.308583661,0.057611535
0.019418167,0.614318033,0.308700425,0.057563374
0.019350125,0.614314976,0.308818396,0.057516503
0.019283158,0.614308364,0.308937566,0.057470913
0.01921726,0.61429822,0.309057926,0.057426595
0.019152426,0.614284566,0.309179468,0.05738354
0.019088652,0.614267425,0.309302185,0.057341738
0.019025932,0.614246822,0.309426067,0.057301179
0.01896426,0.614222778,0.309551107,0.057261855
0.018903633,0.614195318,0.309677294,0.057223755
0.018844043,0.614164467,0.30980462,0.057186871
0.018785486,0.614130247,0.309933075,0.057151192
0.018727957,0.614092683,0.31006265,0.05711671
0.018671451,0.614051798,0.310193335,0.057083416
0.018615962,0.614007617,0.310325121,0.0570513
0.018561485,0.613960164,0.310457998,0.057020353
0.018508015,0.613909462,0.310591956,0.056990568
0.018455546,0.613855535,0.310726985,0.056961934
0.018404073,0.613798409,0.310863076,0.056934442
0.018353592,0.613738105,0.311000219,0.056908084
0.018304096,0.613674649,0.311138403,0.056882852
0.018255581,0.613608063,0.31127762,0.056858735
0.018208042,0.613538372,0.31141786,0.056835726
0.018161474,0.6134656,0.311559112,0.056813814
0.018115871,0.613389769,0.311701368,0.056792993
0.018071228,0.613310904,0.311844617,0.056773251
0.01802754,0.61322903,0.311988848,0.056754581
0.017984802,0.61314417,0.312134053,0.056736974
0.01794301,0.613056349,0.312280219,0.056720422
0.017902158,0.612965591,0.312427337,0.056704915
0.017862241,0.612871919,0.312575395,0.056690445
0.017823256,0.612775357,0.312724382,0.056677005
0.017785197,0.61267593,0.312874288,0.056664585
0.017748059,0.612573661,0.313025102,0.056653178
0.017711839,0.612468574,0.313176813,0.056642775
0.01767653,0.612360693,0.313329409,0.056633368
0.017642129,0.612250042,0.31348288,0.056624948
0.017608631,0.612136645,0.313637214,0.056617509
0.017576032,0.612020527,0.313792399,0.056611041
0.017544327,0.611901711,0.313948425,0.056605537
0.017513513,0.611780221,0.314105279,0.056600987
0.017483585,0.611656081,0.31426295,0.056597385
0.017454539,0.611529313,0.314421427,0.056594721
0.017426371,0.611399943,0.314580698,0.056592988
0.017399078,0.611267994,0.314740752,0.056592177
0.017372654,0.611133489,0.314901578,0.056592279
0.017347097,0.610996453,0.315063164,0.056593286
0.0173224,0.61085691,0.315225499,0.056595191
0.017298561,0.610714883,0.315388573,0.056597983
0.017275575,0.610570395,0.315552374,0.056601656
0.017253438,0.610423471,0.315716891,0.056606201
0.017232145,0.610274133,0.315882112,0.05661161
0.017211693,0.610122406,0.316048026,0.056617874
0.017192078,0.609968314,0.316214623,0.056624986
0.017173294,0.609811879,0.31638189,0.056632937
0.017155339,0.609653126,0.316549817,0.056641719
0.017138207,0.609492077,0.316718392,0.056651324
0.017121894,0.609328757,0.316887605,0.056661744
0.017106396,0.609163189,0.317057445,0.05667297
0.017091709,0.608995397,0.3172279,0.056684994
0.017077828,0.608825404,0.31739896,0.056697809
0.017064748,0.608653235,0.317570613,0.056711404
0.017052466,0.608478912,0.31774285,0.056725772
0.017040977,0.608302458,0.317915661,0.056740904
0.017030276,0.608123895,0.318089035,0.056756793
0.01702036,0.607943248,0.318262963,0.056773429
0.017011223,0.607760537,0.318437435,0.056790805
0.017002862,0.607575785,0.318612442,0.056808911
0.016995271,0.607389014,0.318787974,0.056827741
0.016988448,0.607200243,0.318964023,0.056847286
0.016982387,0.607009493,0.319140583,0.056867537
0.016977084,0.606816784,0.319317644,0.056888488
0.016972536,0.606622135,0.3194952,0.056910129
0.016968738,0.606425565,0.319673244,0.056932453
0.016965687,0.606227094,0.319851767,0.056955452
0.016963378,0.606026743,0.320030762,0.056979118
0.016961807,0.605824529,0.320210222,0.057003442
0.01696097,0.605620472,0.32039014,0.057028419
0.016960863,0.605414591,0.320570507,0.057054038
0.016961483,0.605206904,0.320751319,0.057080294
0.016962824,0.60499743,0.320932569,0.057107177
0.016964883,0.604786185,0.32111425,0.057134681
0.016967656,0.604573186,0.32129636,0.057162798
0.016971139,0.60435845,0.321478892,0.057191519
0.016975327,0.604141992,0.321661844,0.057220837
0.016980216,0.603923828,0.321845211,0.057250745
0.016985802,0.603703975,0.322028988,0.057281235
0.016992081,0.603482447,0.322213171,0.0573123
0.016999049,0.603259263,0.322397755,0.057343933
0.017006701,0.603034438,0.322582735,0.057376127
0.017015033,0.60280799,0.322768104,0.057408874
0.01702404,0.602579936,0.322953856,0.057442167
0.017033719,0.602350295,0.323139985,0.057476
0.017044065,0.602119087,0.323326483,0.057510366
0.017055072,0.601886331,0.323513341,0.057545256
0.017066738,0.601652047,0.323700551,0.057580664
0.017079056,0.601416256,0.323888105,0.057616583
0.017092023,0.601178978,0.324075993,0.057653006
0.017105634,0.600940233,0.324264208,0.057689925
0.017119885,0.600700041,0.32445274,0.057727334
0.01713477,0.600458421,0.324641584,0.057765226
0.017150285,0.600215391,0.32483073,0.057803594
0.017166426,0.599970969,0.325020174,0.057842432
0.017183187,0.599725173,0.325209908,0.057881732
0.017200564,0.59947802,0.325399927,0.057921489
0.017218552,0.599229529,0.325590224,0.057961694
0.017237147,0.598979717,0.325780795,0.058002342
0.017256342,0.598728601,0.325971632,0.058043424
0.017276135,0.598476199,0.326162731,0.058084935
0.017296519,0.59822253,0.326354085,0.058126866
0.01731749,0.59796761,0.326545687,0.058169212
0.017339044,0.59771146,0.326737532,0.058211965
0.017361175,0.597454095,0.326929612,0.058255118
0.017383878,0.597195537,0.32712192,0.058298665
0.017407149,0.596935802,0.327314449,0.0583426
0.017430983,0.596674909,0.327507193,0.058386916
0.017455375,0.596412876,0.327700144,0.058431606
0.017480319,0.596149721,0.327893296,0.058476663
0.017505812,0.595885463,0.328086642,0.058522083
0.017531848,0.595620119,0.328280175,0.058567858
0.017558422,0.595353707,0.328473888,0.058613983
0.017585531,0.595086244,0.328667775,0.05866045
0.017613168,0.594817747,0.328861829,0.058707255
0.01764133,0.594548234,0.329056044,0.058754391
0.017670012,0.594277722,0.329250413,0.058801853
0.01769921,0.594006226,0.32944493,0.058849634
0.017728918,0.593733765,0.329639589,0.058897728
0.017759132,0.593460354,0.329834384,0.058946131
0.017789848,0.59318601,0.330029307,0.058994836
0.017821061,0.592910749,0.330224352,0.059043839
0.017852767,0.592634587,0.330419513,0.059093133
0.017884961,0.592357542,0.330614783,0.059142714
0.017917639,0.592079628,0.330810156,0.059192577
0.017950797,0.591800862,0.331005625,0.059242716
0.017984431,0.591521261,0.331201183,0.059293125
0.018018535,0.591240839,0.331396825,0.059343801
0.018053106,0.590959612,0.331592543,0.059394738
0.01808814,0.590677597,0.331788332,0.059445932
0.018123631,0.590394808,0.331984185,0.059497376
0.018159577,0.590111261,0.332180095,0.059549067
0.018195971,0.589826971,0.332376057,0.059601
0.018232811,0.589541954,0.332572065,0.059653169
0.018270092,0.589256227,0.332768111,0.05970557
0.01830781,0.588969805,0.332964188,0.059758197
0.01834596,0.588682705,0.33316029,0.059811046
0.018384537,0.588394944,0.333356408,0.059864111
0.018423539,0.588106537,0.333552536,0.059917388
0.018462959,0.587817501,0.333748666,0.059970873
0.018502795,0.587527853,0.333944792,0.06002456
0.018543041,0.587237609,0.334140905,0.060078445
0.018583694,0.586946784,0.334336999,0.060132523
0.018624748,0.586655394,0.334533068,0.06018679
0.018666201,0.586363455,0.334729103,0.06024124
0.018708048,0.586070984,0.334925099,0.06029587
0.018750284,0.585777994,0.335121048,0.060350674
0.018792907,0.585484503,0.335316943,0.060405647
0.018835911,0.585190524,0.335512779,0.060460787
0.018879292,0.584896073,0.335708548,0.060516087
0.018923048,0.584601164,0.335904244,0.060571544
0.018967173,0.584305814,0.33609986,0.060627152
0.019011664,0.584010037,0.33629539,0.060682909
0.019056516,0.583713849,0.336490825,0.06073881
0.019101726,0.583417265,0.336686159,0.060794849
0.019147289,0.583120303,0.336881384,0.060851024
0.019193201,0.582822977,0.337076491,0.06090733
0.019239459,0.582525305,0.337271473,0.060963763
0.019286056,0.582227303,0.337466322,0.061020318
0.019332991,0.581928989,0.337661028,0.061076992
0.019380257,0.581630378,0.337855584,0.061133781
0.019427852,0.581331487,0.338049982,0.061190679
0.019475771,0.581032332,0.338244213,0.061247684
0.019524009,0.580732931,0.338438268,0.061304791
0.019572563,0.580433302,0.338632139,0.061361996
0.019621429,0.58013346,0.338825817,0.061419294
0.019670601,0.579833425,0.339019292,0.061476681
0.019720077,0.579533214,0.339212554,0.061534154
0.019769852,0.579232846,0.339405594,0.061591708
0.019819922,0.578932339,0.339598401,0.061649338
0.019870282,0.578631714,0.339790963,0.061707041
0.019920929,0.578330988,0.339983269,0.061764813
0.01997186,0.578030181,0.340175308,0.061822651
0.020023069,0.577729311,0.340367069,0.06188055
0.020074554,0.577428397,0.340558541,0.061938507
0.02012631,0.577127456,0.340749714,0.061996519
0.020178334,0.576826506,0.340940578,0.062054582
0.020230622,0.576525563,0.341131121,0.062112693
0.02028317,0.576224646,0.341321336,0.062170848
0.020335976,0.575923769,0.34151121,0.062229045
0.020389034,0.57562295,0.341700736,0.06228728
0.020442341,0.575322206,0.341889903,0.062345551
0.020495894,0.57502155,0.342078703,0.062403852
0.02054969,0.574721001,0.342267126,0.062462183
0.020603724,0.574420571,0.342455165,0.062520539
0.020657994,0.574120278,0.342642811,0.062578918
0.020712495,0.573820136,0.342830054,0.062637315
0.020767225,0.573520159,0.343016886,0.06269573
0.02082218,0.573220363,0.3432033,0.062754157
0.020877357,0.572920763,0.343389285,0.062812595
0.020932752,0.572621372,0.343574835,0.062871041
0.020988362,0.572322206,0.343759941,0.062929491
0.021044183,0.572023278,0.343944595,0.062987943
0.021100214,0.571724603,0.344128789,0.063046395
0.021156449,0.571426193,0.344312516,0.063104842
0.021212886,0.571128063,0.344495767,0.063163284
0.021269522,0.570830227,0.344678535,0.063221716
0.021326353,0.570532695,0.344860814,0.063280138
0.021383376,0.570235482,0.345042597,0.063338545
0.021440588,0.5699386,0.345223875,0.063396936
0.021497986,0.569642061,0.345404645,0.063455308
0.021555567,0.569345877,0.345584897,0.063513659
0.021613327,0.569050059,0.345764628,0.063571986
0.021671264,0.568754619,0.345943829,0.063630288
0.021729375,0.568459568,0.346122496,0.063688562
0.021787656,0.568164917,0.346300621,0.063746805
0.021846106,0.567870679,0.346478199,0.063805017
0.02190472,0.567576863,0.346655223,0.063863194
0.021963497,0.56728348,0.346831689,0.063921334
0.022022433,0.566990542,0.347007589,0.063979435
0.022081525,0.566698059,0.34718292,0.064037496
0.022140772,0.566406041,0.347357674,0.064095513
0.02220017,0.566114499,0.347531846,0.064153486
0.022259716,0.565823441,0.347705432,0.064211411
0.022319409,0.56553288,0.347878425,0.064269287
0.022379244,0.565242823,0.348050822,0.064327111
0.022439221,0.564953281,0.348222616,0.064384882
0.022499335,0.564664264,0.348393803,0.064442597
0.022559586,0.56437578,0.348564379,0.064500255
0.02261997,0.564087838,0.348734339,0.064557853
0.022680485,0.563800447,0.348903678,0.06461539
0.022741129,0.563513615,0.349072392,0.064672864
0.0228019,0.563227352,0.349240475,0.064730273
0.022862796,0.562941664,0.349407925,0.064787615
0.022923814,0.562656561,0.349574736,0.064844889
0.022984954,0.56237205,0.349740903,0.064902094
0.023046212,0.562088139,0.349906423,0.064959226
0.023107588,0.561804836,0.35007129,0.065016286
0.023169079,0.561522149,0.350235501,0.065073271
0.023230685,0.561240086,0.35039905,0.065130179
0.023292402,0.560958655,0.350561933,0.06518701
0.023354231,0.560677863,0.350724145,0.065243761
0.023416168,0.560397719,0.350885682,0.065300431
0.023478213,0.56011823,0.351046539,0.065357018
0.023540364,0.559839403,0.351206713,0.06541352
0.023602619,0.559561245,0.351366198,0.065469937
0.023664976,0.559283765,0.351524992,0.065526267
0.023727435,0.559006967,0.351683089,0.065582508
0.023789993,0.558730861,0.351840486,0.06563866
0.02385265,0.558455451,0.351997179,0.06569472
0.023915402,0.558180745,0.352153164,0.065750688
0.023978251,0.557906749,0.352308438,0.065806563
0.024041193,0.557633469,0.352462996,0.065862342
0.024104227,0.557360912,0.352616837,0.065918025
0.024167352,0.557089084,0.352769955,0.06597361
0.024230566,0.55681799,0.352922348,0.066029096
0.024293869,0.556547636,0.353074013,0.066084482
0.024357258,0.556278029,0.353224947,0.066139766
0.024420732,0.556009175,0.353375146,0.066194948
0.02448429,0.555741078,0.353524606,0.066250025
0.02454793,0.555473748,0.353673325,0.066304996
0.024611651,0.555207192,0.353821296,0.06635986
0.024675452,0.554941417,0.353968516,0.066414615
0.024739331,0.554676433,0.354114978,0.066469259
0.024803286,0.554412248,0.354260676,0.06652379
0.024867315,0.554148874,0.354405604,0.066578207
0.024931418,0.553886321,0.354549754,0.066632507
0.024995593,0.553624601,0.354693117,0.066686689
0.025059837,0.553363724,0.354835688,0.066740751
0.025124149,0.553103702,0.354977458,0.066794691
0.025188527,0.552844545,0.35511842,0.066848508
0.02525297,0.552586265,0.355258567,0.066902199
0.025317475,0.552328871,0.355397891,0.066955763
0.025382043,0.552072373,0.355536386,0.067009198
0.025446669,0.551816783,0.355674045,0.067062502
0.025511355,0.55156211,0.355810861,0.067115674
0.025576096,0.551308365,0.355946827,0.067168712
0.025640893,0.551055557,0.356081937,0.067221613
0.025705743,0.550803698,0.356216183,0.067274376
0.025770646,0.550552796,0.356349558,0.067327
0.025835598,0.550302864,0.356482055,0.067379483
0.0259006,0.55005391,0.356613666,0.067431824
0.025965649,0.549805946,0.356744385,0.06748402
0.026030743,0.549558981,0.356874204,0.067536071
0.026095882,0.549313026,0.357003117,0.067587975
0.026161062,0.54906809,0.357131116,0.067639731
0.026226284,0.548824183,0.357258196,0.067691337
0.026291546,0.548581313,0.35738435,0.067742792
0.026356845,0.548339489,0.357509572,0.067794094
0.026422182,0.548098719,0.357633856,0.067845244
0.026487553,0.547859012,0.357757197,0.067896238
0.026552958,0.547620377,0.357879588,0.067947077
0.026618396,0.54738282,0.358001025,0.067997759
0.026683864,0.547146351,0.358121502,0.068048283
0.026749362,0.546910976,0.358241014,0.068098648
0.026814888,0.546676703,0.358359556,0.068148853
0.026880441,0.546443538,0.358477123,0.068198897
0.026946019,0.546211489,0.358593711,0.06824878
0.027011622,0.545980563,0.358709316,0.0682985
0.027077247,0.545750765,0.358823931,0.068348058
0.027142893,0.545522102,0.358937554,0.068397451
0.027208559,0.545294582,0.359050179,0.06844668
0.027274243,0.545068211,0.359161803,0.068495743
0.027339944,0.544842995,0.359272421,0.06854464
0.027405661,0.544618941,0.359382028,0.06859337
0.027471392,0.544396055,0.35949062,0.068641933
0.027537135,0.544174344,0.359598194,0.068690327
0.02760289,0.543953815,0.359704744,0.068738551
0.027668654,0.543734473,0.359810267,0.068786606
0.027734427,0.543516326,0.359914757,0.06883449
0.027800207,0.54329938,0.360018211,0.068882201
0.027865993,0.543083643,0.360120624,0.06892974
0.027931783,0.54286912,0.360221991,0.068977105
0.027997576,0.542655819,0.360322309,0.069024296
0.028063371,0.542443745,0.360421573,0.069071311
0.028129166,0.542232906,0.360519778,0.06911815
0.02819496,0.542023307,0.360616921,0.069164812
0.028260752,0.541814954,0.360712998,0.069211296
0.028326541,0.541607855,0.360808003,0.0692576
0.028392326,0.541402014,0.360901935,0.069303725
0.028458107,0.541197438,0.360994787,0.069349668
0.028523881,0.540994132,0.361086557,0.06939543
0.028589649,0.540792102,0.36117724,0.06944101
0.028655409,0.540591352,0.361266834,0.069486406
0.028721162,0.540391888,0.361355334,0.069531617
0.028786905,0.540193714,0.361442737,0.069576644
0.028852639,0.539996836,0.36152904,0.069621484
0.028918363,0.539801259,0.36161424,0.069666138
0.028984076,0.539606987,0.361698333,0.069710604
0.029049778,0.539414026,0.361781315,0.069754881
0.029115468,0.539222379,0.361863183,0.06979897
0.029181145,0.539032052,0.361943934,0.069842869
0.029246809,0.538843048,0.362023564,0.069886578
0.02931246,0.538655373,0.362102071,0.069930096
0.029378097,0.538469031,0.36217945,0.069973423
0.029443719,0.538284025,0.362255698,0.070016558
0.029509326,0.53810036,0.362330813,0.070059501
0.029574917,0.53791804,0.362404792,0.070102252
0.029640491,0.53773707,0.36247763,0.070144809
0.029706049,0.537557453,0.362549326,0.070187173
0.029771588,0.537379193,0.362619877,0.070229342
0.029837109,0.537202295,0.362689279,0.070271317
0.02990261,0.537026763,0.362757529,0.070313098
0.029968092,0.536852601,0.362824625,0.070354682
0.030033552,0.536679813,0.362890563,0.070396072
0.030098991,0.536508406,0.362955339,0.070437264
0.030164407,0.536338383,0.363018949,0.070478261
0.030229801,0.53616975,0.363081388,0.070519061
0.03029517,0.536002515,0.363142652,0.070559663
0.030360515,0.535836682,0.363202737,0.070600067
0.030425834,0.535672258,0.363261636,0.070640272
0.030491127,0.53550925,0.363319345,0.070680279
0.030556393,0.535347663,0.363375859,0.070720085
0.030621631,0.535187505,0.363431173,0.070759691
0.03068684,0.53502878,0.363485283,0.070799097
0.030752021,0.534871494,0.363538184,0.070838301
0.030817171,0.534715653,0.363589872,0.070877303
0.030882291,0.534561264,0.363640342,0.070916103
0.03094738,0.534408333,0.363689588,0.070954699
0.031012437,0.534256866,0.363737607,0.070993091
0.031077461,0.534106868,0.363784393,0.071031278
0.031142452,0.533958347,0.363829941,0.07106926
0.03120741,0.533811308,0.363874246,0.071107035
0.031272335,0.533665759,0.363917303,0.071144603
0.031337226,0.533521705,0.363959108,0.071181962
0.031402082,0.533379151,0.363999654,0.071219112
0.006863644,0.257009841,0.389854849,0.346271666
0.006986947,0.256891913,0.389774886,0.346346253
0.007110747,0.256771785,0.389694621,0.346422847
0.00723503,0.256649473,0.389614066,0.346501431
0.007359783,0.256524992,0.389533233,0.346581992
0.007484992,0.256398362,0.389452135,0.346664511
0.007610644,0.256269598,0.389370783,0.346748974
0.007736726,0.25613872,0.389289191,0.346835364
0.007863223,0.256005745,0.389207369,0.346923664
0.007990121,0.255870691,0.389125329,0.347013858
0.008117409,0.255733579,0.389043082,0.34710593
0.008245072,0.255594427,0.388960639,0.347199862
0.008373097,0.255453256,0.388878011,0.347295636
0.00850147,0.255310087,0.388795209,0.347393235
0.008630178,0.255164942,0.388712242,0.347492639
0.008759207,0.255017845,0.38862912,0.347593828
0.008888544,0.254868819,0.388545854,0.347696783
0.009018174,0.25471789,0.388462451,0.347801485
0.009148084,0.254565082,0.388378923,0.347907911
0.009278259,0.254410421,0.388295279,0.348016041
0.009408686,0.254253932,0.38821153,0.348125852
0.009539351,0.254095641,0.388127688,0.34823732
0.009670242,0.253935574,0.388043762,0.348350422
0.009801344,0.253773756,0.387959765,0.348465135
0.009932646,0.253610213,0.387875707,0.348581434
0.010064136,0.253444971,0.387791596,0.348699297
0.010195803,0.253278055,0.387707441,0.348818701
0.010327636,0.25310949,0.387623249,0.348939624
0.010459626,0.252939301,0.387539027,0.349062046
0.010591762,0.252767515,0.387454778,0.349185946
0.010724033,0.252594155,0.387370509,0.349311303
0.010856431,0.252419249,0.387286224,0.349438096
0.010988946,0.252242821,0.387201928,0.349566305
0.011121567,0.2520649,0.387117626,0.349695907
0.011254285,0.251885511,0.387033321,0.349826883
0.011387089,0.25170468,0.38694902,0.34995921
0.01151997,0.251522435,0.386864727,0.350092868
0.011652917,0.251338802,0.386780449,0.350227833
0.011785918,0.251153807,0.386696191,0.350364083
0.011918965,0.250967479,0.386611961,0.350501595
0.012052047,0.250779844,0.386527764,0.350640345
0.012185154,0.25059093,0.386443608,0.350780308
0.012318277,0.250400764,0.386359499,0.35092146
0.012451405,0.250209374,0.386275445,0.351063777
0.012584528,0.250016789,0.38619145,0.351207233
0.012717637,0.249823036,0.386107522,0.351351805
0.01285072,0.249628144,0.386023667,0.351497469
0.012983768,0.24943214,0.385939889,0.351644202
0.01311677,0.249235053,0.385856193,0.351791984
0.013249715,0.24903691,0.385772582,0.351940793
0.013382592,0.248837739,0.385689059,0.35209061
0.01351539,0.248637569,0.385605625,0.352241416
0.013648097,0.248436428,0.385522281,0.352393193
0.013780704,0.248234345,0.385439029,0.352545922
0.013913198,0.248031349,0.385355871,0.352699582
0.014045569,0.24782747,0.385272806,0.352854155
0.014177804,0.247622741,0.385189836,0.35300962
0.014309893,0.247417192,0.385106959,0.353165955
0.014441824,0.247210857,0.385024179,0.35332314
0.014573587,0.247003766,0.384941495,0.353481152
0.01470517,0.246795952,0.38485891,0.353639969
0.014836563,0.246587447,0.384776422,0.353799569
0.014967755,0.246378283,0.384694031,0.353959931
0.015098736,0.246168493,0.384611735,0.354121036
0.015229493,0.245958109,0.384529534,0.354282864
0.015360016,0.245747162,0.384447427,0.354445395
0.015490294,0.245535681,0.384365414,0.354608611
0.015620315,0.245323693,0.384283497,0.354772494
0.015750069,0.245111228,0.384201676,0.354937026
0.015879544,0.244898312,0.384119953,0.355102191
0.016008729,0.244684972,0.384038328,0.355267972
0.016137613,0.244471234,0.383956803,0.35543435
0.016266187,0.244257126,0.383875379,0.355601308
0.016394438,0.244042675,0.383794058,0.35576883
0.016522355,0.243827908,0.383712839,0.355936898
0.016649929,0.243612854,0.383631724,0.356105493
0.016777148,0.243397539,0.383550714,0.356274599
0.016904002,0.243181993,0.383469809,0.356444196
0.017030479,0.242966244,0.383389013,0.356614265
0.01715657,0.242750319,0.383308325,0.356784786
0.017282264,0.24253425,0.383227748,0.356955739
0.01740755,0.242318065,0.383147282,0.357127103
0.01753242,0.242101793,0.383066928,0.357298859
0.017656863,0.241885463,0.382986686,0.357470989
0.017780868,0.241669101,0.382906556,0.357643474
0.017904426,0.241452738,0.38282654,0.357816296
0.018027527,0.241236399,0.382746638,0.357989436
0.018150162,0.241020115,0.38266685,0.358162873
0.018272321,0.240803911,0.38258718,0.358336588
0.018393995,0.240587816,0.382507628,0.358510562
0.018515175,0.240371854,0.382428196,0.358684775
0.018635853,0.240156051,0.382348885,0.358859212
0.018756019,0.239940428,0.382269698,0.359033854
0.018875666,0.239725009,0.382190636,0.359208689
0.018994786,0.239509812,0.382111699,0.359383703
0.01911337,0.239294861,0.382032887,0.359558882
0.019231412,0.239080175,0.381954202,0.359734212
0.019348903,0.238865775,0.381875643,0.359909678
0.019465838,0.238651683,0.381797213,0.360085266
0.019582209,0.238437919,0.38171891,0.360260961
0.019698011,0.238224504,0.381640738,0.360436747
0.019813237,0.238011456,0.381562697,0.36061261
0.019927881,0.237798795,0.381484791,0.360788533
0.020041937,0.237586537,0.381407026,0.360964499
0.0201554,0.237374699,0.38132941,0.361140491
0.020268263,0.237163296,0.38125195,0.361316491
0.020380521,0.236952343,0.381174659,0.361492477
0.020492168,0.236741853,0.381097546,0.361668433
0.0206032,0.236531842,0.381020622,0.361844336
0.020713609,0.236322322,0.3809439,0.362020169
0.020823391,0.236113306,0.38086739,0.362195912
0.020932542,0.235904808,0.380791105,0.362371545
0.021041054,0.235696842,0.380715056,0.362547048
0.021148923,0.235489421,0.380639252,0.362722404
0.021256145,0.235282558,0.380563702,0.362897595
0.021362713,0.235076264,0.380488415,0.363072608
0.021468623,0.23487055,0.380413398,0.363247429
0.021573868,0.234665428,0.380338659,0.363422044
0.021678445,0.234460908,0.380264208,0.36359644
0.021782348,0.234257,0.380190052,0.3637706
0.021885572,0.234053714,0.380116203,0.363944511
0.021988112,0.23385106,0.380042671,0.364118157
0.022089964,0.233649047,0.379969466,0.364291523
0.022191123,0.233447684,0.379896598,0.364464595
0.022291585,0.233246981,0.379824075,0.364637359
0.022391344,0.233046945,0.379751907,0.364809803
0.022490397,0.232847585,0.379680103,0.364981915
0.022588738,0.23264891,0.379608671,0.365153681
0.022686365,0.232450927,0.379537618,0.36532509
0.022783271,0.232253644,0.379466954,0.365496131
0.022879454,0.232057067,0.379396684,0.365666795
0.022974909,0.231861202,0.379326817,0.365837071
0.023069633,0.231666056,0.37925736,0.366006951
0.023163622,0.231471634,0.379188319,0.366176425
0.023256873,0.231277944,0.379119701,0.366345482
0.023349381,0.231084992,0.379051512,0.366514115
0.023441144,0.230892785,0.378983755,0.366682316
0.02353216,0.230701329,0.378916436,0.366850075
0.023622424,0.230510631,0.378849558,0.367017387
0.023711936,0.230320696,0.378783125,0.367184243
0.023800691,0.23013153,0.378717143,0.367350636
0.023888687,0.229943136,0.378651619,0.367516558
0.023975921,0.229755517,0.378586563,0.367681998
0.024062391,0.229568677,0.378521983,0.367846948
0.024148095,0.229382618,0.378457889,0.368011398
0.02423303,0.229197343,0.378394289,0.368175338
0.024317194,0.229012856,0.37833119,0.36833876
0.024400587,0.228829159,0.378268601,0.368501654
0.024483205,0.228646255,0.378206528,0.368664012
0.024565049,0.228464148,0.378144979,0.368825823
0.024646117,0.22828284,0.378083963,0.368987079
0.024726408,0.228102335,0.378023488,0.369147769
0.024805923,0.227922634,0.37796356,0.369307884
0.024884661,0.22774374,0.377904187,0.369467412
0.024962622,0.227565655,0.377845377,0.369626345
0.025039809,0.227388384,0.377787137,0.36978467
0.025116223,0.227211927,0.377729472,0.369942378
0.025191864,0.227036288,0.37767239,0.370099458
0.025266735,0.226861469,0.377615894,0.370255902
0.025340836,0.226687472,0.377559989,0.370411703
0.025414171,0.226514296,0.377504679,0.370566853
0.025486742,0.226341942,0.377449968,0.370721348
0.02555855,0.226170407,0.377395858,0.370875185
0.025629598,0.225999691,0.377342351,0.371028361
0.025699888,0.225829789,0.377289447,0.371180877
0.025769423,0.225660696,0.377237147,0.371332734
0.025838204,0.225492406,0.377185454,0.371483937
0.025906234,0.225324912,0.377134366,0.371634487
0.025973516,0.22515821,0.377083883,0.371784391
0.026040051,0.224992291,0.377034006,0.371933652
0.026105841,0.22482715,0.376984732,0.372082277
0.02617089,0.22466278,0.376936059,0.372230271
0.026235199,0.224499174,0.376887985,0.372377642
0.026298771,0.224336325,0.376840508,0.372524396
0.026361609,0.224174226,0.376793626,0.37267054
0.026423715,0.224012867,0.376747339,0.372816079
0.026485093,0.223852239,0.376701648,0.37296102
0.026545744,0.223692331,0.376656557,0.373105368
0.026605672,0.223533133,0.376612068,0.373249126
0.02666488,0.223374634,0.376568183,0.373392302
0.026723371,0.223216824,0.376524905,0.3735349
0.026781148,0.223059692,0.376482234,0.373676926
0.026838214,0.222903229,0.37644017,0.373818387
0.026894572,0.222747424,0.376398714,0.373959291
0.026950224,0.222592268,0.376357863,0.374099645
0.027005176,0.222437754,0.376317614,0.374239456
0.027059428,0.222283875,0.376277963,0.374378733
0.027112986,0.222130624,0.376238906,0.374517485
0.027165853,0.221977993,0.376200435,0.37465572
0.027218031,0.221825973,0.376162543,0.374793453
0.027269526,0.221674556,0.376125221,0.374930698
0.027320339,0.221523732,0.376088456,0.375067473
0.027370474,0.221373493,0.376052236,0.375203797
0.027419934,0.221223829,0.37601655,0.375339688
0.027468722,0.221074731,0.375981384,0.375475164
0.02751684,0.22092619,0.375946726,0.375610245
0.027564291,0.220778198,0.375912562,0.37574495
0.027611078,0.220630746,0.37587888,0.375879296
0.027657204,0.220483827,0.375845667,0.376013303
0.027702672,0.220337431,0.375812909,0.376146988
0.027747485,0.22019155,0.375780596,0.376280369
0.027791647,0.220046177,0.375748715,0.376413462
0.027835161,0.219901306,0.375717253,0.376546281
0.02787803,0.219756931,0.375686197,0.376678842
0.02792026,0.219613047,0.375655533,0.376811161
0.027961853,0.219469648,0.375625244,0.376943254
0.028002814,0.219326729,0.375595318,0.377075139
0.028043147,0.219184285,0.375565737,0.377206831
0.028082856,0.21904231,0.375536487,0.377338347
0.028121946,0.218900801,0.375507553,0.377469701
0.028160422,0.218759751,0.375478918,0.37760091
0.028198289,0.218619155,0.375450567,0.377731989
0.028235552,0.218479007,0.375422485,0.377862955
0.028272217,0.218339303,0.375394658,0.377993822
0.028308286,0.218200036,0.375367072,0.378124606
0.028343766,0.218061201,0.375339712,0.378255321
0.028378661,0.217922791,0.375312566,0.378385982
0.028412976,0.217784799,0.37528562,0.378516605
0.028446715,0.21764722,0.375258863,0.378647202
0.028479884,0.217510048,0.375232282,0.378777787
0.028512486,0.217373279,0.375205865,0.378908369
0.028544528,0.21723691,0.375179603,0.379038959
0.028576012,0.217100936,0.375153486,0.379169566
0.028606944,0.216965356,0.375127503,0.379300197
0.028637327,0.216830169,0.375101646,0.379430858
0.028667166,0.216695374,0.375075904,0.379561556
0.028696464,0.216560972,0.375050268,0.379692296
0.028725226,0.216426963,0.375024728,0.379823084
0.028753456,0.216293348,0.374999273,0.379953923
0.028781158,0.216160127,0.374973897,0.380084818
0.028808338,0.216027301,0.37494859,0.380215771
0.028834998,0.215894871,0.374923347,0.380346784
0.028861142,0.215762839,0.374898161,0.380477857
0.028886776,0.215631206,0.374873026,0.380608991
0.028911903,0.215499977,0.374847934,0.380740186
0.028936527,0.215369155,0.374822878,0.38087144
0.028960652,0.215238748,0.374797852,0.381002749
0.02898428,0.215108761,0.374772849,0.38113411
0.029007416,0.214979199,0.374747864,0.381265521
0.029030064,0.214850068,0.37472289,0.381396979
0.029052227,0.214721374,0.374697919,0.38152848
0.029073908,0.214593125,0.374672944,0.381660023
0.029095112,0.214465325,0.374647957,0.381791605
0.029115843,0.214337982,0.374622952,0.381923223
0.029136104,0.214211099,0.374597924,0.382054874
0.029155899,0.214084682,0.374572868,0.382186552
0.029175232,0.213958734,0.37454778,0.382318254
0.029194106,0.21383326,0.374522658,0.382449976
0.029212526,0.213708264,0.374497497,0.382581713
0.029230494,0.213583751,0.374472294,0.382713461
0.029248014,0.213459725,0.374447046,0.382845215
0.02926509,0.213336192,0.37442175,0.382976968
0.029281724,0.213213157,0.374396404,0.383108715
0.029297921,0.213090626,0.374371007,0.383240446
0.029313682,0.212968605,0.374345559,0.383372154
0.02932901,0.212847096,0.374320063,0.38350383
0.02934391,0.212726105,0.374294519,0.383635465
0.029358383,0.212605635,0.374268932,0.38376705
0.029372432,0.21248569,0.374243305,0.383898573
0.02938606,0.212366273,0.374217643,0.384030025
0.029399269,0.212247387,0.374191949,0.384161394
0.029412064,0.212129037,0.374166228,0.384292672
0.029424445,0.212011224,0.374140485,0.384423847
0.029436416,0.211893953,0.374114722,0.384554908
0.029447981,0.211777228,0.374088945,0.384685846
0.02945914,0.211661054,0.374063157,0.384816649
0.029469898,0.211545437,0.374037362,0.384947304
0.029480256,0.21143038,0.374011562,0.385077802
0.029490218,0.211315889,0.37398576,0.385208133
0.029499786,0.21120197,0.373959957,0.385338287
0.029508963,0.211088628,0.373934152,0.385468257
0.029517753,0.210975869,0.373908343,0.385598035
0.029526157,0.210863699,0.373882527,0.385727617
0.029534178,0.210752125,0.3738567,0.385856997
0.029541819,0.210641152,0.373830858,0.385986171
0.029549083,0.210530786,0.373804997,0.386115134
0.029555973,0.210421032,0.373779115,0.38624388
0.029562491,0.210311897,0.373753208,0.386372404
0.029568641,0.210203384,0.373727273,0.386500701
0.029574426,0.2100955,0.373701308,0.386628766
0.029579849,0.209988247,0.37367531,0.386756594
0.029584912,0.209881631,0.373649276,0.386884181
0.029589619,0.209775654,0.373623201,0.387011525
0.029593974,0.209670322,0.373597083,0.387138622
0.029597979,0.209565637,0.373570917,0.387265467
0.029601637,0.209461604,0.373544699,0.38739206
0.029604951,0.209358228,0.373518424,0.387518397
0.029607925,0.209255513,0.373492084,0.387644478
0.02961056,0.209153464,0.373465673,0.387770302
0.02961286,0.209052087,0.373439185,0.387895868
0.029614828,0.208951385,0.373412612,0.388021175
0.029616466,0.208851363,0.373385949,0.388146222
0.029617776,0.208752024,0.373359191,0.388271009
0.029618761,0.208653372,0.373332334,0.388395532
0.029619425,0.20855541,0.373305379,0.388519786
0.029619768,0.208458141,0.373278326,0.388643766
0.029619792,0.208361568,0.373251175,0.388767464
0.0296195,0.208265696,0.373223932,0.388890872
0.029618893,0.208170527,0.373196599,0.38901398
0.029617973,0.208076063,0.373169186,0.389136779
0.02961674,0.207982305,0.373141696,0.389259259
0.029615195,0.207889253,0.373114138,0.389381415
0.02961334,0.207796907,0.373086515,0.389503238
0.029611175,0.207705265,0.373058836,0.389624724
0.029608703,0.207614327,0.373031106,0.389745864
0.029605922,0.207524091,0.373003335,0.389866652
0.029602835,0.207434555,0.37297553,0.38998708
0.029599442,0.207345719,0.3729477,0.390107139
0.029595744,0.207257578,0.372919855,0.390226823
0.029591742,0.207170131,0.372892003,0.390346124
0.029587436,0.207083373,0.372864155,0.390465036
0.029582828,0.2069973,0.372836319,0.390583553
0.029577919,0.20691191,0.372808504,0.390701667
0.02957271,0.206827197,0.372780721,0.390819372
0.029567202,0.206743159,0.372752981,0.390936659
0.029561397,0.20665979,0.372725292,0.391053521
0.029555295,0.206577088,0.372697664,0.391169953
0.029548899,0.206495049,0.372670106,0.391285947
0.029542209,0.206413666,0.372642625,0.391401499
0.029535227,0.206332938,0.372615231,0.391516604
0.029527955,0.206252858,0.37258793,0.391631258
0.029520392,0.206173421,0.37256073,0.391745457
0.029512541,0.206094622,0.372533637,0.3918592
0.029504403,0.206016454,0.372506659,0.391972484
0.029495978,0.205938912,0.372479804,0.392085306
0.029487268,0.205861988,0.372453082,0.392197662
0.029478275,0.205785674,0.372426503,0.392309548
0.029468997,0.205709963,0.372400081,0.392420958
0.029459438,0.205634846,0.372373829,0.392531887
0.029449597,0.205560316,0.372347761,0.392642326
0.029439476,0.205486367,0.372321892,0.392752266
0.029429075,0.205412992,0.372296236,0.392861696
0.029418396,0.205340187,0.372270809,0.392970608
0.029407439,0.205267945,0.372245625,0.393078991
0.029396206,0.20519626,0.3722207,0.393186835
0.029384697,0.205125127,0.372196047,0.393294129
0.029372914,0.20505454,0.372171681,0.393400864
0.029360859,0.204984493,0.372147618,0.39350703
0.029348531,0.204914981,0.372123871,0.393612618
0.029335932,0.204845995,0.372100454,0.393717619
0.029323064,0.204777529,0.372077383,0.393822023
0.029309929,0.204709575,0.372054672,0.393925825
0.029296528,0.204642125,0.372032334,0.394029014
0.029282864,0.204575169,0.372010385,0.394131582
0.029268939,0.204508699,0.37198884,0.394233521
0.029254755,0.204442706,0.371967717,0.394334822
0.029240314,0.20437718,0.371947029,0.394435476
0.029225619,0.204312114,0.371926793,0.394535474
0.02921067,0.2042475,0.371907024,0.394634806
0.029195471,0.204183333,0.371887735,0.394733462
0.029180022,0.204119606,0.371868939,0.394831433
0.029164327,0.204056315,0.37185065,0.394928708
0.029148386,0.203993457,0.371832879,0.395025278
0.029132202,0.203931027,0.371815638,0.395121133
0.029115777,0.203869023,0.371798938,0.395216263
0.029099112,0.203807439,0.371782791,0.395310658
0.02908221,0.203746273,0.371767208,0.395404309
0.029065072,0.203685521,0.3717522,0.395497207
0.029047701,0.203625178,0.371737777,0.395589344
0.029030097,0.20356524,0.37172395,0.395680712
0.029012264,0.203505702,0.37171073,0.395771303
0.028994203,0.203446561,0.371698128,0.395861108
0.028975916,0.203387811,0.371686154,0.395950119
0.028957405,0.203329447,0.37167482,0.396038328
0.02893867,0.203271465,0.371664138,0.396125726
0.028919715,0.20321386,0.371654122,0.396212303
0.028900539,0.203156629,0.371644784,0.396298048
0.028881144,0.203099766,0.371636137,0.396382953
0.028861533,0.203043266,0.371628193,0.396467008
0.028841706,0.202987126,0.371620963,0.396550206
0.028821665,0.202931337,0.371614455,0.396632543
0.028801413,0.202875895,0.371608678,0.396714013
0.028780951,0.202820794,0.371603639,0.396794616
0.028760282,0.202766027,0.371599343,0.396874349
0.028739406,0.202711588,0.371595794,0.396953211
0.028718327,0.202657473,0.371592998,0.397031202
0.028697046,0.202603677,0.371590956,0.397108321
0.028675566,0.202550193,0.371589673,0.397184568
0.028653889,0.202497018,0.371589151,0.397259942
0.028632018,0.202444148,0.371589391,0.397334443
0.028609954,0.202391578,0.371590397,0.397408071
0.028587702,0.202339303,0.371592169,0.397480826
0.028565262,0.202287319,0.371594712,0.397552707
0.028542639,0.202235621,0.371598026,0.397623715
0.028519833,0.202184202,0.371602114,0.397693851
0.028496847,0.202133057,0.371606981,0.397763115
0.028473684,0.202082179,0.371612628,0.397831508
0.028450345,0.20203156,0.371619062,0.397899033
0.028426832,0.201981192,0.371626284,0.397965691
0.028403146,0.201931067,0.371634301,0.398031486
0.02837929,0.201881174,0.371643115,0.398096421
0.028355265,0.201831508,0.371652729,0.398160498
0.028331074,0.201782059,0.371663147,0.39822372
0.028306718,0.20173282,0.371674373,0.398286089
0.028282199,0.201683782,0.371686412,0.398347607
0.028257519,0.201634938,0.371699266,0.398408277
0.028232681,0.20158628,0.371712939,0.398468101
0.028207686,0.201537799,0.371727434,0.398527082
0.028182535,0.201489488,0.371742754,0.398585223
0.028157232,0.201441339,0.371758901,0.398642528
0.028131779,0.201393346,0.371775876,0.398699
0.028106176,0.2013455,0.371793683,0.398754641
0.028080427,0.201297796,0.371812325,0.398809452
0.028054532,0.201250229,0.371831806,0.398863433
0.028028495,0.201202792,0.37185213,0.398916583
0.028002317,0.20115548,0.371873303,0.3989689
0.027976,0.201108291,0.371895327,0.399020382
0.027949546,0.201061218,0.371918207,0.39907103
0.027922956,0.201014258,0.371941946,0.399120841
0.027896232,0.200967405,0.371966547,0.399169816
0.027869376,0.200920656,0.371992012,0.399217955
0.02784239,0.200874007,0.372018343,0.39926526
0.027815276,0.200827453,0.372045538,0.399311733
0.027788034,0.20078099,0.372073597,0.399357379
0.027760666,0.200734615,0.372102515,0.399402204
0.027733173,0.200688322,0.372132291,0.399446214
0.027705557,0.200642109,0.372162921,0.399489413
0.027677819,0.200595973,0.372194401,0.399531807
0.027649961,0.20054991,0.372226728,0.399573401
0.027621983,0.200503919,0.372259899,0.399614198
0.027593888,0.200457999,0.37229391,0.399654203
0.027565676,0.200412147,0.372328758,0.399693419
0.027537348,0.200366363,0.372364439,0.399731849
0.027508908,0.200320644,0.372400949,0.399769499
0.027480354,0.200274989,0.372438284,0.399806372
0.02745169,0.200229395,0.37247644,0.399842475
0.027422917,0.200183859,0.372515411,0.399877813
0.027394035,0.200138379,0.372555194,0.399912392
0.027365048,0.200092951,0.372595781,0.399946219
0.027335956,0.200047572,0.372637167,0.399979305
0.027306761,0.200002239,0.372679342,0.400011658
0.027277465,0.199956947,0.372722299,0.400043289
0.027248071,0.199911695,0.372766027,0.400074208
0.027218579,0.199866478,0.372810517,0.400104426
0.027188992,0.199821296,0.37285576,0.400133952
0.027159311,0.199776146,0.372901747,0.400162796
0.027129539,0.199731026,0.372948468,0.400190967
0.027099677,0.199685934,0.372995913,0.400218476
0.027069726,0.199640868,0.373044073,0.400245333
0.027039689,0.199595824,0.373092939,0.400271547
0.027009568,0.199550802,0.373142502,0.400297128
0.026979363,0.199505798,0.373192753,0.400322087
0.026949077,0.19946081,0.373243681,0.400346433
0.026918711,0.199415835,0.373295277,0.400370177
0.026888268,0.19937087,0.373347532,0.40039333
0.026857748,0.199325914,0.373400435,0.400415904
0.026827154,0.199280963,0.373453975,0.400437908
0.026796487,0.199236016,0.373508143,0.400459354
0.026765749,0.199191072,0.373562928,0.40048025
0.026734942,0.19914613,0.373618323,0.400500604
0.026704068,0.199101192,0.37367432,0.40052042
0.026673127,0.199056258,0.373730911,0.400539703
0.026642123,0.199011331,0.373788092,0.400558455
0.026611055,0.198966412,0.373845859,0.400576674
0.026579926,0.198921503,0.373904208,0.400594363
0.026548737,0.198876604,0.373963137,0.400611522
0.026517489,0.198831718,0.374022642,0.400628151
0.026486185,0.198786844,0.374082721,0.40064425
0.026454825,0.198741984,0.37414337,0.400659821
0.02642341,0.198697139,0.374204586,0.400674864
0.026391944,0.19865231,0.374266366,0.40068938
0.026360425,0.198607498,0.374328706,0.40070337
0.026328857,0.198562706,0.374391602,0.400716835
0.02629724,0.198517935,0.37445505,0.400729775
0.026265575,0.198473189,0.374519045,0.40074219
0.026233864,0.198428468,0.374583585,0.400754082
0.026202109,0.198383776,0.374648665,0.40076545
0.026170309,0.198339115,0.374714278,0.400776297
0.026138468,0.198294486,0.374780422,0.400786624
0.026106585,0.198249893,0.37484709,0.400796432
0.026074664,0.198205337,0.374914277,0.400805722
0.026042705,0.198160821,0.374981979,0.400814495
0.02601071,0.198116347,0.375050192,0.400822751
0.02597868,0.198071919,0.37511891,0.400830491
0.025946618,0.198027537,0.37518813,0.400837715
0.025914525,0.197983206,0.375257844,0.400844424
0.025882403,0.197938927,0.375328048,0.400850622
0.025850252,0.197894704,0.375398735,0.400856309
0.025818076,0.197850537,0.375469897,0.40086149
0.025785874,0.197806428,0.375541528,0.40086617
0.025753649,0.19776238,0.375613619,0.400870352
0.025721402,0.197718391,0.375686165,0.400874043
0.025689134,0.197674462,0.375759158,0.400877246
0.025656847,0.197630595,0.375832591,0.400879967
0.025624542,0.197586789,0.375906459,0.400882211
0.025592221,0.197543043,0.375980756,0.40088398
0.025559885,0.19749936,0.376055477,0.400885279
0.025527535,0.197455737,0.376130619,0.400886109
0.025495173,0.197412176,0.376206177,0.400886474
0.0254628,0.197368676,0.376282148,0.400886376
0.025430418,0.197325236,0.376358529,0.400885818
0.025398027,0.197281856,0.376435316,0.400884801
0.02536563,0.197238534,0.376512508,0.400883327
0.025333228,0.197195271,0.376590102,0.400881399
0.025300822,0.197152066,0.376668096,0.400879016
0.025268413,0.197108918,0.376746487,0.400876182
0.025236004,0.197065827,0.376825273,0.400872896
0.025203595,0.197022792,0.376904452,0.400869161
0.025171188,0.196979815,0.376984018,0.400864978
0.025138785,0.196936898,0.377063968,0.400860349
0.025106386,0.196894041,0.377144298,0.400855275
0.025073992,0.196851248,0.377225002,0.400849758
0.025041605,0.196808519,0.377306076,0.4008438
0.025009226,0.196765858,0.377387515,0.400837401
0.024976855,0.196723266,0.377469316,0.400830563
0.024944493,0.196680746,0.377551474,0.400823286
0.024912142,0.196638302,0.377633986,0.400815569
0.024879802,0.196595938,0.377716849,0.400807411
0.024847473,0.196553658,0.377800061,0.400798807
0.024815157,0.196511469,0.377883618,0.400789756
0.024782854,0.196469374,0.377967518,0.400780253
0.024750565,0.196427381,0.378051757,0.400770296
0.024718291,0.196385495,0.378136331,0.400759883
0.024686033,0.196343725,0.378221233,0.400749009
0.024653791,0.196302076,0.37830646,0.400737673
0.024621566,0.196260557,0.378392005,0.400725872
0.02458936,0.196219175,0.378477863,0.400713603
0.024557172,0.196177936,0.378564028,0.400700864
0.024525003,0.196136848,0.378650494,0.400687654
0.024492855,0.196095918,0.378737255,0.400673972
0.024460729,0.196055153,0.378824304,0.400659815
0.024428624,0.196014558,0.378911633,0.400645184
