0.191999269,0.235026585,0.112919461,0.460054685
0.191671319,0.234842513,0.113405403,0.460080765
0.191345719,0.234665449,0.113885317,0.460103515
0.191022443,0.234495319,0.114359267,0.460122971
0.190701465,0.234332051,0.114827316,0.460139168
0.190382757,0.234175577,0.115289527,0.460152139
0.190066295,0.234025826,0.11574596,0.460161919
0.189752052,0.233882732,0.116196675,0.46016854
0.189440004,0.233746227,0.116641733,0.460172036
0.189130127,0.233616243,0.11708119,0.46017244
0.188822396,0.233492715,0.117515106,0.460169783
0.188516788,0.233375576,0.117943539,0.460164097
0.188213279,0.233264761,0.118366545,0.460155414
0.187911846,0.233160205,0.118784183,0.460143765
0.187612468,0.233061844,0.119196508,0.46012918
0.18731512,0.232969611,0.119603577,0.460111692
0.187019782,0.232883442,0.120005444,0.460091331
0.186726433,0.232803272,0.120402165,0.46006813
0.186435051,0.232729035,0.120793793,0.460042121
0.186145617,0.232660666,0.121180383,0.460013334
0.18585811,0.232598101,0.121561988,0.459981801
0.185572511,0.232541277,0.12193866,0.459947552
0.1852888,0.232490129,0.122310453,0.459910619
0.185006957,0.232444593,0.122677417,0.459871033
0.184726961,0.232404606,0.123039605,0.459828827
0.184448794,0.232370107,0.123397067,0.459784032
0.184172433,0.232341035,0.123749853,0.459736679
0.183897859,0.232317328,0.124098014,0.459686799
0.183625052,0.232298929,0.124441598,0.459634422
0.18335399,0.232285776,0.124780655,0.459579578
0.183084655,0.232277812,0.125115235,0.459522298
0.182817026,0.232274977,0.125445385,0.459462612
0.182551083,0.232277215,0.125771153,0.459400549
0.182286805,0.232284472,0.126092587,0.459336137
0.182024171,0.232296692,0.126409731,0.459269406
0.181763163,0.232313823,0.126722632,0.459200383
0.18150376,0.232335812,0.127031335,0.459129094
0.181245942,0.232362608,0.127335884,0.459055565
0.180989689,0.232394164,0.127636325,0.458979822
0.180734983,0.232430429,0.127932701,0.458901887
0.180481804,0.232471359,0.128225055,0.458821783
0.180230131,0.232516907,0.12851343,0.458739532
0.179979944,0.232567034,0.128797869,0.458655153
0.179731221,0.232621704,0.129078413,0.458568662
0.179483941,0.232680885,0.129355104,0.458480071
0.179238079,0.232744546,0.129627983,0.458389392
0.178993613,0.232812661,0.12989709,0.458296636
0.178750522,0.232885201,0.130162464,0.458201814
0.178508781,0.232962142,0.130424144,0.458104933
0.178268368,0.233043462,0.130682169,0.458006002
0.178029259,0.233129139,0.130936574,0.457905027
0.177791434,0.233219152,0.131187397,0.457802017
0.177554868,0.23331348,0.131434675,0.457696976
0.177319542,0.233412101,0.131678444,0.457589913
0.177085432,0.233514992,0.13191874,0.457480835
0.17685252,0.233622132,0.132155599,0.457369749
0.176620783,0.233733496,0.132389058,0.457256664
0.176390202,0.233849059,0.132619151,0.457141588
0.176160757,0.233968797,0.132845915,0.457024532
0.175932428,0.234092681,0.133069385,0.456905506
0.175705197,0.234220685,0.133289595,0.456784523
0.175479046,0.234352781,0.133506581,0.456661593
0.175253955,0.234488942,0.133720376,0.456536727
0.175029907,0.234629141,0.133931016,0.456409935
0.174806883,0.234773353,0.134138535,0.456281229
0.174584865,0.23492155,0.134342968,0.456150617
0.174363834,0.23507371,0.134544348,0.456018109
0.174143772,0.235229806,0.13474271,0.455883712
0.173924659,0.235389817,0.134938088,0.455747435
0.173706478,0.235553719,0.135130518,0.455609285
0.17348921,0.235721489,0.135320032,0.455469269
0.173272836,0.235893106,0.135506666,0.455327392
0.173057339,0.236068547,0.135690452,0.455183663
0.172842701,0.236247787,0.135871423,0.45503809
0.172628905,0.236430803,0.136049612,0.454890681
0.172415934,0.236617569,0.13622505,0.454741447
0.172203771,0.236808061,0.136397771,0.454590397
0.1719924,0.237002254,0.136567805,0.454437542
0.171781804,0.237200122,0.136735183,0.454282891
0.171571969,0.237401643,0.136899936,0.454126452
0.171362877,0.237606795,0.137062092,0.453968236
0.171154513,0.237815557,0.137221682,0.453808248
0.17094686,0.238027909,0.137378733,0.453646498
0.1707399,0.238243835,0.137533273,0.453482992
0.170533616,0.238463321,0.137685328,0.453317736
0.170327988,0.238686355,0.137834926,0.453150731
0.170122998,0.23891293,0.137982092,0.452981979
0.169918627,0.239143042,0.138126853,0.452811478
0.169714856,0.239376687,0.138269232,0.452639225
0.169511666,0.239613862,0.138409253,0.452465219
0.169309038,0.239854567,0.13854694,0.452289455
0.169106956,0.240098797,0.138682317,0.452111931
0.168905399,0.240346551,0.138815405,0.451932645
0.168704352,0.240597827,0.13894623,0.451751591
0.168503796,0.240852624,0.139074813,0.451568767
0.168303714,0.241110941,0.139201179,0.451384166
0.168104089,0.241372774,0.139325351,0.451197786
0.167904904,0.241638121,0.139447352,0.451009623
0.167706142,0.24190698,0.139567206,0.450819671
0.167507787,0.242179348,0.139684937,0.450627927
0.167309822,0.242455223,0.13980057,0.450434385
0.167112228,0.242734602,0.139914128,0.450239041
0.16691499,0.243017485,0.140025635,0.450041891
0.16671809,0.243303868,0.140135114,0.449842928
0.166521513,0.24359375,0.14024259,0.449642148
0.166325243,0.243887126,0.140348087,0.449439545
0.166129265,0.244183993,0.140451631,0.449235112
0.165933566,0.244484343,0.140553247,0.449028844
0.16573813,0.244788173,0.140652963,0.448820734
0.165542945,0.245095479,0.140750802,0.448610774
0.165347996,0.245406257,0.140846792,0.448398955
0.16515327,0.245720506,0.14094096,0.448185263
0.164958754,0.246038224,0.141033335,0.447969687
0.164764436,0.246359408,0.141123944,0.447752213
0.164570303,0.246684057,0.141212816,0.447532825
0.164376342,0.247012169,0.141299979,0.447311509
0.164182541,0.247343746,0.141385462,0.447088251
0.163988883,0.247678791,0.141469291,0.446863035
0.163795355,0.248017308,0.141551493,0.446635845
0.16360194,0.248359304,0.141632093,0.446406663
0.163408626,0.248704783,0.141711119,0.446175471
0.163215397,0.249053752,0.141788599,0.445942252
0.163022238,0.249406218,0.141864558,0.445706986
0.162829133,0.249762189,0.141939024,0.445469653
0.162636067,0.250121677,0.142012021,0.445230234
0.162443023,0.250484693,0.142083573,0.444988711
0.162249987,0.250851246,0.142153703,0.444745065
0.162056944,0.251221346,0.142222433,0.444499277
0.161863881,0.251595002,0.142289787,0.44425133
0.161670784,0.251972222,0.142355787,0.444001206
0.161477643,0.252353013,0.142420457,0.443748887
0.161284447,0.25273738,0.14248382,0.443494353
0.161091187,0.253125329,0.142545899,0.443237584
0.160897855,0.253516867,0.142606717,0.442978561
0.160704443,0.253911998,0.142666295,0.442717264
0.160510942,0.254310726,0.142724659,0.442453673
0.160317346,0.254713055,0.142781831,0.442187768
0.160123646,0.255118991,0.142837835,0.441919527
0.159929835,0.255528541,0.142892695,0.441648929
0.159735906,0.25594171,0.142946432,0.441375952
0.159541853,0.256358504,0.142999068,0.441100576
0.15934767,0.256778928,0.143050624,0.440822778
0.159153353,0.257202989,0.143101121,0.440542536
0.158958896,0.257630698,0.143150579,0.440259827
0.158764293,0.258062065,0.143199017,0.439974625
0.158569539,0.2584971,0.143246454,0.439686907
0.158374629,0.258935813,0.143292912,0.439396646
0.158179556,0.259378215,0.143338409,0.439103819
0.157984318,0.259824317,0.143382965,0.4388084
0.157788911,0.260274124,0.1434266,0.438510365
0.157593331,0.260727643,0.143469333,0.438209693
0.157397576,0.261184876,0.143511185,0.437906363
0.157201643,0.261645826,0.143552176,0.437600355
0.157005528,0.262110493,0.143592327,0.437291653
0.156809227,0.262578876,0.143631656,0.436980241
0.156612738,0.263050973,0.143670183,0.436666105
0.156416058,0.263526779,0.143707928,0.436349235
0.156219185,0.264006285,0.143744909,0.43602962
0.156022117,0.264489485,0.143781146,0.435707251
0.155824853,0.264976369,0.143816658,0.43538212
0.155627391,0.265466925,0.143851466,0.435054219
0.15542973,0.265961142,0.143885587,0.43472354
0.155231871,0.266459007,0.143919043,0.434390079
0.155033812,0.266960507,0.143951851,0.43405383
0.154835553,0.26746563,0.143984031,0.433714786
0.154637093,0.267974365,0.144015601,0.433372941
0.15443843,0.268486701,0.144046579,0.43302829
0.154239563,0.269002625,0.144076984,0.432680828
0.154040489,0.269522125,0.144106836,0.43233055
0.153841208,0.270045186,0.144136154,0.431977452
0.15364172,0.27057179,0.144164959,0.431621531
0.153442023,0.271101921,0.144193271,0.431262785
0.153242119,0.271635556,0.144221113,0.430901213
0.153042007,0.272172672,0.144248506,0.430536816
0.152841686,0.272713244,0.144275474,0.430169596
0.152641158,0.273257245,0.144302038,0.429799559
0.152440423,0.273804647,0.144328223,0.429426707
0.152239482,0.274355422,0.14435405,0.429051047
0.152038336,0.27490954,0.144379544,0.42867258
0.151836986,0.275466977,0.144404726,0.428291311
0.151635432,0.276027713,0.144429617,0.427907238
0.151433672,0.276591731,0.144454239,0.427520358
0.151231705,0.277159016,0.14447861,0.427130669
0.151029528,0.277729561,0.144502749,0.426738163
0.150827136,0.278303361,0.144526672,0.426342831
0.150624522,0.27888042,0.144550395,0.425944663
0.15042168,0.279460741,0.144573934,0.425543645
0.150218604,0.280044325,0.144597303,0.425139769
0.150015286,0.280631171,0.144620519,0.424733024
0.149811721,0.281221278,0.144643598,0.424323403
0.149607904,0.28181464,0.144666557,0.4239109
0.149403829,0.282411252,0.144689411,0.423495508
0.14919949,0.283011107,0.144712178,0.423077224
0.148994883,0.283614197,0.144734877,0.422656044
0.148790001,0.284220511,0.144757523,0.422231965
0.14858484,0.284830038,0.144780135,0.421804987
0.148379394,0.285442766,0.14480273,0.42137511
0.148173658,0.286058683,0.144825323,0.420942336
0.147967624,0.286677781,0.14484793,0.420506665
0.147761285,0.287300049,0.144870566,0.4200681
0.147554633,0.287925478,0.144893246,0.419626644
0.147347659,0.288554057,0.144915987,0.419182298
0.147140356,0.289185773,0.144938804,0.418735067
0.146932717,0.289820616,0.144961714,0.418284954
0.146724733,0.290458571,0.144984733,0.417831963
0.146516397,0.291099626,0.14500788,0.417376097
0.146307702,0.291743765,0.145031171,0.416917362
0.146098639,0.292390973,0.145054625,0.416455763
0.145889202,0.293041236,0.145078256,0.415991305
0.145679383,0.293694541,0.145102083,0.415523994
0.145469173,0.294350875,0.145126118,0.415053834
0.145258567,0.295010223,0.145150377,0.414580833
0.145047556,0.295672573,0.145174876,0.414104995
0.144836135,0.296337908,0.14519963,0.413626327
0.144624296,0.297006216,0.145224654,0.413144835
0.14441203,0.297677481,0.145249964,0.412660524
0.14419933,0.298351691,0.145275575,0.412173403
0.143986189,0.299028829,0.145301502,0.411683479
0.143772599,0.299708879,0.145327762,0.41119076
0.143558553,0.300391822,0.145354369,0.410695256
0.143344044,0.301077637,0.14538134,0.410196978
0.143129067,0.301766302,0.145408692,0.409695939
0.142913614,0.30245779,0.145436443,0.409192153
0.142697682,0.303152075,0.145464608,0.408685635
0.142481264,0.303849127,0.145493206,0.408176403
0.142264355,0.304548916,0.145522254,0.407664476
0.142046952,0.305251408,0.145551769,0.407149871
0.141829049,0.305956571,0.145581773,0.406632607
0.141610642,0.306664369,0.145612286,0.406112703
0.141391728,0.307374765,0.145643329,0.405590178
0.141172304,0.308087721,0.145674922,0.405065053
0.140952367,0.308803198,0.145707086,0.404537349
0.140731916,0.309521154,0.145739842,0.404007087
0.140510949,0.310241549,0.145773211,0.403474291
0.140289465,0.310964339,0.145807214,0.402938982
0.140067463,0.311689479,0.145841872,0.402401186
0.139844942,0.312416925,0.145877207,0.401860926
0.139621902,0.31314663,0.145913241,0.401318226
0.139398343,0.313878552,0.145949993,0.400773112
0.139174262,0.314612645,0.145987486,0.400225608
0.13894966,0.315348864,0.146025738,0.399675739
0.138724536,0.316087165,0.146064769,0.39912353
0.138498887,0.31682751,0.146104598,0.398569005
0.13827271,0.317569859,0.146145244,0.398012187
0.138046004,0.318314176,0.146186723,0.397453096
0.137818766,0.319060423,0.146229054,0.396891758
0.137590992,0.319808559,0.146272252,0.396328197
0.137362679,0.320558546,0.146316335,0.395762439
0.137133826,0.321310346,0.146361318,0.39519451
0.13690443,0.322063919,0.146407216,0.394624435
0.136674487,0.322819228,0.146454043,0.394052241
0.136443996,0.323576233,0.146501816,0.393477955
0.136212952,0.324334896,0.14655055,0.392901602
0.135981354,0.325095174,0.146600261,0.392323211
0.1357492,0.325857028,0.146650965,0.391742807
0.135516488,0.326620416,0.146702676,0.391160421
0.135283216,0.327385293,0.14675541,0.390576081
0.135049385,0.328151617,0.146809179,0.389989819
0.134814993,0.328919341,0.146863998,0.389401668
0.13458004,0.329688417,0.14691988,0.388811663
0.134344525,0.330458796,0.146976838,0.388219841
0.134108448,0.331230428,0.147034887,0.387626236
0.13387181,0.332003263,0.147094041,0.387030886
0.133634611,0.332777249,0.147154316,0.386433824
0.13339685,0.333552333,0.147215728,0.385835088
0.13315853,0.33432846,0.147278294,0.385234717
0.132919651,0.335105573,0.147342028,0.384632749
0.132680214,0.335883614,0.147406946,0.384029226
0.132440221,0.336662524,0.147473063,0.383424192
0.132199674,0.337442245,0.147540392,0.38281769
0.131958574,0.338222715,0.147608947,0.382209764
0.131716926,0.339003872,0.14767874,0.381600462
0.131474732,0.339785655,0.147749783,0.380989831
0.131231995,0.340567999,0.147822087,0.380377919
0.130988719,0.341350841,0.147895663,0.379764776
0.130744906,0.342134118,0.147970524,0.379150451
0.13050056,0.342917766,0.148046682,0.378534992
0.130255683,0.343701723,0.148124149,0.377918446
0.130010277,0.344485925,0.148202937,0.377300862
0.129764345,0.345270312,0.148283058,0.376682285
0.12951789,0.346054825,0.148364524,0.376062761
0.129270911,0.346839406,0.148447349,0.375442334
0.12902341,0.347623999,0.148531545,0.374821046
0.128775391,0.348408549,0.148617123,0.374198937
0.128526857,0.349193001,0.148704095,0.373576047
0.128277812,0.349977306,0.148792469,0.372952413
0.128028263,0.350761417,0.148882251,0.372328069
0.127778213,0.351545287,0.148973448,0.371703052
0.127527669,0.352328871,0.149066065,0.371077396
0.127276639,0.35311212,0.149160104,0.370451138
0.127025131,0.353894983,0.149255569,0.369824317
0.126773156,0.354677409,0.149352465,0.36919697
0.126520724,0.355459345,0.149450794,0.368569137
0.126267846,0.356240737,0.149550558,0.367940859
0.126014533,0.35702153,0.14965176,0.367312177
0.125760799,0.357801669,0.1497544,0.366683132
0.125506656,0.358581097,0.14985848,0.366053766
0.125252116,0.359359757,0.149964005,0.365424122
0.124997194,0.360137586,0.150070981,0.364794238
0.124741903,0.360914525,0.150179417,0.364164155
0.124486256,0.361690511,0.150289323,0.363533911
0.124230265,0.362465483,0.150400709,0.362903542
0.123973946,0.363239379,0.150513592,0.362273083
0.123717309,0.364012136,0.150627987,0.361642568
0.123460367,0.364783688,0.150743916,0.36101203
0.123203132,0.365553967,0.150861401,0.360381501
0.122945617,0.366322902,0.150980467,0.359751014
0.122687836,0.367090425,0.15110114,0.3591206
0.122429803,0.36785646,0.151223447,0.358490289
0.122171533,0.368620932,0.151347422,0.357860112
0.121913041,0.369383761,0.151473099,0.3572301
0.121654339,0.370144864,0.151600514,0.356600282
0.121395445,0.370904159,0.151729704,0.355970692
0.121136374,0.371661564,0.151860706,0.355341357
0.12087714,0.372416999,0.151993555,0.354712306
0.120617761,0.373170384,0.152128288,0.354083567
0.120358251,0.373921643,0.152264937,0.35345517
0.120098627,0.374670695,0.152403536,0.352827142
0.119838906,0.375417465,0.152544114,0.352199515
0.119579105,0.376161877,0.152686702,0.351572316
0.119319242,0.376903856,0.152831325,0.350945577
0.119059336,0.377643328,0.15297801,0.350319326
0.118799406,0.378380218,0.15312678,0.349693595
0.118539469,0.379114454,0.153277661,0.349068416
0.118279544,0.379845961,0.153430672,0.348443823
0.118019651,0.380574665,0.153585833,0.34781985
0.117759809,0.381300492,0.153743165,0.347196534
0.11750004,0.382023366,0.153902681,0.346573913
0.117240363,0.382743213,0.1540644,0.345952025
0.1169808,0.383459957,0.154228334,0.345330909
0.116721372,0.38417352,0.154394501,0.344710606
0.116462102,0.384883827,0.154562918,0.344091154
0.116203009,0.3855908,0.154733601,0.34347259
0.115944116,0.386294364,0.154906566,0.342854955
0.11568544,0.386994445,0.155081828,0.342238287
0.115426999,0.387690969,0.155259406,0.341622625
0.115168811,0.388383859,0.155439322,0.341008009
0.114910892,0.389073038,0.155621599,0.340394471
0.114653262,0.389758428,0.155806263,0.339782047
0.114395939,0.390439951,0.155993344,0.339170766
0.114138938,0.391117532,0.156182874,0.338560656
0.113882276,0.391791094,0.156374887,0.337951743
0.113625967,0.392460564,0.156569417,0.337344052
0.113370026,0.39312587,0.156766497,0.336737606
0.113114469,0.39378694,0.156966162,0.336132428
0.112859312,0.394443703,0.157168441,0.335528544
0.112604571,0.395096089,0.157373364,0.334925977
0.112350264,0.395744027,0.157580957,0.334324752
0.112096409,0.39638745,0.157791247,0.333724895
0.111843024,0.397026287,0.15800426,0.33312643
0.111590127,0.397660467,0.158220026,0.33252938
0.111337734,0.398289919,0.158438581,0.331933766
0.111085864,0.398914564,0.158659964,0.331339608
0.110834534,0.399534325,0.158884218,0.330746924
0.110583761,0.400149122,0.159111385,0.330155732
0.110333563,0.400758872,0.15934151,0.329566055
0.110083957,0.401363492,0.159574634,0.328977917
0.109834962,0.401962898,0.159810797,0.328391343
0.109586595,0.402557008,0.160050035,0.327806362
0.109338877,0.40314574,0.160292383,0.327223001
0.109091828,0.403729015,0.160537872,0.326641286
0.108845465,0.404306758,0.160786531,0.326061245
0.108599808,0.404878897,0.16103839,0.325482906
0.108354873,0.40544536,0.161293471,0.324906296
0.108110678,0.406006079,0.161551798,0.324331444
0.107867238,0.406560988,0.161813393,0.323758381
0.107624569,0.407110021,0.162078274,0.323187136
0.107382685,0.407653113,0.162346459,0.322617742
0.107141599,0.4081902,0.162617966,0.322050236
0.106901323,0.408721216,0.162892805,0.321484655
0.106661873,0.409246098,0.163170988,0.320921041
0.10642326,0.409764784,0.16345252,0.320359435
0.1061855,0.410277212,0.16373741,0.319799877
0.105948609,0.410783324,0.16402566,0.319242406
0.105712604,0.411283065,0.164317274,0.318687057
0.105477501,0.411776381,0.164612249,0.318133869
0.105243314,0.412263223,0.164910586,0.317582877
0.10501006,0.412743542,0.16521228,0.317034118
0.104777753,0.413217289,0.165517327,0.31648763
0.104546408,0.413684421,0.165825725,0.315943447
0.104316038,0.414144891,0.166137471,0.3154016
0.104086659,0.414598655,0.166452571,0.314862115
0.103858285,0.415045668,0.166771031,0.314325016
0.10363093,0.415485884,0.167092863,0.313790323
0.103404608,0.415919257,0.167418081,0.313258054
0.10317933,0.41634574,0.167746704,0.312728226
0.102955107,0.41676529,0.168078751,0.312200852
0.10273195,0.417177863,0.168414242,0.311675944
0.102509874,0.417583413,0.168753194,0.31115352
0.102288892,0.417981889,0.169095621,0.310633597
0.10206902,0.418373242,0.169441536,0.310116202
0.101850272,0.418757421,0.169790943,0.309601364
0.101632661,0.419134371,0.170143846,0.309089122
0.101416201,0.419504038,0.170500243,0.308579518
0.101200905,0.419866365,0.170860127,0.308072604
0.100986788,0.420221295,0.171223488,0.30756843
0.100773865,0.420568773,0.171590314,0.307067048
0.100562153,0.420908747,0.171960588,0.306568513
0.100351669,0.421241161,0.172334292,0.306072878
0.10014243,0.421565964,0.172711406,0.3055802
0.099934455,0.421883101,0.173091909,0.305090535
0.09972776,0.422192519,0.173475781,0.30460394
0.099522365,0.422494166,0.173862999,0.30412047
0.099318286,0.422787989,0.174253539,0.303640185
0.099115541,0.423073941,0.174647376,0.303163142
0.098914144,0.423351972,0.175044484,0.302689399
0.098714112,0.423622035,0.175444843,0.30221901
0.098515459,0.423884083,0.175848431,0.301752027
0.098318201,0.424138073,0.176255229,0.301288497
0.098122353,0.424383962,0.176665217,0.300828469
0.097927928,0.424621711,0.177078378,0.300371983
0.097734942,0.424851283,0.177494695,0.299919081
0.097543408,0.42507264,0.177914151,0.299469802
0.097353341,0.425285743,0.178336731,0.299024185
0.097164755,0.425490557,0.178762419,0.29858227
0.096977661,0.425687045,0.179191197,0.298144098
0.096792073,0.425875175,0.179623042,0.297709709
0.096608003,0.426054917,0.180057933,0.297279147
0.096425462,0.426226237,0.180495841,0.296852459
0.096244462,0.4263891,0.180936741,0.296429696
0.096065016,0.426543474,0.181380604,0.296010907
0.095887137,0.426689328,0.181827398,0.295596137
0.095710838,0.426826635,0.182277093,0.295185435
0.095536131,0.42695537,0.182729653,0.294778846
0.095363029,0.427075508,0.183185043,0.29437642
0.095191542,0.427187025,0.183643225,0.293978208
0.095021681,0.427289895,0.18410416,0.293584264
0.094853458,0.427384096,0.184567808,0.293194638
0.094686885,0.427469607,0.185034129,0.29280938
0.094521975,0.427546412,0.185503079,0.292428534
0.094358739,0.427614498,0.185974618,0.292052145
0.094197189,0.427673855,0.186448702,0.291680254
0.09403734,0.427724475,0.186925287,0.291312898
0.093879203,0.427766352,0.18740433,0.290950114
0.093722795,0.427799483,0.187885787,0.290591935
0.093568129,0.427823869,0.188369612,0.290238391
0.093415217,0.427839513,0.18885576,0.28988951
0.093264073,0.427846421,0.189344188,0.289545318
0.093114707,0.427844604,0.189834849,0.289205841
0.09296713,0.427834068,0.190327697,0.288871105
0.092821353,0.427814825,0.190822682,0.28854114
0.092677384,0.427786884,0.191319754,0.288215977
0.092535231,0.427750257,0.191818863,0.287895649
0.092394902,0.427704956,0.192319956,0.287580185
0.092256405,0.427650999,0.192822977,0.287269618
0.092119749,0.427588408,0.19332787,0.286963973
0.09198494,0.427517208,0.193834576,0.286663275
0.091851988,0.427437432,0.194343036,0.286367545
0.091720899,0.427349113,0.194853188,0.2860768
0.091591682,0.427252289,0.195364973,0.285791056
0.091464344,0.427146999,0.195878328,0.285510329
0.091338895,0.427033283,0.196393188,0.285234633
0.091215344,0.426911183,0.196909492,0.284963981
0.091093699,0.426780741,0.197427173,0.284698386
0.090973968,0.426641999,0.197946166,0.284437867
0.090856156,0.426495002,0.198466405,0.284182437
0.09074027,0.426339796,0.198987822,0.283932112
0.090626315,0.426176426,0.199510356,0.283686903
0.090514298,0.426004943,0.200033942,0.283446817
0.090404226,0.425825396,0.200558519,0.283211859
0.090296109,0.425637836,0.201084024,0.282982032
0.090189955,0.425442313,0.201610397,0.282757335
0.090085774,0.425238877,0.202137578,0.28253777
0.089983577,0.425027578,0.202665509,0.282323335
0.089883373,0.424808469,0.203194131,0.282114026
0.089785171,0.424581604,0.203723384,0.28190984
0.089688979,0.424347042,0.204253208,0.281710771
0.089594805,0.424104846,0.204783541,0.281516809
0.089502654,0.423855079,0.205314322,0.281327944
0.089412535,0.423597809,0.205845489,0.281144167
0.089324454,0.423333099,0.206376978,0.280965469
0.089238418,0.423061016,0.206908725,0.280791841
0.089154436,0.422781621,0.207440663,0.28062328
0.089072516,0.422494975,0.207972726,0.280459783
0.088992666,0.422201137,0.208504844,0.280301353
0.088914896,0.421900165,0.209036946,0.280147994
0.088839211,0.421592119,0.209568959,0.279999711
0.088765622,0.421277064,0.210100805,0.279856509
0.088694136,0.420955067,0.210632409,0.279718387
0.088624763,0.420626202,0.211163692,0.279585344
0.088557508,0.420290545,0.211694574,0.279457374
0.088492378,0.419948176,0.212224977,0.279334469
0.088429378,0.419599176,0.212754826,0.27921662
0.088368513,0.419243629,0.213284043,0.279103815
0.088309786,0.418881619,0.213812554,0.278996041
0.088253201,0.418513234,0.214340282,0.278893283
0.08819876,0.418138564,0.214867149,0.278795527
0.088146463,0.417757699,0.21539308,0.278702757
0.088096314,0.41737073,0.215917997,0.278614959
0.088048315,0.416977746,0.216441821,0.278532117
0.08800247,0.416578841,0.216964474,0.278454215
0.087958782,0.416174107,0.217485878,0.278381234
0.087917255,0.415763637,0.218005954,0.278313154
0.087877893,0.415347529,0.218524627,0.278249951
0.087840699,0.414925881,0.219041822,0.278191598
0.087805677,0.414498793,0.219557464,0.278138065
0.087772829,0.414066369,0.22007148,0.278089322
0.087742154,0.413628711,0.220583799,0.278045336
0.087713652,0.413185921,0.221094352,0.278006076
0.087687321,0.412738101,0.221603072,0.277971506
0.08766316,0.412285352,0.222109895,0.277941593
0.087641167,0.411827777,0.222614756,0.277916299
0.087621338,0.411365479,0.223117593,0.27789559
0.08760367,0.410898561,0.223618344,0.277879425
0.087588162,0.410427126,0.224116947,0.277867765
0.087574811,0.409951275,0.224613345,0.277860569
0.087563616,0.40947111,0.22510748,0.277857793
0.087554577,0.408986735,0.225599294,0.277859394
0.087547691,0.408498251,0.226088732,0.277865327
0.087542957,0.408005758,0.226575737,0.277875547
0.087540371,0.407509357,0.227060258,0.277890013
0.087539928,0.407009144,0.227542246,0.277908683
0.087541619,0.406505212,0.228021651,0.277931518
0.087545436,0.405997655,0.228498427,0.277958482
0.087551369,0.405486564,0.228972528,0.277989538
0.087559405,0.404972026,0.229443911,0.278024658
0.087569532,0.404454127,0.22991253,0.278063811
0.087581734,0.40393295,0.230378342,0.278106974
0.087595996,0.403408578,0.230841306,0.278154119
0.087612303,0.402881093,0.231301385,0.278205219
0.087630636,0.402350578,0.231758542,0.278260243
0.087650977,0.401817114,0.232212745,0.278319163
0.087673307,0.401280783,0.232663962,0.278381948
0.087697606,0.400741668,0.233112162,0.278448564
0.087723852,0.400199849,0.233557318,0.278518981
0.087752023,0.399655409,0.233999402,0.278593166
0.087782097,0.399108427,0.234438389,0.278671087
0.087814049,0.398558984,0.234874257,0.278752711
0.087847855,0.398007156,0.235306983,0.278838006
0.087883493,0.397453023,0.235736548,0.278926936
0.087920937,0.396896662,0.236162935,0.279019466
0.087960164,0.396338151,0.236586126,0.27911556
0.088001147,0.395777569,0.237006108,0.279215176
0.088043861,0.395214992,0.237422873,0.279318274
0.088088279,0.394650495,0.237836415,0.279424811
0.088134373,0.394084155,0.238246732,0.27953474
0.088182118,0.393516053,0.238653819,0.27964801
0.088231487,0.392946273,0.239057673,0.279764568
0.088282453,0.392374903,0.239458289,0.279884356
0.088334992,0.391802031,0.239855662,0.280007315
0.088389078,0.391227747,0.240249788,0.280133386
0.088444688,0.39065214,0.240640665,0.280262507
0.088501796,0.390075299,0.24102829,0.280394614
0.088560375,0.389497318,0.241412663,0.280529644
0.088620399,0.388918288,0.241793785,0.280667529
0.088681843,0.388338298,0.242171655,0.280808203
0.088744683,0.38775744,0.242546278,0.280951599
0.088808896,0.387175803,0.242917655,0.281097646
0.08887446,0.386593476,0.243285789,0.281246275
0.088941353,0.386010549,0.243650683,0.281397416
0.089009554,0.385427109,0.244012338,0.281550999
0.08907904,0.384843244,0.244370758,0.281706957
0.08914979,0.384259039,0.244725946,0.281865225
0.089221783,0.383674579,0.245077902,0.282025736
0.089294997,0.383089949,0.24542663,0.282188424
0.089369414,0.382505233,0.245772131,0.282353222
0.089445015,0.381920513,0.246114407,0.282520065
0.08952178,0.38133587,0.246453463,0.282688888
0.089599691,0.380751381,0.2467893,0.282859628
0.089678729,0.380167126,0.247121921,0.283032224
0.089758877,0.379583179,0.247451331,0.283206613
0.089840118,0.378999612,0.247777535,0.283382736
0.089922432,0.378416498,0.248100539,0.283560531
0.090005804,0.377833904,0.248420352,0.283739941
0.090090214,0.377251896,0.248736984,0.283920906
0.090175644,0.376670539,0.249050447,0.28410337
0.090262076,0.376089891,0.249360751,0.284287282
0.090349491,0.375510008,0.249667907,0.284472594
0.09043787,0.374930943,0.249971923,0.284659264
0.090527193,0.374352747,0.250272808,0.284847253
0.090617442,0.373775468,0.250570566,0.285036524
0.090708597,0.373199155,0.250865204,0.285227044
0.09080064,0.372623855,0.251156731,0.285418775
0.09089355,0.372049611,0.251445155,0.285611684
0.090987311,0.371476468,0.251730484,0.285805737
0.091081906,0.370904469,0.252012726,0.2860009
0.091177318,0.370333658,0.252291885,0.286197139
0.091273532,0.369764079,0.252567969,0.28639442
0.09137053,0.369195779,0.252840982,0.28659271
0.091468295,0.368628801,0.253110931,0.286791972
0.091566813,0.368063191,0.253377824,0.286992173
0.091666065,0.367498992,0.253641667,0.287193276
0.091766037,0.36693625,0.253902467,0.287395245
0.091866712,0.366375008,0.254160232,0.287598048
0.091968076,0.365815305,0.25441497,0.287801649
0.092070113,0.365257181,0.25466669,0.288006016
0.092172809,0.364700676,0.254915402,0.288211113
0.092276149,0.364145825,0.255161117,0.288416909
0.092380117,0.363592665,0.255403846,0.288623372
0.0924847,0.363041229,0.2556436,0.288830471
0.09258988,0.362491551,0.255880392,0.289038176
0.092695645,0.361943664,0.256114234,0.289246458
0.092801977,0.361397597,0.25634514,0.289455286
0.092908863,0.360853381,0.256573127,0.289664629
0.093016286,0.360311044,0.256798213,0.289874457
0.093124231,0.359770614,0.257020418,0.290084737
0.093232683,0.359232118,0.25723976,0.29029544
0.093341623,0.358695583,0.257456261,0.290506533
0.093451036,0.358161034,0.257669943,0.290717986
0.093560903,0.357628495,0.257880838,0.290929764
0.093671207,0.357097986,0.258088974,0.291141833
0.093781929,0.356569529,0.258294384,0.291354158
0.093893053,0.356043141,0.258497101,0.291566705
0.094004561,0.355518841,0.258697157,0.29177944
0.094116438,0.354996647,0.258894585,0.29199233
0.094228668,0.354476574,0.259089416,0.292205342
0.094341236,0.353958638,0.259281682,0.292418444
0.094454126,0.353442857,0.259471412,0.292631605
0.094567323,0.352929244,0.259658635,0.292844797
0.094680812,0.352417812,0.259843384,0.293057991
0.094794578,0.351908572,0.260025691,0.29327116
0.094908604,0.351401532,0.260205586,0.293484277
0.095022879,0.350896702,0.260383102,0.293697317
0.095137387,0.350394091,0.260558269,0.293910254
0.095252117,0.349893708,0.260731113,0.294123062
0.095367058,0.349395563,0.260901663,0.294335716
0.095482197,0.348899665,0.261069947,0.294548192
0.095597523,0.348406022,0.261235994,0.294760462
0.095713024,0.347914644,0.261399832,0.2949725
0.095828691,0.34742554,0.26156149,0.295184279
0.095944512,0.34693872,0.261720995,0.295395773
0.096060476,0.346454192,0.261878376,0.295606955
0.096176574,0.345971968,0.26203366,0.295817798
0.096292795,0.345492055,0.262186875,0.296028275
0.096409128,0.345014466,0.262338049,0.296238357
0.096525564,0.344539208,0.262487212,0.296448015
0.096642093,0.344066293,0.262634393,0.296657221
0.096758705,0.34359573,0.26277962,0.296865945
0.09687539,0.343127529,0.262922922,0.297074159
0.096992138,0.342661696,0.263064331,0.297281836
0.09710894,0.342198238,0.263203874,0.297488948
0.097225787,0.341737163,0.26334158,0.29769547
0.097342669,0.341278474,0.263477476,0.297901381
0.097459578,0.340822177,0.263611586,0.298106659
0.097576504,0.340368276,0.263743934,0.298311286
0.097693438,0.339916776,0.263874542,0.298515244
0.097810371,0.339467681,0.264003431,0.298718516
0.097927295,0.339020994,0.264130624,0.298921087
0.098044201,0.338576717,0.264256141,0.299122942
0.09816108,0.338134851,0.264380001,0.299324068
0.098277926,0.337695396,0.264502225,0.299524453
0.09839473,0.33725835,0.264622831,0.299724089
0.098511486,0.336823712,0.264741836,0.299922967
0.098628187,0.336391475,0.264859255,0.300121082
0.098744827,0.335961637,0.264975104,0.300318432
0.098861399,0.335534191,0.265089396,0.300515014
0.098977896,0.335109132,0.265202146,0.300710826
0.099094313,0.334686453,0.265313368,0.300905866
0.099210641,0.334266149,0.265423077,0.301100133
0.099326875,0.333848211,0.265531289,0.301293624
0.099443009,0.333432634,0.26563802,0.301486337
0.099559037,0.333019409,0.265743285,0.301678269
0.099674952,0.332608528,0.265847103,0.301869417
0.09979075,0.332199986,0.265949489,0.302059775
0.099906425,0.331793776,0.26605046,0.302249339
0.100021973,0.331389893,0.266150034,0.302438101
0.100137387,0.330988331,0.266248227,0.302626054
0.100252664,0.330589087,0.266345061,0.302813188
0.100367796,0.330192152,0.266440557,0.302999495
0.100482779,0.329797519,0.266534738,0.303184965
0.100597605,0.329405182,0.266627626,0.303369586
0.10071227,0.329015134,0.266719247,0.303553349
0.100826766,0.328627369,0.266809624,0.303736241
0.100941089,0.328241879,0.266898784,0.303918249
0.101055231,0.327858657,0.266986751,0.304099361
0.101169187,0.327477696,0.267073552,0.304279565
0.101282951,0.327098989,0.267159212,0.304458849
0.101396518,0.326722527,0.267243755,0.3046372
0.101509881,0.326348305,0.267327208,0.304814606
0.101623035,0.325976317,0.267409593,0.304991056
0.101735974,0.325606555,0.267490935,0.305166536
0.101848696,0.325239014,0.267571255,0.305341035
0.101961197,0.324873689,0.267650576,0.305514539
0.102073473,0.324510572,0.26772892,0.305687035
0.102185522,0.324149657,0.26780631,0.305858511
0.102297344,0.323790937,0.267882764,0.306028955
0.102408938,0.323434406,0.267958303,0.306198353
0.102520306,0.323080058,0.268032944,0.306366692
0.102631448,0.322727889,0.268106704,0.306533958
0.102742365,0.322377896,0.268179601,0.306700138
0.102853058,0.322030073,0.268251653,0.306865217
0.102963525,0.321684415,0.268322877,0.307029183
0.103073768,0.321340918,0.268393291,0.307192024
0.103183786,0.320999574,0.268462911,0.307353728
0.103293579,0.320660379,0.268531755,0.307514286
0.103403148,0.320323326,0.268599838,0.307673688
0.103512491,0.31998841,0.268667176,0.307831923
0.103621609,0.319655624,0.268733784,0.307988984
0.103730501,0.319324961,0.268799676,0.308144862
0.103839167,0.318996415,0.268864866,0.308299552
0.103947604,0.318669979,0.268929366,0.308453051
0.104055812,0.318345644,0.268993189,0.308605354
0.104163788,0.318023405,0.269056346,0.308756461
0.104271529,0.317703255,0.269118847,0.30890637
0.104379032,0.317385187,0.269180703,0.309055078
0.104486295,0.317069195,0.269241925,0.309202585
0.104593314,0.316755272,0.269302523,0.309348891
0.104700087,0.31644341,0.269362507,0.309493996
0.10480661,0.316133601,0.269421888,0.309637901
0.104912883,0.315825838,0.269480675,0.309780604
0.105018903,0.315520112,0.269538881,0.309922105
0.105124668,0.315216416,0.269596514,0.310062402
0.105230177,0.314914743,0.269653586,0.310201493
0.10533543,0.314615088,0.269710107,0.310339375
0.105440427,0.314317443,0.269766087,0.310476043
0.105545169,0.314021804,0.269821534,0.310611493
0.105649657,0.313728166,0.269876459,0.310745719
0.105753891,0.313436526,0.269930866,0.310878717
0.105857871,0.313146883,0.269984763,0.311010484
0.105961596,0.312859236,0.270038153,0.311141015
0.106065068,0.312573583,0.270091042,0.311270306
0.106168286,0.312289923,0.270143434,0.311398356
0.106271251,0.312008253,0.270195333,0.311525163
0.106373961,0.311728569,0.270246741,0.311650728
0.106476418,0.311450868,0.270297663,0.311775051
0.10657862,0.311175146,0.270348102,0.311898132
0.106680568,0.3109014,0.27039806,0.312019972
0.106782262,0.310629628,0.270447541,0.31214057
0.106883701,0.310359826,0.270496547,0.312259926
0.106984885,0.310091993,0.270545082,0.31237804
0.107085815,0.309826126,0.270593149,0.312494911
0.107186489,0.30956222,0.270640752,0.312610539
0.107286909,0.309300272,0.270687897,0.312724922
0.107387073,0.30904028,0.270734589,0.312838059
0.107486981,0.308782237,0.270780832,0.312949951
0.107586633,0.308526138,0.270826635,0.313060594
0.10768603,0.308271977,0.270872006,0.313169987
0.10778517,0.308019746,0.270916956,0.313278128
0.107884054,0.307769441,0.270961494,0.313385011
0.107982682,0.307521054,0.271005629,0.313490634
0.108081057,0.30727458,0.271049372,0.313594992
0.108179178,0.307030011,0.271092731,0.31369808
0.108277048,0.306787341,0.271135716,0.313799895
0.108374666,0.306546563,0.271178338,0.313900433
0.108472034,0.30630767,0.271220605,0.313999691
0.108569151,0.306070655,0.271262528,0.314097666
0.108666018,0.305835512,0.271304116,0.314194353
0.108762636,0.305602233,0.27134538,0.314289751
0.108859004,0.305370813,0.271386327,0.314383855
0.108955122,0.305141246,0.271426967,0.314476664
0.10905099,0.304913526,0.271467308,0.314568176
0.109146609,0.304687647,0.271507355,0.314658389
0.109241979,0.304463604,0.271547116,0.314747301
0.1093371,0.304241392,0.271586596,0.314834912
0.109431972,0.304021009,0.271625798,0.314921221
0.109526597,0.303802449,0.271664728,0.315006227
0.109620974,0.303585708,0.271703389,0.315089929
0.109715105,0.303370782,0.271741787,0.315172326
0.109808989,0.303157669,0.271779925,0.315253417
0.109902627,0.302946363,0.271817807,0.315333203
0.10999602,0.30273686,0.271855436,0.315411683
0.110089168,0.302529157,0.271892815,0.31548886
0.11018207,0.30232325,0.271929947,0.315564734
0.110274728,0.302119133,0.271966834,0.315639305
0.11036714,0.301916803,0.27200348,0.315712577
0.110459307,0.301716256,0.272039887,0.315784549
0.110551229,0.301517487,0.27207606,0.315855224
0.110642905,0.301320492,0.272112,0.315924603
0.110734334,0.301125264,0.272147713,0.315992689
0.110825516,0.3009318,0.272183201,0.316059483
0.110916449,0.300740093,0.27221847,0.316124988
0.111007132,0.300550136,0.272253525,0.316189207
0.111097564,0.300361923,0.272288371,0.316252142
0.111187742,0.300175446,0.272323012,0.3163138
0.111277664,0.299990698,0.272357454,0.316374184
0.111367327,0.299807671,0.272391699,0.316433303
0.111456729,0.299626356,0.272425751,0.316491165
0.111545866,0.299446743,0.272459612,0.316547779
0.111634737,0.299268823,0.272493284,0.316603155
0.111723338,0.299092588,0.27252677,0.316657304
0.111811666,0.298918026,0.272560072,0.316710236
0.111899717,0.298745128,0.272593193,0.316761963
0.111987488,0.298573882,0.272626135,0.316812494
0.112074977,0.298404279,0.272658902,0.316861843
0.112162179,0.298236307,0.272691495,0.316910018
0.112249093,0.298069957,0.272723917,0.316957033
0.112335715,0.297905215,0.272756172,0.317002897
0.112422043,0.297742073,0.272788261,0.317047623
0.112508074,0.297580518,0.272820188,0.31709122
0.112593805,0.29742054,0.272851955,0.3171337
0.112679234,0.297262127,0.272883566,0.317175073
0.11276436,0.297105267,0.272915024,0.317215349
0.112849181,0.296949949,0.272946332,0.317254538
0.112933695,0.296796161,0.272977494,0.31729265
0.113017902,0.29664389,0.273008512,0.317329696
0.113101801,0.296493124,0.273039389,0.317365685
0.113185392,0.296343852,0.273070129,0.317400627
0.113268673,0.296196062,0.273100734,0.317434531
0.113351645,0.296049742,0.273131209,0.317467404
0.113434306,0.295904883,0.273161555,0.317499256
0.113516656,0.295761475,0.273191777,0.317530092
0.113598694,0.295619507,0.273221877,0.317559922
0.113680418,0.295478973,0.27325186,0.317588749
0.113761829,0.295339862,0.273281728,0.317616581
0.113842924,0.295202168,0.273311487,0.317643422
0.113923702,0.295065881,0.273341141,0.317669275
0.114004164,0.294930994,0.273370695,0.317694147
0.114084306,0.294797499,0.273400155,0.31771804
0.114164128,0.294665386,0.273429526,0.31774096
0.11424363,0.294534648,0.273458814,0.317762909
0.114322809,0.294405276,0.273488024,0.317783891
0.114401666,0.294277263,0.273517162,0.317803909
0.114480199,0.2941506,0.273546234,0.317822968
0.114558408,0.294025279,0.273575243,0.31784107
0.114636292,0.293901292,0.273604197,0.317858219
0.114713851,0.293778629,0.273633099,0.317874422
0.114791083,0.293657281,0.273661953,0.317889683
0.114867989,0.293537237,0.273690763,0.317904011
0.114944567,0.293418487,0.273719534,0.317917413
0.115020816,0.293301018,0.273748267,0.317929899
0.115096737,0.293184819,0.273776966,0.317941477
0.115172328,0.29306988,0.273805635,0.317952157
0.115247588,0.292956189,0.273834275,0.317961947
0.115322518,0.292843734,0.273862889,0.317970859
0.115397116,0.292732503,0.273891478,0.317978903
0.115471382,0.292622485,0.273920044,0.317986089
0.115545315,0.292513668,0.273948588,0.317992429
0.115618915,0.292406039,0.27397711,0.317997935
0.115692181,0.292299587,0.274005611,0.31800262
0.115765112,0.292194299,0.274034092,0.318006496
0.115837707,0.292090162,0.274062555,0.318009576
0.115909964,0.291987162,0.274091001,0.318011872
0.115981883,0.291885287,0.274119431,0.318013398
0.116053462,0.291784522,0.274147849,0.318014167
0.116124699,0.291684853,0.274176257,0.318014191
0.116195594,0.291586265,0.274204657,0.318013484
0.116266144,0.291488745,0.274233052,0.318012059
0.11633635,0.291392278,0.274261443,0.31800993
0.116406208,0.291296851,0.274289834,0.318007108
0.116475718,0.291202451,0.274318225,0.318003606
0.116544878,0.291109068,0.274346617,0.317999436
0.116613688,0.291016689,0.274375013,0.317994609
0.116682147,0.290925304,0.274403413,0.317989137
0.116750253,0.2908349,0.274431817,0.317983029
0.116818007,0.290745468,0.274460229,0.317976296
0.116885406,0.290656997,0.274488649,0.317968948
0.11695245,0.290569477,0.274517079,0.317960994
0.117019138,0.290482897,0.274545523,0.317952441
0.117085469,0.290397249,0.274573983,0.317943299
0.117151441,0.290312522,0.274602462,0.317933575
0.117217053,0.290228707,0.274630962,0.317923277
0.117282304,0.290145794,0.274659488,0.317912414
0.117347193,0.290063773,0.274688041,0.317900992
0.117411719,0.289982634,0.274716626,0.317889021
0.117475881,0.289902367,0.274745244,0.317876509
0.117539678,0.289822962,0.274773897,0.317863463
0.117603108,0.28974441,0.27480259,0.317849892
0.117666172,0.289666699,0.274831324,0.317835805
0.117728867,0.289589819,0.274860102,0.317821211
0.117791193,0.289513761,0.274888928,0.317806118
0.117853147,0.289438514,0.274917804,0.317790535
0.117914728,0.289364066,0.274946736,0.31777447
0.117975934,0.289290406,0.274975728,0.317757932
0.118036763,0.289217523,0.275004783,0.317740931
0.118097213,0.289145406,0.275033906,0.317723476
0.118157281,0.289074044,0.2750631,0.317705575
0.118216967,0.289003428,0.275092369,0.317687237
0.118276267,0.288933547,0.275121716,0.317668471
0.11833518,0.288864392,0.275151144,0.317649283
0.118393704,0.288795956,0.275180656,0.317629684
0.118451836,0.288728231,0.275210254,0.317609679
0.118509575,0.288661209,0.275239938,0.317589278
0.118566918,0.288594883,0.27526971,0.317568489
0.118623863,0.288529245,0.27529957,0.317547322
0.118680407,0.28846429,0.275329515,0.317525788
0.118736549,0.288400011,0.275359544,0.317503896
0.118792284,0.288336404,0.275389654,0.317481658
0.118847611,0.288273462,0.275419841,0.317459086
0.118902527,0.288211181,0.275450101,0.317436191
0.118957029,0.288149555,0.27548043,0.317412985
0.119011117,0.28808858,0.275510824,0.317389479
0.119064789,0.288028252,0.275541276,0.317365683
0.119118043,0.287968567,0.275571783,0.317341608
0.119170879,0.287909521,0.275602338,0.317317262
0.119223295,0.28785111,0.275632937,0.317292657
0.119275292,0.287793331,0.275663575,0.317267802
0.119326867,0.287736179,0.275694247,0.317242706
0.119378022,0.287679651,0.275724948,0.317217379
0.119428754,0.287623742,0.275755675,0.317191829
0.119479065,0.287568447,0.275786422,0.317166066
0.119528953,0.287513764,0.275817187,0.317140096
0.119578419,0.287459688,0.275847965,0.317113928
0.119627464,0.287406215,0.275878753,0.317087568
0.119676086,0.287353342,0.275909549,0.317061023
0.119724287,0.287301064,0.275940348,0.317034301
0.119772066,0.287249377,0.275971149,0.317007408
0.119819424,0.287198278,0.276001948,0.31698035
0.11986636,0.287147764,0.276032742,0.316953134
0.119912875,0.28709783,0.27606353,0.316925765
0.119958969,0.287048473,0.276094308,0.31689825
0.120004642,0.28699969,0.276125072,0.316870596
0.120049895,0.286951477,0.276155821,0.316842807
0.120094726,0.286903831,0.276186551,0.316814891
0.120139137,0.28685675,0.276217259,0.316786854
0.120183126,0.286810231,0.276247942,0.316758701
0.120226693,0.286764272,0.276278596,0.31673044
0.120269837,0.286718869,0.276309219,0.316702075
0.120312557,0.28667402,0.276339808,0.316673615
0.120354854,0.286629721,0.276370359,0.316645066
0.120396726,0.286585969,0.276400869,0.316616436
0.120438172,0.286542761,0.276431337,0.316587731
0.120479191,0.286500093,0.276461758,0.316558958
0.120519782,0.286457963,0.276492133,0.316530122
0.120559945,0.286416369,0.276522459,0.316501228
0.120599678,0.28637531,0.276552733,0.316472279
0.120638982,0.286334784,0.276582955,0.31644328
0.120677854,0.286294788,0.276613123,0.316414234
0.120716296,0.286255322,0.276643236,0.316385146
0.120754307,0.286216382,0.276673293,0.316356018
0.120791887,0.286177966,0.276703291,0.316326856
0.120829036,0.286140073,0.276733229,0.316297662
0.120865754,0.286102699,0.276763107,0.31626844
0.120902042,0.286065842,0.276792921,0.316239194
0.1209379,0.286029501,0.276822673,0.316209927
0.120973328,0.285993673,0.276852359,0.316180641
0.121008327,0.285958357,0.276881979,0.316151337
0.121042899,0.285923551,0.276911531,0.316122019
0.121077043,0.285889254,0.276941015,0.316092687
0.121110762,0.285855466,0.27697043,0.316063342
0.121144056,0.285822186,0.276999774,0.316033985
0.121176927,0.285789412,0.277029046,0.316004615
0.121209376,0.285757145,0.277058246,0.315975233
0.121241405,0.285725386,0.27708737,0.315945839
0.121273014,0.285694134,0.277116419,0.315916433
0.121304206,0.285663391,0.277145388,0.315887015
0.121334981,0.285633158,0.277174275,0.315857587
0.12136534,0.285603436,0.277203077,0.315828147
0.121395284,0.285574227,0.277231791,0.315798697
0.121424816,0.285545532,0.277260414,0.315769238
0.121453936,0.285517354,0.277288943,0.315739767
0.121482645,0.285489695,0.277317374,0.315710285
0.121510945,0.285462558,0.277345706,0.315680791
0.121538835,0.285435946,0.277373937,0.315651282
0.121566318,0.285409862,0.277402063,0.315621757
0.121593392,0.285384309,0.277430084,0.315592215
0.12162006,0.28535929,0.277457996,0.315562654
0.121646322,0.285334807,0.277485796,0.315533075
0.121672177,0.285310862,0.277513483,0.315503478
0.121697626,0.285287455,0.277541055,0.315473863
0.12172267,0.285264589,0.27756851,0.315444231
0.121747309,0.285242262,0.277595848,0.315414581
0.121771543,0.285220476,0.277623067,0.315384914
0.121795373,0.285199231,0.277650168,0.315355229
0.121818799,0.285178526,0.277677151,0.315325525
0.121841821,0.285158361,0.277704015,0.315295802
0.121864441,0.285138737,0.277730762,0.31526606
0.121886659,0.285119655,0.27775739,0.315236296
0.121908475,0.285101115,0.277783899,0.315206511
0.121929891,0.285083118,0.27781029,0.315176701
0.121950908,0.285065666,0.27783656,0.315146866
0.121971527,0.285048759,0.27786271,0.315117004
0.121991749,0.285032399,0.277888739,0.315087113
0.122011577,0.285016587,0.277914645,0.31505719
0.122031013,0.285001326,0.277940428,0.315027233
0.122050058,0.284986615,0.277966086,0.31499724
0.122068715,0.284972458,0.277991619,0.314967207
0.122086987,0.284958855,0.278017026,0.314937132
0.122104875,0.284945807,0.278042307,0.314907012
0.122122382,0.284933317,0.27806746,0.314876842
0.122139509,0.284921385,0.278092486,0.31484662
0.122156259,0.284910014,0.278117384,0.314816343
0.122172633,0.284899205,0.278142153,0.314786009
0.122188634,0.28488896,0.278166792,0.314755614
0.122204263,0.284879281,0.278191299,0.314725157
0.122219523,0.28487017,0.278215673,0.314694634
0.122234414,0.284861628,0.278239913,0.314664045
0.122248939,0.284853657,0.278264018,0.314633386
0.1222631,0.284846259,0.278287984,0.314602657
0.122276898,0.284839436,0.27831181,0.314571856
0.122290336,0.284833188,0.278335495,0.314540981
0.122303414,0.284827518,0.278359035,0.314510033
0.122316135,0.284822426,0.278382431,0.314479009
0.1223285,0.284817913,0.278405678,0.314447909
0.12234051,0.284813983,0.278428776,0.314416731
0.122352167,0.284810638,0.278451721,0.314385474
0.122363471,0.284807882,0.27847451,0.314354137
0.122374424,0.284805717,0.27849714,0.314322719
0.122385026,0.284804149,0.278519605,0.314291221
0.122395277,0.284803179,0.278541902,0.314259643
0.122405178,0.28480281,0.278564025,0.314227987
0.122414728,0.284803045,0.27858597,0.314196256
0.122423929,0.284803887,0.27860773,0.314164454
0.12243278,0.284805335,0.278629301,0.314132583
0.122441282,0.284807393,0.278650677,0.314100648
0.122449435,0.284810062,0.278671852,0.314068651
0.12245724,0.284813345,0.27869282,0.314036596
0.122464698,0.284817243,0.278713575,0.314004484
0.122471808,0.284821758,0.278734113,0.31397232
0.122478571,0.284826893,0.278754429,0.313940107
0.122484989,0.284832649,0.278774516,0.313907846
0.12249106,0.284839027,0.278794369,0.313875543
0.122496787,0.284846028,0.278813985,0.3138432
0.122502169,0.284853653,0.278833357,0.313810821
0.122507207,0.284861904,0.278852481,0.313778408
0.122511903,0.284870782,0.278871352,0.313745964
0.122516256,0.284880288,0.278889964,0.313713492
0.122520268,0.284890423,0.278908314,0.313680994
0.122523939,0.28490119,0.278926397,0.313648474
0.122527271,0.284912589,0.278944209,0.313615932
0.122530263,0.28492462,0.278961747,0.313583371
0.144619074,0.280951263,0.27748271,0.296946953
0.144702723,0.281005698,0.277360568,0.296931011
0.144786301,0.281061602,0.277237622,0.296914476
0.144869798,0.281119005,0.277113862,0.296897335
0.144953203,0.281177942,0.276989283,0.296879573
0.145036505,0.281238444,0.276863875,0.296861176
0.145119693,0.281300545,0.276737631,0.296842131
0.145202757,0.281364277,0.276610543,0.296822423
0.145285688,0.281429672,0.276482602,0.296802038
0.145368474,0.281496762,0.276353802,0.296780962
0.145451107,0.281565577,0.276224135,0.296759181
0.145533576,0.281636151,0.276093591,0.296736681
0.145615873,0.281708515,0.275962165,0.296713448
0.145697987,0.281782698,0.275829847,0.296689468
0.145779908,0.281858732,0.275696632,0.296664727
0.145861627,0.281936648,0.275562512,0.296639213
0.145943133,0.282016475,0.275427481,0.29661291
0.146024417,0.282098245,0.275291533,0.296585805
0.146105469,0.28218199,0.27515466,0.296557881
0.146186276,0.282267743,0.275016855,0.296529125
0.14626683,0.282355536,0.274878113,0.296499521
0.146347118,0.282445404,0.274738425,0.296469053
0.14642713,0.28253738,0.274597785,0.296437706
0.146506854,0.282631497,0.274456184,0.296405465
0.146586282,0.282727786,0.274313616,0.296372316
0.146665402,0.282826279,0.274170074,0.296338245
0.146744203,0.282927007,0.274025552,0.296303238
0.146822677,0.283029999,0.273880046,0.296267279
0.146900812,0.283135285,0.273733549,0.296230353
0.146978599,0.283242895,0.273586059,0.296192447
0.147056027,0.283352857,0.273437571,0.296153545
0.147133085,0.2834652,0.273288082,0.296113633
0.147209764,0.283579954,0.273137586,0.296072695
0.147286054,0.283697146,0.272986082,0.296030719
0.147361943,0.283816804,0.272833565,0.295987688
0.147437424,0.283938953,0.272680033,0.295943589
0.147512485,0.284063621,0.272525486,0.295898408
0.147587117,0.284190833,0.27236992,0.29585213
0.147661311,0.284320612,0.272213335,0.295804742
0.147735055,0.284452985,0.27205573,0.29575623
0.147808341,0.284587975,0.271897103,0.295706582
0.147881157,0.284725609,0.271737451,0.295655782
0.147953494,0.284865913,0.271576774,0.295603818
0.148025342,0.285008914,0.271415068,0.295550676
0.148096689,0.28515464,0.271252333,0.295496339
0.148167525,0.285303116,0.271088564,0.295440795
0.14823784,0.285454372,0.270923759,0.295384029
0.148307625,0.285608433,0.270757916,0.295326026
0.14837687,0.285765327,0.270591031,0.295266773
0.148445564,0.285925084,0.270423099,0.295206253
0.148513698,0.286087734,0.270254117,0.295144451
0.148581261,0.286253309,0.270084078,0.295081351
0.148648244,0.28642184,0.269912979,0.295016936
0.148714637,0.286593358,0.269740814,0.294951191
0.14878043,0.286767893,0.269567578,0.294884099
0.148845613,0.286945478,0.269393266,0.294815643
0.148910177,0.287126144,0.269217871,0.294745809
0.148974112,0.287309921,0.269041387,0.29467458
0.149037411,0.287496842,0.268863809,0.294601938
0.149100064,0.287686941,0.268685127,0.294527868
0.149162064,0.287880251,0.268505335,0.29445235
0.149223402,0.288076804,0.268324425,0.294375369
0.149284071,0.288276631,0.26814239,0.294296908
0.149344064,0.288479763,0.267959224,0.294216949
0.149403373,0.28868623,0.267774919,0.294135477
0.149461994,0.288896061,0.26758947,0.294052476
0.149519918,0.289109283,0.267402868,0.293967931
0.14957714,0.289325924,0.26721511,0.293881826
0.149633655,0.289546011,0.267026187,0.293794147
0.149689456,0.289769572,0.266836094,0.293704878
0.149744539,0.289996633,0.266644825,0.293614003
0.149798898,0.290227221,0.266452372,0.293521509
0.149852526,0.290461361,0.266258731,0.293427382
0.149905419,0.290699078,0.266063896,0.293331608
0.149957571,0.290940395,0.265867861,0.293234173
0.150008978,0.291185335,0.265670621,0.293135066
0.150059633,0.291433921,0.265472171,0.293034275
0.150109532,0.291686174,0.265272507,0.292931786
0.15015867,0.291942115,0.265071625,0.29282759
0.150207042,0.292201764,0.264869519,0.292721675
0.150254643,0.292465141,0.264666186,0.29261403
0.150301468,0.292732266,0.264461622,0.292504644
0.150347515,0.293003155,0.264255822,0.292393509
0.150392779,0.293277827,0.264048783,0.292280612
0.150437258,0.293556298,0.263840501,0.292165943
0.150480949,0.293838587,0.263630972,0.292049492
0.150523849,0.294124711,0.263420192,0.291931247
0.150565956,0.294414688,0.263208158,0.291811199
0.150607265,0.294708536,0.262994864,0.291689335
0.150647776,0.295006272,0.262780305,0.291565647
0.150687485,0.295307917,0.262564477,0.291440121
0.150726389,0.295613489,0.262347375,0.291312747
0.150764487,0.295923009,0.262128991,0.291183513
0.150801776,0.296236497,0.26190932,0.291052407
0.150838253,0.296553972,0.261688358,0.290919418
0.150873914,0.296875455,0.261466097,0.290784534
0.150908759,0.297200963,0.261242534,0.290647745
0.150942783,0.297530514,0.261017662,0.29050904
0.150975985,0.297864126,0.260791478,0.290368411
0.15100836,0.298201815,0.260563977,0.290225848
0.151039906,0.298543597,0.260335156,0.290081341
0.15107062,0.298889487,0.260105009,0.289934883
0.151100499,0.299239502,0.259873535,0.289786464
0.151129539,0.299593654,0.25964073,0.289636077
0.151157737,0.299951956,0.259406592,0.289483715
0.151185092,0.30031442,0.259171117,0.289329371
0.1512116,0.300681058,0.258934304,0.289173039
0.151237258,0.301051879,0.25869615,0.289014713
0.151262065,0.301426895,0.258456653,0.288854388
0.151286017,0.301806116,0.25821581,0.288692057
0.151309112,0.302189554,0.257973619,0.288527715
0.151331347,0.302577222,0.257730076,0.288361355
0.151352721,0.302969132,0.257485178,0.288192969
0.151373229,0.303365298,0.257238922,0.288022551
0.151392871,0.303765734,0.256991302,0.287850092
0.151411643,0.304170455,0.256742316,0.287675586
0.151429543,0.304579474,0.25649196,0.287499023
0.151446567,0.304992807,0.25624023,0.287320396
0.151462714,0.305410466,0.255987124,0.287139696
0.151477982,0.305832462,0.255732639,0.286956917
0.151492369,0.306258806,0.255476774,0.286772052
0.151505873,0.306689506,0.255219527,0.286585094
0.151518494,0.307124572,0.254960897,0.286396037
0.15153023,0.307564009,0.254700885,0.286204876
0.151541081,0.308007823,0.254439491,0.286011605
0.151551046,0.308456023,0.254176714,0.285816218
0.151560124,0.308908612,0.253912554,0.28561871
0.151568315,0.309365597,0.253647012,0.285419076
0.151575618,0.309826983,0.253380088,0.28521731
0.151582033,0.310292775,0.253111784,0.285013408
0.151587559,0.310762978,0.2528421,0.284807364
0.151592194,0.311237596,0.252571037,0.284599173
0.151595938,0.311716637,0.252298595,0.284388831
0.15159879,0.312200103,0.252024775,0.284176332
0.151600748,0.312688001,0.251749578,0.283961673
0.151601812,0.313180336,0.251473006,0.283744846
0.151601981,0.313677112,0.251195058,0.283525849
0.151601254,0.314178335,0.250915737,0.283304674
0.15159963,0.314684007,0.250635043,0.283081319
0.15159711,0.315194133,0.250352979,0.282855778
0.151593692,0.315708715,0.250069546,0.282628047
0.151589376,0.316227758,0.249784745,0.282398121
0.15158416,0.316751265,0.249498579,0.282165997
0.151578042,0.317279241,0.249211048,0.281931669
0.151571023,0.31781169,0.248922153,0.281695134
0.151563099,0.318348617,0.248631896,0.281456388
0.15155427,0.318890022,0.248340279,0.281215429
0.151544534,0.319435908,0.248047304,0.280972253
0.151533892,0.319986276,0.247752971,0.280726861
0.151522342,0.320541126,0.247457284,0.280479249
0.151509882,0.321100458,0.247160243,0.280229416
0.151496512,0.321664275,0.246861852,0.279977361
0.15148223,0.322232576,0.24656211,0.279723083
0.151467035,0.322805362,0.246261022,0.279466581
0.151450924,0.323382632,0.24595859,0.279207854
0.151433895,0.323964387,0.245654817,0.278946901
0.151415946,0.324550625,0.245349706,0.278683722
0.151397076,0.325141344,0.245043262,0.278418317
0.151377281,0.325736543,0.24473549,0.278150685
0.151356561,0.326336218,0.244426395,0.277880826
0.151334915,0.326940363,0.244115982,0.27760874
0.151312341,0.327548974,0.243804259,0.277334426
0.151288841,0.328162045,0.243491231,0.277057884
0.151264415,0.328779567,0.243176905,0.276779113
0.151239064,0.329401533,0.24286129,0.276498113
0.15121279,0.330027934,0.242544391,0.276214884
0.151185594,0.330658762,0.242226217,0.275929426
0.151157479,0.33129401,0.241906774,0.275641737
0.151128444,0.33193367,0.24158607,0.275351816
0.151098492,0.332577734,0.241264112,0.275059662
0.151067625,0.333226193,0.240940907,0.274765275
0.151035842,0.333879039,0.240616464,0.274468654
0.151003145,0.334536265,0.240290791,0.274169799
0.150969533,0.335197864,0.239963895,0.273868707
0.150935006,0.335863831,0.239635786,0.273565377
0.150899563,0.336534157,0.239306474,0.273259806
0.150863203,0.337208837,0.23897597,0.272951991
0.150825926,0.337887861,0.238644284,0.272641929
0.150787731,0.338571222,0.238311427,0.27232962
0.150748618,0.33925891,0.23797741,0.272015062
0.150708587,0.339950912,0.237642247,0.271698253
0.150667638,0.340647216,0.23730595,0.271379195
0.150625771,0.341347806,0.236968533,0.271057889
0.150582985,0.342052665,0.236630012,0.270734337
0.150539282,0.342761773,0.236290404,0.270408542
0.15049466,0.343475111,0.235949724,0.270080505
0.15044912,0.344192657,0.23560799,0.269750232
0.150402662,0.344914391,0.23526522,0.269417728
0.150355285,0.345640289,0.234921429,0.269082998
0.150306989,0.346370329,0.234576634,0.268746048
0.150257775,0.34710449,0.234230852,0.268406883
0.150207642,0.347842749,0.233884101,0.268065508
0.150156589,0.348585083,0.233536398,0.267721929
0.150104617,0.349331471,0.233187761,0.26737615
0.150051724,0.35008189,0.23283821,0.267028176
0.149997911,0.350836317,0.232487762,0.26667801
0.149943174,0.351594734,0.232136436,0.266325656
0.149887515,0.352357118,0.23178425,0.265971118
0.14983093,0.353123448,0.231431225,0.265614398
0.149773419,0.3538937,0.23107738,0.2652555
0.149714981,0.354667852,0.230722738,0.26489443
0.149655614,0.355445875,0.23036732,0.26453119
0.14959532,0.356227744,0.23001115,0.264165786
0.149534096,0.357013431,0.229654249,0.263798224
0.149471943,0.357802907,0.229296642,0.263428508
0.14940886,0.358596145,0.22893835,0.263056644
0.149344849,0.359393117,0.228579396,0.262682638
0.149279907,0.360193796,0.228219802,0.262306496
0.149214036,0.360998152,0.227859589,0.261928223
0.149147234,0.361806159,0.227498783,0.261547824
0.149079501,0.362617785,0.227137406,0.261165307
0.149010838,0.363433,0.226775483,0.260780679
0.148941244,0.364251772,0.226413038,0.260393945
0.148870721,0.365074068,0.226050096,0.260005116
0.148799267,0.365899855,0.22568668,0.259614198
0.148726884,0.366729097,0.225322819,0.259221201
0.14865357,0.367561758,0.224958538,0.258826134
0.148579327,0.368397798,0.224593868,0.258429007
0.148504155,0.369237178,0.224228839,0.258029828
0.148428054,0.370079855,0.223863481,0.25762861
0.148351027,0.370925785,0.223497826,0.257225362
0.148273075,0.371774923,0.223131905,0.256820097
0.1481942,0.372627224,0.222765749,0.256412827
0.148114405,0.373482641,0.222399391,0.256003564
0.14803369,0.374341126,0.222032863,0.255592322
0.147952058,0.375202631,0.221666198,0.255179113
0.14786951,0.376067108,0.221299432,0.254763951
0.147786046,0.376934506,0.220932598,0.25434685
0.14770167,0.377804774,0.22056573,0.253927826
0.147616383,0.37867786,0.220198864,0.253506892
0.147530189,0.379553711,0.219832034,0.253084066
0.147443092,0.380432272,0.219465274,0.252659363
0.147355096,0.381313491,0.219098615,0.252232798
0.147266205,0.382197314,0.218732092,0.251804389
0.147176425,0.38308369,0.218365736,0.251374149
0.147085761,0.383972565,0.217999579,0.250942094
0.146994217,0.384863889,0.217633654,0.25050824
0.146901799,0.385757609,0.21726799,0.250072602
0.146808513,0.386653673,0.21690262,0.249635194
0.146714366,0.38755203,0.216537572,0.249196032
0.146619363,0.388452629,0.216172875,0.248755133
0.146523513,0.389355417,0.215808559,0.248312511
0.146426822,0.390260342,0.215444651,0.247868185
0.146329298,0.39116735,0.21508118,0.247422172
0.14623095,0.392076387,0.214718174,0.246974489
0.146131787,0.392987397,0.214355661,0.246525155
0.146031817,0.393900325,0.213993669,0.24607419
0.145931047,0.394815115,0.213632225,0.245621612
0.145829487,0.395731712,0.21327136,0.245167441
0.145727144,0.396650059,0.212911103,0.244711694
0.145624025,0.397570102,0.212551483,0.244254389
0.145520139,0.398491785,0.212192529,0.243795546
0.145415494,0.399415052,0.211834271,0.243335183
0.145310097,0.400339848,0.211476737,0.242873318
0.145203959,0.401266117,0.211119954,0.242409969
0.145097088,0.402193805,0.210763952,0.241945154
0.144989493,0.403122857,0.210408761,0.24147889
0.144881183,0.404053213,0.210054411,0.241011193
0.144772166,0.404984818,0.209700933,0.240542083
0.144662453,0.405917611,0.20934836,0.240071576
0.144552053,0.406851533,0.208996725,0.239599689
0.144440977,0.407786523,0.208646061,0.239126439
0.144329232,0.408722518,0.208296406,0.238651843
0.144216828,0.409659457,0.207947798,0.238175917
0.144103775,0.410597276,0.207600277,0.237698673
0.14399008,0.411535913,0.207253882,0.237220125
0.143875752,0.412475305,0.206908655,0.236740289
0.1437608,0.413415389,0.206564634,0.236259177
0.143645232,0.414356101,0.206221861,0.235776805
0.143529058,0.415297377,0.205880377,0.235293188
0.143412284,0.416239154,0.205540222,0.234808341
0.143294918,0.417181367,0.205201438,0.234322277
0.143176968,0.418123959,0.204864064,0.233835008
0.143058442,0.41906687,0.20452814,0.233346547
0.142939347,0.420010044,0.204193704,0.232856905
0.14281969,0.420953424,0.203860792,0.232366093
0.142699478,0.421896961,0.203529439,0.231874121
0.142578715,0.42284061,0.203199677,0.231380997
0.142457406,0.423784328,0.202871538,0.230886728
0.142335555,0.424728073,0.202545051,0.230391322
0.142213163,0.425671807,0.202220246,0.229894784
0.142090236,0.42661549,0.201897154,0.22939712
0.141966774,0.427559087,0.201575802,0.228898337
0.141842784,0.428502559,0.201256219,0.228398438
0.14171827,0.429445871,0.200938431,0.227897428
0.141593238,0.430388985,0.200622464,0.227395313
0.141467695,0.431331863,0.200308344,0.226892098
0.141341649,0.432274466,0.199996096,0.226387789
0.141215107,0.433216755,0.199685745,0.225882394
0.141088077,0.434158687,0.199377318,0.225375919
0.140960568,0.435100218,0.199070841,0.224868373
0.140832589,0.436041304,0.198766343,0.224359764
0.140704148,0.436981898,0.19846385,0.223850104
0.140575256,0.437921953,0.19816339,0.2233394
0.140445923,0.438861424,0.197864989,0.222827664
0.14031616,0.439800264,0.197568671,0.222314905
0.140185977,0.440738428,0.197274461,0.221801134
0.140055387,0.441675871,0.196982381,0.221286361
0.139924402,0.442612547,0.196692453,0.220770599
0.139793032,0.443548409,0.1964047,0.220253859
0.139661291,0.444483413,0.196119141,0.219736155
0.139529191,0.44541751,0.195835799,0.2192175
0.139396745,0.446350654,0.195554692,0.218697908
0.139263968,0.447282798,0.19527584,0.218177394
0.139130872,0.448213895,0.194999262,0.217655971
0.138997474,0.449143894,0.194724976,0.217133655
0.138863789,0.45007275,0.194453001,0.21661046
0.138729831,0.451000412,0.194183353,0.216086404
0.138595617,0.451926831,0.193916049,0.215561502
0.138461163,0.452851958,0.193651107,0.215035773
0.138326483,0.453775742,0.193388541,0.214509234
0.138191594,0.454698134,0.193128367,0.213981905
0.138056512,0.455619082,0.192870601,0.213453805
0.137921251,0.456538537,0.192615256,0.212924955
0.137785828,0.457456449,0.192362347,0.212395376
0.137650257,0.458372768,0.192111885,0.211865089
0.137514553,0.459287447,0.191863884,0.211334115
0.137378731,0.460200437,0.191618355,0.210802476
0.137242807,0.46111169,0.191375309,0.210270194
0.137106796,0.462021157,0.191134756,0.209737291
0.136970711,0.46292879,0.190896709,0.209203789
0.136834569,0.46383454,0.190661181,0.208669711
0.136698382,0.464738357,0.190428183,0.208135078
0.136562165,0.465640192,0.190197729,0.207599913
0.136425933,0.466539998,0.18996983,0.207064239
0.136289696,0.467437726,0.189744501,0.206528077
0.136153469,0.468333328,0.189521756,0.205991447
0.136017263,0.469226759,0.189301607,0.205454372
0.135881089,0.470117971,0.189084071,0.204916869
0.135744961,0.471006918,0.188869161,0.20437896
0.135608889,0.471893556,0.188656892,0.203840663
0.135472885,0.472777838,0.188447276,0.203302
0.135336962,0.47365972,0.188240327,0.202762991
0.13520113,0.474539157,0.188036057,0.202223655
0.135065402,0.475416104,0.18783448,0.201684014
0.134929792,0.476290514,0.187635606,0.201144088
0.134794312,0.477162343,0.187439448,0.200603898
0.134658974,0.478031547,0.187246014,0.200063464
0.134523793,0.478898082,0.187055315,0.19952281
0.134388783,0.479761903,0.186867357,0.198981956
0.134253961,0.480622965,0.186682149,0.198440925
0.134119342,0.48148122,0.186499697,0.19789974
0.133984946,0.482336624,0.186320008,0.197358423
0.133850789,0.483189128,0.186143086,0.196816997
0.13371689,0.484038687,0.185968936,0.196275487
0.133583267,0.484885254,0.185797563,0.195733915
0.133449938,0.485728784,0.185628969,0.195192308
0.13331692,0.486569232,0.185463158,0.19465069
0.133184232,0.487406552,0.18530013,0.194109086
0.133051891,0.488240701,0.185139887,0.193567521
0.132919916,0.489071635,0.184982429,0.193026019
0.132788325,0.489899313,0.184827755,0.192484607
0.132657134,0.490723694,0.184675864,0.191943308
0.132526362,0.491544737,0.184526753,0.191402148
0.132396024,0.492362403,0.184380421,0.190861152
0.132266139,0.493176653,0.184236862,0.190320346
0.132136724,0.493987447,0.184096075,0.189779754
0.132007795,0.49479475,0.183958054,0.189239402
0.131879368,0.495598522,0.183822794,0.188699315
0.131751461,0.49639873,0.183690292,0.188159518
0.131624087,0.497195337,0.18356054,0.187620035
0.131497262,0.497988314,0.183433532,0.187080892
0.131370998,0.49877763,0.18330926,0.186542111
0.131245311,0.499563259,0.183187716,0.186003715
0.131120212,0.500345173,0.18306889,0.185465725
0.130995716,0.501123347,0.182952773,0.184928164
0.130871835,0.501897756,0.182839355,0.184391054
0.130748584,0.502668374,0.182728626,0.183854416
0.130625974,0.503435177,0.182620576,0.183318274
0.130504018,0.50419814,0.182515194,0.182782648
0.130382729,0.504957239,0.182412471,0.182247561
0.130262119,0.50571245,0.182312397,0.181713034
0.130142202,0.506463749,0.182214962,0.181179088
0.130022991,0.50721111,0.182120155,0.180645744
0.129904499,0.507954509,0.182027969,0.180113024
0.129786739,0.50869392,0.181938394,0.179580947
0.129669725,0.50942932,0.181851422,0.179049533
0.129553469,0.510160684,0.181767044,0.178518803
0.129437983,0.510887987,0.181685253,0.177988776
0.129323282,0.511611206,0.181606041,0.177459472
0.129209377,0.512330313,0.181529399,0.176930911
0.129096282,0.513045285,0.18145532,0.176403113
0.128984007,0.513756097,0.181383796,0.175876099
0.128872566,0.514462726,0.181314819,0.175349889
0.12876197,0.515165149,0.181248379,0.174824502
0.12865223,0.515863346,0.181184467,0.174299958
0.128543355,0.516557294,0.181123075,0.173776276
0.128435357,0.517246976,0.181064193,0.173253475
0.128328243,0.51793237,0.181007812,0.172731575
0.128222024,0.518613458,0.180953923,0.172210595
0.128116708,0.519290223,0.180902517,0.171690553
0.128012302,0.519962645,0.180853583,0.17117147
0.127908816,0.520630708,0.180807113,0.170653364
0.127806255,0.521294393,0.180763097,0.170136255
0.127704627,0.521953685,0.180721525,0.169620163
0.127603938,0.522608567,0.180682389,0.169105106
0.127504196,0.523259022,0.180645677,0.168591104
0.127405408,0.523905037,0.180611378,0.168078177
0.127307579,0.524546595,0.180579482,0.167566344
0.127210718,0.525183683,0.180549977,0.167055623
0.127114831,0.525816287,0.18052285,0.166546033
0.127019926,0.526444392,0.180498088,0.166037593
0.126926013,0.527067988,0.180475678,0.165530321
0.126833099,0.527687063,0.180455605,0.165024233
0.126741192,0.528301606,0.180437854,0.164519348
0.126650301,0.528911607,0.18042241,0.164015682
0.126560433,0.529517057,0.180409256,0.163513254
0.126471596,0.530117948,0.180398377,0.16301208
0.126383796,0.530714271,0.180389756,0.162512177
0.126297043,0.531306019,0.180383376,0.162013562
0.126211342,0.531893187,0.18037922,0.161516251
0.126126701,0.532475769,0.180377271,0.16102026
0.126043125,0.53305376,0.180377511,0.160525605
0.12596062,0.533627156,0.180379923,0.160032301
0.125879192,0.534195955,0.18038449,0.159540363
0.125798843,0.534760155,0.180391195,0.159049807
0.125719579,0.535319755,0.18040002,0.158560646
0.125641403,0.535874755,0.180410948,0.158072894
0.125564318,0.536425156,0.180423961,0.157586566
0.125488327,0.536970957,0.180439041,0.157101674
0.125413434,0.537512161,0.180456172,0.156618233
0.125339641,0.538048769,0.180475335,0.156136255
0.125266951,0.538580784,0.180496513,0.155655752
0.125195368,0.539108208,0.180519685,0.155176738
0.125124894,0.539631047,0.180544835,0.154699224
0.125055532,0.540149302,0.180571943,0.154223223
0.124987285,0.540662978,0.180600991,0.153748746
0.124920155,0.541172078,0.180631961,0.153275806
0.124854147,0.541676605,0.180664835,0.152804413
0.124789262,0.542176564,0.180699595,0.152334579
0.124725506,0.542671957,0.180736222,0.151866316
0.12466288,0.543162787,0.180774697,0.151399636
0.12460139,0.543649057,0.180815003,0.15093455
0.124541038,0.544130771,0.180857121,0.15047107
0.124481827,0.544607933,0.180901031,0.150009209
0.124423762,0.545080544,0.180946716,0.149548977
0.124366847,0.545548611,0.180994155,0.149090387
0.124311085,0.546012136,0.18104333,0.148633449
0.12425648,0.546471124,0.181094221,0.148178175
0.124203035,0.54692558,0.181146809,0.147724575
0.124150751,0.547375511,0.181201077,0.147272661
0.12409963,0.547820924,0.181257004,0.146822442
0.124049675,0.548261825,0.181314573,0.146373927
0.124000885,0.548698223,0.181373764,0.145927128
0.123953264,0.549130124,0.181434559,0.145482053
0.123906812,0.549557537,0.181496939,0.145038712
0.12386153,0.549980471,0.181560885,0.144597115
0.123817421,0.550398932,0.181626376,0.14415727
0.123774486,0.550812932,0.181693394,0.143719188
0.123732725,0.551222481,0.181761919,0.143282875
0.12369214,0.55162759,0.181831931,0.14284834
0.123652731,0.552028271,0.181903409,0.142415588
0.123614502,0.552424536,0.181976335,0.141984628
0.123577452,0.552816394,0.182050689,0.141555465
0.123541584,0.553203858,0.182126452,0.141128106
0.123506899,0.553586938,0.182203606,0.140702556
0.123473399,0.553965648,0.182282131,0.140278822
0.123441083,0.554339999,0.182362009,0.139856908
0.123409954,0.554710007,0.18244322,0.139436819
0.123380011,0.555075684,0.182525745,0.13901856
0.123351257,0.555437043,0.182609565,0.138602135
0.123323692,0.555794099,0.18269466,0.138187549
0.123297318,0.556146864,0.182781012,0.137774806
0.123272134,0.556495353,0.182868603,0.13736391
0.123248141,0.556839578,0.182957414,0.136954867
0.12322534,0.557179554,0.183047427,0.136547679
0.123203729,0.557515294,0.183138625,0.136142352
0.12318331,0.557846812,0.183230989,0.13573889
0.12316408,0.558174122,0.183324503,0.135337295
0.123146041,0.558497238,0.183419149,0.134937572
0.12312919,0.558816175,0.183514911,0.134539724
0.123113526,0.559130948,0.183611773,0.134143753
0.123099049,0.55944157,0.183709717,0.133749664
0.123085756,0.559748058,0.183808727,0.133357459
0.123073645,0.560050426,0.183908786,0.132967144
0.123062712,0.560348692,0.184009876,0.132578721
0.123052955,0.560642872,0.184111981,0.132192192
0.12304437,0.560932984,0.184215084,0.131807562
0.123036955,0.561219047,0.184319166,0.131424831
0.123030706,0.561501079,0.184424212,0.131044003
0.123025618,0.561779101,0.184530201,0.130665079
0.123021689,0.562053131,0.184637118,0.130288061
0.123018914,0.562323191,0.184744944,0.129912951
0.123017287,0.562589299,0.184853663,0.12953975
0.123016806,0.562851476,0.184963259,0.12916846
0.123017463,0.563109741,0.185073715,0.128799081
0.123019255,0.563364114,0.185185018,0.128431614
0.123022175,0.563614613,0.185297152,0.128066061
0.123026218,0.563861259,0.185410102,0.12770242
0.12303138,0.564104073,0.185523854,0.127340694
0.123037652,0.564343073,0.185638394,0.12698088
0.123045031,0.564578281,0.185753708,0.126622979
0.123053508,0.564809718,0.185869783,0.126266991
0.123063078,0.565037406,0.185986604,0.125912912
0.123073733,0.565261368,0.186104158,0.125560742
0.123085464,0.565481629,0.18622243,0.125210477
0.123098263,0.565698217,0.186341405,0.124862115
0.123112121,0.565911159,0.186461068,0.124515652
0.123127028,0.566120484,0.186581403,0.124171086
0.123142975,0.56632622,0.186702395,0.123828411
0.123159952,0.566528394,0.18682403,0.123487624
0.123177949,0.566727037,0.186946292,0.123148722
0.123196957,0.566922175,0.187069167,0.122811701
0.123216966,0.567113839,0.18719264,0.122476555
0.123237966,0.567302057,0.187316696,0.122143281
0.123259946,0.567486859,0.18744132,0.121811875
0.123282896,0.567668276,0.187566496,0.121482332
0.123306806,0.567846335,0.18769221,0.121154649
0.123331666,0.568021066,0.187818447,0.12082882
0.123357465,0.568192499,0.187945193,0.120504844
0.123384193,0.568360661,0.188072432,0.120182714
0.123411842,0.568525579,0.18820015,0.119862429
0.123440402,0.568687282,0.188328333,0.119543984
0.123469863,0.568845796,0.188456966,0.119227375
0.123500217,0.569001148,0.188586036,0.1189126
0.123531454,0.569153362,0.188715529,0.118599655
0.123563566,0.569302465,0.188845433,0.118288536
0.123596543,0.569448482,0.188975735,0.11797924
0.123630377,0.569591439,0.189106422,0.117671762
0.123665058,0.569731359,0.189237483,0.117366099
0.123700579,0.569868268,0.189368907,0.117062246
0.123736929,0.570002189,0.189500682,0.1167602
0.1237741,0.570133147,0.189632798,0.116459955
0.123812083,0.570261166,0.189765244,0.116161507
0.123850868,0.57038627,0.18989801,0.115864852
0.123890447,0.570508483,0.190031087,0.115569984
0.12393081,0.570627826,0.190164464,0.1152769
0.123971949,0.570744324,0.190298133,0.114985594
0.124013855,0.570858,0.190432085,0.114696061
0.124056517,0.570968877,0.190566309,0.114408297
0.124099926,0.571076978,0.190700798,0.114122298
0.124144074,0.571182326,0.190835542,0.113838059
0.124188949,0.571284944,0.19097053,0.113555576
0.124234544,0.571384854,0.191105755,0.113274847
0.124280849,0.571482079,0.191241207,0.112995865
0.124327855,0.571576641,0.191376876,0.112718629
0.124375553,0.571668562,0.191512753,0.112443132
0.124423934,0.571757867,0.19164883,0.11216937
0.124472988,0.571844577,0.191785096,0.111897339
0.124522707,0.571928716,0.191921542,0.111627036
0.124573081,0.572010305,0.19205816,0.111358454
0.1246241,0.572089368,0.19219494,0.111091592
0.124675756,0.572165925,0.192331874,0.110826445
0.124728038,0.572239999,0.192468955,0.110563008
0.124780939,0.57231161,0.192606174,0.110301278
0.124834447,0.57238078,0.192743523,0.11004125
0.124888555,0.57244753,0.192880995,0.10978292
0.124943254,0.57251188,0.193018584,0.109526282
0.124998533,0.572573853,0.19315628,0.109271334
0.125054385,0.572633467,0.193294077,0.109018071
0.1251108,0.572690744,0.193431966,0.108766489
0.125167772,0.572745703,0.193569941,0.108516583
0.125225291,0.572798365,0.193707994,0.10826835
0.125283349,0.572848748,0.193846118,0.108021785
0.125341938,0.572896874,0.193984304,0.107776883
0.12540105,0.572942763,0.194122547,0.10753364
0.125460678,0.572986434,0.194260837,0.107292051
0.125520814,0.573027908,0.194399167,0.107052111
0.12558145,0.573067204,0.194537531,0.106813815
0.125642581,0.573104341,0.19467592,0.106577158
0.1257042,0.573139338,0.194814327,0.106342135
0.125766301,0.573172216,0.194952743,0.10610874
0.125828879,0.573202992,0.195091161,0.105876967
0.125891928,0.573231688,0.195229572,0.105646811
0.125955442,0.573258323,0.19536797,0.105418266
0.126019415,0.573282915,0.195506344,0.105191326
0.126083842,0.573305485,0.195644689,0.104965985
0.126148717,0.573326052,0.195782994,0.104742237
0.126214033,0.573344637,0.195921252,0.104520078
0.126279784,0.573361261,0.196059453,0.104299502
0.126345963,0.573375944,0.196197589,0.104080503
0.126412563,0.57338871,0.196335651,0.103863075
0.126479576,0.57339958,0.19647363,0.103647214
0.126546995,0.573408575,0.196611517,0.103432913
0.126614812,0.573415718,0.196749303,0.103220167
0.126683021,0.573421028,0.196886981,0.103008969
0.126751615,0.573424529,0.197024543,0.102799313
0.126820586,0.573426239,0.197161981,0.102591194
0.126889928,0.57342618,0.197299286,0.102384605
0.126959634,0.573424372,0.197436453,0.102179541
0.127029697,0.573420834,0.197573475,0.101975994
0.127100112,0.573415583,0.197710343,0.101773961
0.127170873,0.573408639,0.197847052,0.101573435
0.127241974,0.573400019,0.197983595,0.101374412
0.12731341,0.573389741,0.198119964,0.101176885
0.127385175,0.573377821,0.198256154,0.10098085
0.127457265,0.573364277,0.198392158,0.1007863
0.127529673,0.573349127,0.19852797,0.100593229
0.127602395,0.573332387,0.198663586,0.100401632
0.127675424,0.573314073,0.198799002,0.100211501
0.127748754,0.573294201,0.198934214,0.100022831
0.127822378,0.573272787,0.19906922,0.099835615
0.127896291,0.573249846,0.199204017,0.099649846
0.127970485,0.573225392,0.199338605,0.099465518
0.128044954,0.573199439,0.199472984,0.099282623
0.12811969,0.573172001,0.199607154,0.099101154
0.128194688,0.57314309,0.199741116,0.098921105
0.128269942,0.573112719,0.19987487,0.098742469
0.128345444,0.5730809,0.200008416,0.09856524
0.12842119,0.573047643,0.200141757,0.09838941
0.128497174,0.573012958,0.200274894,0.098214974
0.12857339,0.572976857,0.200407829,0.098041924
0.128649833,0.572939349,0.200540565,0.097870254
0.128726497,0.572900444,0.200673102,0.097699956
0.128803377,0.572860154,0.200805444,0.097531026
0.128880467,0.572818486,0.200937591,0.097363456
0.128957764,0.572775451,0.201069544,0.097197241
0.12903526,0.572731059,0.201201306,0.097032375
0.129112953,0.572685319,0.201332876,0.096868852
0.129190835,0.572638241,0.201464256,0.096706667
0.129268903,0.572589836,0.201595448,0.096545814
0.12934715,0.572540112,0.201726452,0.096386286
0.129425573,0.572489079,0.20185727,0.096228078
0.129504165,0.572436747,0.201987902,0.096071185
0.129582924,0.572383126,0.202118351,0.095915599
0.129661843,0.572328224,0.202248616,0.095761317
0.129740919,0.57227205,0.2023787,0.095608331
0.129820146,0.572214614,0.202508603,0.095456637
0.129899519,0.572155924,0.202638326,0.09530623
0.129979035,0.572095991,0.202767871,0.095157103
0.130058689,0.572034821,0.202897237,0.095009252
0.130138476,0.571972426,0.203026426,0.094862672
0.130218392,0.571908813,0.203155438,0.094717357
0.130298435,0.571843991,0.203284271,0.094573303
0.1303786,0.57177797,0.203412926,0.094430504
0.130458885,0.571710759,0.203541401,0.094288955
0.130539288,0.571642366,0.203669695,0.094148652
0.130619805,0.5715728,0.203797806,0.094009589
0.130700435,0.57150207,0.203925735,0.093871761
0.130781174,0.571430184,0.204053479,0.093735163
0.130862022,0.57135715,0.204181037,0.093599791
0.130942974,0.571282976,0.20430841,0.09346564
0.131024029,0.571207671,0.204435597,0.093332703
0.131105183,0.571131244,0.204562595,0.093200977
0.131186435,0.571053703,0.204689406,0.093070456
0.131267782,0.570975056,0.204816027,0.092941134
0.131349221,0.570895314,0.204942458,0.092813006
0.131430752,0.570814484,0.205068698,0.092686066
0.131512371,0.570732576,0.205194743,0.092560309
0.131594078,0.5706496,0.205320593,0.092435729
0.131675871,0.570565564,0.205446245,0.09231232
0.131757748,0.570480476,0.205571698,0.092190077
0.13183971,0.570394345,0.205696951,0.092068995
0.131921756,0.570307177,0.205822,0.091949067
0.132003886,0.57021898,0.205946845,0.091830289
0.132086102,0.57012976,0.206071483,0.091712655
0.132168402,0.570039525,0.206195913,0.09159616
0.132250788,0.569948282,0.206320132,0.091480798
0.132333259,0.569856039,0.206444138,0.091366564
0.132415815,0.569762804,0.206567929,0.091253452
0.132498456,0.569668585,0.206691502,0.091141457
0.132581182,0.569573392,0.206814854,0.091030571
0.132663994,0.569477233,0.206937984,0.090920789
0.132746892,0.569380115,0.207060889,0.090812104
0.132829878,0.569282045,0.207183566,0.090704511
0.132912953,0.56918303,0.207306014,0.090598004
0.132996118,0.569083075,0.207428232,0.090492575
0.133079375,0.568982187,0.207550218,0.09038822
0.133162725,0.568880372,0.20767197,0.090284932
0.133246171,0.568777636,0.207793487,0.090182706
0.133329713,0.568673986,0.207914767,0.090081535
0.133413352,0.568569428,0.208035808,0.089981413
0.133497088,0.56846397,0.208156607,0.089882334
0.133580924,0.568357619,0.208277165,0.089784293
0.133664858,0.568250382,0.208397477,0.089687283
0.133748891,0.568142267,0.208517544,0.089591298
0.133833023,0.56803328,0.208637363,0.089496333
0.133917255,0.567923429,0.208756934,0.089402382
0.134001586,0.56781272,0.208876254,0.08930944
0.134086017,0.56770116,0.208995323,0.0892175
0.134170548,0.567588756,0.209114137,0.089126558
0.134255178,0.567475516,0.209232697,0.089036608
0.134339908,0.567361447,0.209351,0.088947645
0.134424736,0.567246555,0.209469044,0.088859665
0.134509663,0.567130847,0.209586828,0.088772661
0.134594688,0.567014331,0.209704351,0.08868663
0.13467981,0.566897012,0.209821611,0.088601567
0.134765029,0.566778897,0.209938609,0.088517466
0.134850343,0.566659993,0.210055342,0.088434322
0.134935751,0.566540306,0.210171812,0.088352132
0.135021252,0.566419842,0.210288017,0.088270889
0.135106845,0.566298608,0.210403958,0.088190589
0.135192527,0.566176609,0.210519636,0.088111228
0.135278298,0.566053853,0.21063505,0.088032799
0.135364156,0.565930344,0.2107502,0.0879553
0.135450098,0.565806091,0.210865088,0.087878723
0.135536126,0.565681098,0.210979712,0.087803064
0.135622236,0.565555373,0.211094072,0.087728319
0.135708428,0.56542892,0.211208169,0.087654483
0.135794701,0.565301747,0.211322004,0.087581549
0.135881054,0.565173857,0.211435575,0.087509514
0.135967485,0.565045257,0.211548884,0.087438373
0.136053994,0.564915952,0.211661933,0.087368122
0.136140579,0.564785946,0.21177472,0.087298755
0.13622724,0.564655245,0.211887247,0.087230268
0.136313975,0.564523853,0.211999515,0.087162656
0.136400785,0.564391775,0.212111525,0.087095915
0.136487668,0.564259015,0.212223276,0.08703004
0.136574624,0.564125578,0.21233477,0.086965027
0.136661654,0.563991469,0.212446007,0.08690087
0.136748756,0.563856692,0.212556987,0.086837565
0.136835931,0.56372125,0.21266771,0.086775108
0.136923179,0.563585149,0.212778177,0.086713495
0.1370105,0.563448393,0.212888388,0.08665272
0.137097893,0.563310985,0.212998342,0.086592779
0.137185359,0.563172931,0.213108041,0.086533669
0.137272898,0.563034235,0.213217483,0.086475384
0.137360509,0.5628949,0.213326671,0.086417921
0.137448192,0.562754931,0.213435602,0.086361276
0.137535947,0.562614332,0.213544278,0.086305444
0.137623773,0.562473107,0.213652698,0.086250422
0.137711671,0.562331261,0.213760862,0.086196206
0.137799639,0.562188798,0.21386877,0.086142793
0.137887678,0.562045722,0.213976423,0.086090177
0.137975786,0.561902038,0.21408382,0.086038356
0.138063963,0.56175775,0.214190962,0.085987325
0.138152207,0.561612864,0.21429785,0.08593708
0.138240517,0.561467384,0.214404483,0.085887616
0.138328894,0.561321316,0.214510862,0.085838929
0.138417335,0.561174664,0.214616987,0.085791013
0.138505841,0.561027436,0.214722858,0.085743865
0.138594412,0.560879636,0.214828473,0.085697479
0.138683046,0.560731271,0.214933832,0.08565185
0.138771744,0.560582347,0.215038935,0.085606974
0.138860506,0.56043287,0.215143779,0.085562845
0.13894933,0.560282848,0.215248364,0.085519458
0.139038216,0.560132286,0.215352689,0.08547681
0.139127163,0.559981192,0.215456751,0.085434893
0.139216171,0.559829574,0.215560551,0.085393705
0.139305238,0.559677437,0.215664086,0.085353238
0.139394364,0.559524792,0.215767355,0.085313489
0.139483547,0.559371644,0.215870357,0.085274452
0.139572786,0.559218003,0.21597309,0.085236121
0.13966208,0.559063874,0.216075553,0.085198493
0.139751429,0.558909267,0.216177743,0.085161561
0.139840831,0.558754188,0.21627966,0.085125321
0.139930286,0.558598645,0.216381302,0.085089767
0.140019793,0.558442645,0.216482667,0.085054896
0.140109351,0.558286195,0.216583751,0.085020702
0.140198962,0.558129303,0.216684553,0.084987182
0.140288625,0.557971976,0.216785068,0.08495433
0.140378341,0.557814222,0.216885294,0.084922144
0.14046811,0.557656047,0.216985225,0.084890618
0.140557932,0.557497459,0.21708486,0.084859749
0.140647807,0.557338466,0.217184194,0.084829532
0.140737736,0.557179074,0.217283225,0.084799965
0.140827716,0.557019291,0.21738195,0.084771043
0.14091775,0.556859122,0.217480365,0.084742763
0.141007834,0.556698577,0.217578468,0.08471512
0.141097971,0.556537662,0.217676256,0.084688112
0.141188158,0.556376384,0.217773724,0.084661734
0.141278395,0.55621475,0.217870871,0.084635984
0.141368682,0.556052766,0.217967694,0.084610857
0.141459019,0.55589044,0.21806419,0.084586351
0.141549403,0.555727776,0.218160357,0.084562463
0.141639836,0.555564782,0.218256193,0.08453919
0.141730314,0.555401462,0.218351695,0.084516529
0.141820839,0.555237823,0.218446861,0.084494477
0.141911409,0.55507387,0.21854169,0.084473032
0.142002022,0.554909608,0.218636179,0.084452191
0.142092679,0.554745045,0.218730326,0.08443195
0.142183377,0.554580184,0.21882413,0.084412308
0.142274117,0.554415032,0.21891759,0.084393262
0.142364897,0.554249594,0.219010702,0.084374808
0.142455716,0.554083874,0.219103466,0.084356943
0.142546574,0.553917878,0.219195881,0.084339666
0.14263747,0.553751612,0.219287944,0.084322973
0.142728403,0.553585081,0.219379655,0.084306861
0.142819371,0.55341829,0.219471011,0.084291328
0.142910373,0.553251245,0.219562012,0.08427637
0.14300141,0.55308395,0.219652655,0.084261985
0.14309248,0.552916412,0.21974294,0.084248169
0.143183582,0.552748634,0.219832863,0.084234921
0.143274716,0.552580624,0.219922423,0.084222237
0.143365882,0.552412384,0.220011618,0.084210116
0.143457079,0.552243921,0.220100445,0.084198555
0.143548308,0.552075238,0.220188901,0.084187552
0.143639568,0.551906341,0.220276986,0.084177106
0.14373086,0.551737233,0.220364694,0.084167212
0.143822185,0.551567919,0.220452025,0.084157871
0.143913543,0.551398402,0.220538976,0.084149079
0.144004934,0.551228687,0.220625544,0.084140835
0.14409636,0.551058778,0.220711725,0.084133137
0.144187821,0.550888678,0.220797518,0.084125982
0.144279319,0.550718392,0.220882919,0.08411937
0.144370853,0.550547923,0.220967926,0.084113297
0.144462425,0.550377275,0.221052537,0.084107762
0.144554037,0.550206451,0.22113675,0.084102762
0.144645688,0.550035454,0.221220563,0.084098296
0.14473738,0.549864287,0.221303973,0.08409436
0.144829115,0.549692951,0.22138698,0.084090953
0.144920894,0.54952145,0.221469583,0.084088074
0.145012717,0.549349785,0.22155178,0.084085718
0.145104586,0.549177958,0.221633571,0.084083885
0.145196502,0.549005971,0.221714954,0.084082572
0.145288466,0.548833826,0.22179593,0.084081778
0.145380481,0.548661523,0.221876497,0.084081499
0.145472546,0.548489064,0.221956655,0.084081735
0.145564663,0.548316451,0.222036403,0.084082482
0.145656834,0.548143686,0.222115741,0.084083739
0.145749059,0.547970772,0.222194665,0.084085504
0.145841338,0.54779771,0.222273177,0.084087774
0.145933674,0.547624506,0.222351273,0.084090547
0.146026065,0.54745116,0.222428953,0.084093821
0.146118514,0.547277677,0.222506215,0.084097594
0.14621102,0.54710406,0.222583058,0.084101863
0.146303584,0.546930311,0.222659479,0.084106626
0.146396207,0.546756433,0.222735477,0.084111883
0.146488889,0.546582428,0.222811052,0.084117631
0.14658163,0.5464083,0.222886202,0.084123868
0.14667443,0.54623405,0.222960926,0.084130593
0.146767291,0.546059681,0.223035224,0.084137805
0.146860212,0.545885194,0.223109093,0.084145501
0.146953193,0.545710592,0.223182534,0.084153681
0.147046235,0.545535876,0.223255546,0.084162342
0.147139338,0.545361049,0.223328128,0.084171485
0.147232501,0.545186112,0.223400279,0.084181107
0.147325725,0.545011069,0.223471998,0.084191208
0.147419008,0.544835922,0.223543284,0.084201786
0.14751235,0.544660675,0.223614134,0.084212841
0.147605751,0.54448533,0.223684548,0.08422437
0.147699211,0.544309891,0.223754526,0.084236373
0.147792729,0.544134358,0.223824065,0.084248848
0.147886306,0.543958733,0.223893166,0.084261795
0.147979943,0.543783017,0.223961828,0.084275212
0.148073639,0.543607212,0.224030051,0.084289098
0.148167397,0.543431315,0.224097834,0.084303454
0.148261216,0.543255328,0.22416518,0.084318276
0.148355097,0.54307925,0.224232088,0.084333565
0.14844904,0.542903079,0.224298561,0.08434932
0.148543046,0.542726813,0.2243646,0.08436554
0.148637115,0.542550453,0.224430207,0.084382225
0.148731248,0.542373997,0.224495383,0.084399373
0.148825444,0.542197442,0.224560129,0.084416985
0.148919704,0.542020788,0.224624449,0.084435058
0.14901403,0.541844033,0.224688345,0.084453593
0.14910842,0.541667174,0.224751818,0.084472588
0.149202877,0.541490211,0.224814869,0.084492042
0.149297401,0.54131314,0.224877502,0.084511956
0.149391993,0.54113596,0.224939718,0.084532329
0.149486653,0.540958669,0.225001518,0.084553159
0.149581383,0.540781265,0.225062904,0.084574448
0.149676182,0.540603746,0.225123878,0.084596194
0.149771052,0.54042611,0.225184442,0.084618396
0.149865992,0.540248355,0.225244598,0.084641054
0.149961004,0.540070481,0.225304349,0.084664167
0.150056088,0.539892483,0.225363696,0.084687733
0.150151243,0.539714363,0.225422642,0.084711753
0.150246471,0.539536116,0.225481189,0.084736224
0.15034177,0.539357742,0.225539342,0.084761146
0.150437143,0.539179238,0.225597102,0.084786517
0.150532587,0.539000602,0.225654473,0.084812338
0.150628105,0.538821831,0.225711458,0.084838605
0.150723696,0.538642922,0.225768062,0.08486532
0.15081936,0.538463873,0.225824288,0.084892479
0.150915098,0.53828468,0.22588014,0.084920083
0.151010908,0.538105339,0.225935622,0.08494813
0.151106792,0.537925848,0.225990739,0.084976621
0.15120275,0.537746202,0.226045495,0.085005553
0.151298783,0.537566397,0.226099893,0.085034926
0.151394892,0.537386428,0.226153939,0.085064741
0.151491079,0.537206291,0.226207636,0.085094994
0.151587345,0.537025979,0.226260989,0.085125687
0.151683694,0.536845488,0.226314001,0.085156817
0.151780126,0.536664812,0.226366678,0.085188384
0.151876644,0.536483945,0.226419023,0.085220388
0.15197325,0.536302883,0.22647104,0.085252828
0.152069947,0.536121618,0.226522733,0.085285703
0.152166736,0.535940145,0.226574106,0.085319012
0.15226362,0.535758459,0.226625165,0.085352755
0.152360601,0.535576555,0.226675913,0.085386931
0.15245768,0.535394426,0.226726355,0.085421539
0.15255486,0.535212067,0.226776495,0.085456578
0.15265214,0.535029475,0.226826338,0.085492047
0.152749522,0.534846645,0.226875887,0.085527946
0.152847008,0.534663571,0.226925146,0.085564274
0.152944599,0.534480251,0.22697412,0.08560103
0.153042296,0.534296679,0.227022813,0.085638213
0.153140099,0.534112852,0.227071227,0.085675822
0.153238011,0.533928766,0.227119367,0.085713856
0.153336032,0.533744417,0.227167237,0.085752314
0.153434163,0.533559802,0.227214839,0.085791196
0.153532405,0.533374915,0.227262179,0.085830501
0.153630759,0.533189754,0.227309258,0.085870229
0.153729227,0.533004314,0.227356081,0.085910378
0.153827809,0.532818591,0.227402652,0.085950949
0.153926505,0.532632583,0.227448972,0.08599194
0.154025318,0.532446285,0.227495046,0.086033352
0.154124246,0.532259694,0.227540876,0.086075183
0.154223292,0.532072809,0.227586465,0.086117434
0.154322456,0.531885625,0.227631815,0.086160104
0.154421738,0.53169814,0.227676931,0.086203191
0.154521139,0.531510353,0.227721814,0.086246694
0.154620659,0.53132226,0.227766468,0.086290613
0.1547203,0.531133858,0.227810896,0.086334946
0.154820062,0.530945144,0.227855102,0.086379692
0.154919947,0.530756116,0.227899088,0.086424849
0.155019956,0.530566768,0.22794286,0.086470416
0.155120088,0.530377098,0.227986422,0.086516392
0.155220345,0.530187101,0.228029778,0.086562776
0.155320728,0.529996773,0.228072933,0.086609566
0.155421236,0.529806108,0.228115892,0.086656763
0.155521871,0.529615103,0.228158661,0.086704365
0.155622633,0.529423753,0.228201242,0.086752372
0.155723522,0.529232054,0.228243643,0.086800782
0.155824538,0.529040002,0.228285866,0.086849594
0.15592568,0.528847594,0.228327917,0.086898809
0.156026948,0.528654825,0.228369801,0.086948426
0.156128342,0.528461691,0.228411523,0.086998444
0.156229861,0.528268188,0.228453087,0.087048864
0.156331506,0.528074313,0.228494498,0.087099684
0.156433275,0.527880062,0.22853576,0.087150904
0.156535167,0.527685432,0.228576878,0.087202523
0.156637184,0.52749042,0.228617854,0.087254542
0.156739322,0.527295025,0.228658694,0.087306958
0.156841582,0.527099245,0.2286994,0.087359773
0.156943963,0.526903078,0.228739974,0.087412984
0.157046464,0.526706522,0.228780422,0.087466591
0.157149084,0.526509576,0.228820746,0.087520594
0.157251821,0.526312238,0.22886095,0.087574992
0.157354674,0.526114507,0.228901036,0.087629783
0.157457642,0.525916382,0.228941009,0.087684967
0.157560724,0.525717863,0.228980872,0.087740542
0.157663917,0.525518948,0.229020628,0.087796507
0.157767221,0.525319636,0.229060281,0.087852861
0.157870633,0.525119927,0.229099836,0.087909604
0.157974153,0.524919819,0.229139296,0.087966733
0.158077777,0.524719311,0.229178665,0.088024247
0.158181505,0.524518401,0.22921795,0.088082144
0.158285335,0.524317087,0.229257153,0.088140424
0.158389266,0.524115369,0.229296282,0.088199084
0.158493294,0.523913243,0.22933534,0.088258123
0.158597419,0.523710708,0.229374333,0.088317539
0.158701638,0.523507762,0.229413269,0.088377331
0.158805951,0.523304401,0.229452151,0.088437497
0.158910354,0.523100624,0.229490988,0.088498034
0.159014847,0.522896428,0.229529783,0.088558942
0.159119429,0.52269181,0.229568543,0.088620218
0.159224097,0.52248677,0.229607272,0.088681861
0.159328852,0.522281304,0.229645977,0.088743868
0.15943369,0.522075411,0.229684662,0.088806237
0.159538611,0.521869089,0.229723331,0.088868968
0.159643614,0.521662337,0.22976199,0.088932059
0.159748697,0.521455152,0.229800643,0.088995507
0.15985386,0.521247533,0.229839296,0.089059311
0.159959099,0.521039479,0.229877952,0.08912347
0.160064415,0.520830988,0.229916616,0.089187981
0.160169806,0.520622057,0.229955294,0.089252843
0.16027527,0.520412686,0.22999399,0.089318054
0.160380806,0.520202871,0.23003271,0.089383613
0.160486413,0.519992611,0.230071457,0.089449518
0.16059209,0.519781904,0.230110238,0.089515768
0.160697835,0.519570748,0.230149056,0.089582361
0.160803648,0.51935914,0.230187916,0.089649296
0.160909527,0.519147079,0.230226823,0.089716571
0.161015471,0.518934564,0.230265781,0.089784183
0.16112148,0.518721593,0.230304794,0.089852133
0.161227551,0.518508165,0.230343867,0.089920417
0.161333684,0.51829428,0.230383003,0.089989034
0.161439878,0.518079935,0.230422205,0.090057981
0.161546132,0.517865131,0.230461478,0.090127258
0.161652445,0.517649867,0.230500826,0.090196862
0.161758815,0.517434141,0.230540253,0.090266791
0.16186524,0.517217953,0.230579761,0.090337046
0.161971719,0.517001303,0.230619355,0.090407623
0.16207825,0.51678419,0.230659039,0.090478521
0.162184832,0.516566612,0.230698816,0.09054974
0.162291462,0.516348567,0.230738692,0.090621278
0.162398141,0.516130054,0.230778671,0.090693134
0.162504867,0.51591107,0.230818758,0.090765305
0.162611639,0.515691613,0.230858958,0.09083779
0.162718454,0.515471682,0.230899276,0.090910588
0.162825313,0.515251274,0.230939716,0.090983697
0.162932212,0.515030387,0.230980284,0.091057116
0.163039152,0.51480902,0.231020984,0.091130844
0.163146131,0.514587171,0.23106182,0.091204878
0.163253147,0.514364838,0.231102796,0.091279219
0.163360198,0.514142019,0.231143919,0.091353864
0.163467284,0.513918713,0.231185191,0.091428812
0.163574403,0.513694917,0.231226619,0.091504061
0.163681553,0.51347063,0.231268207,0.09157961
0.163788733,0.513245849,0.23130996,0.091655458
0.163895941,0.513020572,0.231351883,0.091731603
0.164003178,0.512794798,0.23139398,0.091808043
0.164110443,0.512568524,0.231436256,0.091884777
0.164217733,0.51234175,0.231478714,0.091961803
0.16432505,0.512114473,0.231521359,0.092039118
0.164432391,0.511886692,0.231564195,0.092116721
0.164539757,0.511658407,0.231607226,0.09219461
0.164647146,0.511429614,0.231650456,0.092272784
0.164754556,0.511200315,0.231693889,0.092351239
0.164861987,0.510970508,0.23173753,0.092429975
0.164969437,0.510740193,0.231781381,0.092508988
0.165076906,0.51050937,0.231825447,0.092588277
0.165184393,0.510278038,0.23186973,0.092667839
0.165291895,0.510046197,0.231914234,0.092747673
0.165399413,0.509813848,0.231958964,0.092827775
0.165506945,0.509580989,0.232003922,0.092908144
0.16561449,0.50934762,0.232049111,0.092988778
0.165722046,0.509113743,0.232094537,0.093069674
0.006863644,0.257009841,0.389854849,0.346271666
0.006986947,0.256891913,0.389774886,0.346346253
0.007110747,0.256771785,0.389694621,0.346422847
0.00723503,0.256649473,0.389614066,0.346501431
0.007359783,0.256524992,0.389533233,0.346581992
0.007484992,0.256398362,0.389452135,0.346664511
0.007610644,0.256269598,0.389370783,0.346748974
0.007736726,0.25613872,0.389289191,0.346835364
0.007863223,0.256005745,0.389207369,0.346923664
0.007990121,0.255870691,0.389125329,0.347013858
0.008117409,0.255733579,0.389043082,0.34710593
0.008245072,0.255594427,0.388960639,0.347199862
0.008373097,0.255453256,0.388878011,0.347295636
0.00850147,0.255310087,0.388795209,0.347393235
0.008630178,0.255164942,0.388712242,0.347492639
0.008759207,0.255017845,0.38862912,0.347593828
0.008888544,0.254868819,0.388545854,0.347696783
0.009018174,0.25471789,0.388462451,0.347801485
0.009148084,0.254565082,0.388378923,0.347907911
0.009278259,0.254410421,0.388295279,0.348016041
0.009408686,0.254253932,0.38821153,0.348125852
0.009539351,0.254095641,0.388127688,0.34823732
0.009670242,0.253935574,0.388043762,0.348350422
0.009801344,0.253773756,0.387959765,0.348465135
0.009932646,0.253610213,0.387875707,0.348581434
0.010064136,0.253444971,0.387791596,0.348699297
0.010195803,0.253278055,0.387707441,0.348818701
0.010327636,0.25310949,0.387623249,0.348939624
0.010459626,0.252939301,0.387539027,0.349062046
0.010591762,0.252767515,0.387454778,0.349185946
0.010724033,0.252594155,0.387370509,0.349311303
0.010856431,0.252419249,0.387286224,0.349438096
0.010988946,0.252242821,0.387201928,0.349566305
0.011121567,0.2520649,0.387117626,0.349695907
0.011254285,0.251885511,0.387033321,0.349826883
0.011387089,0.25170468,0.38694902,0.34995921
0.01151997,0.251522435,0.386864727,0.350092868
0.011652917,0.251338802,0.386780449,0.350227833
0.011785918,0.251153807,0.386696191,0.350364083
0.011918965,0.250967479,0.386611961,0.350501595
0.012052047,0.250779844,0.386527764,0.350640345
0.012185154,0.25059093,0.386443608,0.350780308
0.012318277,0.250400764,0.386359499,0.35092146
0.012451405,0.250209374,0.386275445,0.351063777
0.012584528,0.250016789,0.38619145,0.351207233
0.012717637,0.249823036,0.386107522,0.351351805
0.01285072,0.249628144,0.386023667,0.351497469
0.012983768,0.24943214,0.385939889,0.351644202
0.01311677,0.249235053,0.385856193,0.351791984
0.013249715,0.24903691,0.385772582,0.351940793
0.013382592,0.248837739,0.385689059,0.35209061
0.01351539,0.248637569,0.385605625,0.352241416
0.013648097,0.248436428,0.385522281,0.352393193
0.013780704,0.248234345,0.385439029,0.352545922
0.013913198,0.248031349,0.385355871,0.352699582
0.014045569,0.24782747,0.385272806,0.352854155
0.014177804,0.247622741,0.385189836,0.35300962
0.014309893,0.247417192,0.385106959,0.353165955
0.014441824,0.247210857,0.385024179,0.35332314
0.014573587,0.247003766,0.384941495,0.353481152
0.01470517,0.246795952,0.38485891,0.353639969
0.014836563,0.246587447,0.384776422,0.353799569
0.014967755,0.246378283,0.384694031,0.353959931
0.015098736,0.246168493,0.384611735,0.354121036
0.015229493,0.245958109,0.384529534,0.354282864
0.015360016,0.245747162,0.384447427,0.354445395
0.015490294,0.245535681,0.384365414,0.354608611
0.015620315,0.245323693,0.384283497,0.354772494
0.015750069,0.245111228,0.384201676,0.354937026
0.015879544,0.244898312,0.384119953,0.355102191
0.016008729,0.244684972,0.384038328,0.355267972
0.016137613,0.244471234,0.383956803,0.35543435
0.016266187,0.244257126,0.383875379,0.355601308
0.016394438,0.244042675,0.383794058,0.35576883
0.016522355,0.243827908,0.383712839,0.355936898
0.016649929,0.243612854,0.383631724,0.356105493
0.016777148,0.243397539,0.383550714,0.356274599
0.016904002,0.243181993,0.383469809,0.356444196
0.017030479,0.242966244,0.383389013,0.356614265
0.01715657,0.242750319,0.383308325,0.356784786
0.017282264,0.24253425,0.383227748,0.356955739
0.01740755,0.242318065,0.383147282,0.357127103
0.01753242,0.242101793,0.383066928,0.357298859
0.017656863,0.241885463,0.382986686,0.357470989
0.017780868,0.241669101,0.382906556,0.357643474
0.017904426,0.241452738,0.38282654,0.357816296
0.018027527,0.241236399,0.382746638,0.357989436
0.018150162,0.241020115,0.38266685,0.358162873
0.018272321,0.240803911,0.38258718,0.358336588
0.018393995,0.240587816,0.382507628,0.358510562
0.018515175,0.240371854,0.382428196,0.358684775
0.018635853,0.240156051,0.382348885,0.358859212
0.018756019,0.239940428,0.382269698,0.359033854
0.018875666,0.239725009,0.382190636,0.359208689
0.018994786,0.239509812,0.382111699,0.359383703
0.01911337,0.239294861,0.382032887,0.359558882
0.019231412,0.239080175,0.381954202,0.359734212
0.019348903,0.238865775,0.381875643,0.359909678
0.019465838,0.238651683,0.381797213,0.360085266
0.019582209,0.238437919,0.38171891,0.360260961
0.019698011,0.238224504,0.381640738,0.360436747
0.019813237,0.238011456,0.381562697,0.36061261
0.019927881,0.237798795,0.381484791,0.360788533
0.020041937,0.237586537,0.381407026,0.360964499
0.0201554,0.237374699,0.38132941,0.361140491
0.020268263,0.237163296,0.38125195,0.361316491
0.020380521,0.236952343,0.381174659,0.361492477
0.020492168,0.236741853,0.381097546,0.361668433
0.0206032,0.236531842,0.381020622,0.361844336
0.020713609,0.236322322,0.3809439,0.362020169
0.020823391,0.236113306,0.38086739,0.362195912
0.020932542,0.235904808,0.380791105,0.362371545
0.021041054,0.235696842,0.380715056,0.362547048
0.021148923,0.235489421,0.380639252,0.362722404
0.021256145,0.235282558,0.380563702,0.362897595
0.021362713,0.235076264,0.380488415,0.363072608
0.021468623,0.23487055,0.380413398,0.363247429
0.021573868,0.234665428,0.380338659,0.363422044
0.021678445,0.234460908,0.380264208,0.36359644
0.021782348,0.234257,0.380190052,0.3637706
0.021885572,0.234053714,0.380116203,0.363944511
0.021988112,0.23385106,0.380042671,0.364118157
0.022089964,0.233649047,0.379969466,0.364291523
0.022191123,0.233447684,0.379896598,0.364464595
0.022291585,0.233246981,0.379824075,0.364637359
0.022391344,0.233046945,0.379751907,0.364809803
0.022490397,0.232847585,0.379680103,0.364981915
0.022588738,0.23264891,0.379608671,0.365153681
0.022686365,0.232450927,0.379537618,0.36532509
0.022783271,0.232253644,0.379466954,0.365496131
0.022879454,0.232057067,0.379396684,0.365666795
0.022974909,0.231861202,0.379326817,0.365837071
0.023069633,0.231666056,0.37925736,0.366006951
0.023163622,0.231471634,0.379188319,0.366176425
0.023256873,0.231277944,0.379119701,0.366345482
0.023349381,0.231084992,0.379051512,0.366514115
0.023441144,0.230892785,0.378983755,0.366682316
0.02353216,0.230701329,0.378916436,0.366850075
0.023622424,0.230510631,0.378849558,0.367017387
0.023711936,0.230320696,0.378783125,0.367184243
0.023800691,0.23013153,0.378717143,0.367350636
0.023888687,0.229943136,0.378651619,0.367516558
0.023975921,0.229755517,0.378586563,0.367681998
0.024062391,0.229568677,0.378521983,0.367846948
0.024148095,0.229382618,0.378457889,0.368011398
0.02423303,0.229197343,0.378394289,0.368175338
0.024317194,0.229012856,0.37833119,0.36833876
0.024400587,0.228829159,0.378268601,0.368501654
0.024483205,0.228646255,0.378206528,0.368664012
0.024565049,0.228464148,0.378144979,0.368825823
0.024646117,0.22828284,0.378083963,0.368987079
0.024726408,0.228102335,0.378023488,0.369147769
0.024805923,0.227922634,0.37796356,0.369307884
0.024884661,0.22774374,0.377904187,0.369467412
0.024962622,0.227565655,0.377845377,0.369626345
0.025039809,0.227388384,0.377787137,0.36978467
0.025116223,0.227211927,0.377729472,0.369942378
0.025191864,0.227036288,0.37767239,0.370099458
0.025266735,0.226861469,0.377615894,0.370255902
0.025340836,0.226687472,0.377559989,0.370411703
0.025414171,0.226514296,0.377504679,0.370566853
0.025486742,0.226341942,0.377449968,0.370721348
0.02555855,0.226170407,0.377395858,0.370875185
0.025629598,0.225999691,0.377342351,0.371028361
0.025699888,0.225829789,0.377289447,0.371180877
0.025769423,0.225660696,0.377237147,0.371332734
0.025838204,0.225492406,0.377185454,0.371483937
0.025906234,0.225324912,0.377134366,0.371634487
0.025973516,0.22515821,0.377083883,0.371784391
0.026040051,0.224992291,0.377034006,0.371933652
0.026105841,0.22482715,0.376984732,0.372082277
0.02617089,0.22466278,0.376936059,0.372230271
0.026235199,0.224499174,0.376887985,0.372377642
0.026298771,0.224336325,0.376840508,0.372524396
0.026361609,0.224174226,0.376793626,0.37267054
0.026423715,0.224012867,0.376747339,0.372816079
0.026485093,0.223852239,0.376701648,0.37296102
0.026545744,0.223692331,0.376656557,0.373105368
0.026605672,0.223533133,0.376612068,0.373249126
0.02666488,0.223374634,0.376568183,0.373392302
0.026723371,0.223216824,0.376524905,0.3735349
0.026781148,0.223059692,0.376482234,0.373676926
0.026838214,0.222903229,0.37644017,0.373818387
0.026894572,0.222747424,0.376398714,0.373959291
0.026950224,0.222592268,0.376357863,0.374099645
0.027005176,0.222437754,0.376317614,0.374239456
0.027059428,0.222283875,0.376277963,0.374378733
0.027112986,0.222130624,0.376238906,0.374517485
0.027165853,0.221977993,0.376200435,0.37465572
0.027218031,0.221825973,0.376162543,0.374793453
0.027269526,0.221674556,0.376125221,0.374930698
0.027320339,0.221523732,0.376088456,0.375067473
0.027370474,0.221373493,0.376052236,0.375203797
0.027419934,0.221223829,0.37601655,0.375339688
0.027468722,0.221074731,0.375981384,0.375475164
0.02751684,0.22092619,0.375946726,0.375610245
0.027564291,0.220778198,0.375912562,0.37574495
0.027611078,0.220630746,0.37587888,0.375879296
0.027657204,0.220483827,0.375845667,0.376013303
0.027702672,0.220337431,0.375812909,0.376146988
0.027747485,0.22019155,0.375780596,0.376280369
0.027791647,0.220046177,0.375748715,0.376413462
0.027835161,0.219901306,0.375717253,0.376546281
0.02787803,0.219756931,0.375686197,0.376678842
0.02792026,0.219613047,0.375655533,0.376811161
0.027961853,0.219469648,0.375625244,0.376943254
0.028002814,0.219326729,0.375595318,0.377075139
0.028043147,0.219184285,0.375565737,0.377206831
0.028082856,0.21904231,0.375536487,0.377338347
0.028121946,0.218900801,0.375507553,0.377469701
0.028160422,0.218759751,0.375478918,0.37760091
0.028198289,0.218619155,0.375450567,0.377731989
0.028235552,0.218479007,0.375422485,0.377862955
0.028272217,0.218339303,0.375394658,0.377993822
0.028308286,0.218200036,0.375367072,0.378124606
0.028343766,0.218061201,0.375339712,0.378255321
0.028378661,0.217922791,0.375312566,0.378385982
0.028412976,0.217784799,0.37528562,0.378516605
0.028446715,0.21764722,0.375258863,0.378647202
0.028479884,0.217510048,0.375232282,0.378777787
0.028512486,0.217373279,0.375205865,0.378908369
0.028544528,0.21723691,0.375179603,0.379038959
0.028576012,0.217100936,0.375153486,0.379169566
0.028606944,0.216965356,0.375127503,0.379300197
0.028637327,0.216830169,0.375101646,0.379430858
0.028667166,0.216695374,0.375075904,0.379561556
0.028696464,0.216560972,0.375050268,0.379692296
0.028725226,0.216426963,0.375024728,0.379823084
0.028753456,0.216293348,0.374999273,0.379953923
0.028781158,0.216160127,0.374973897,0.380084818
0.028808338,0.216027301,0.37494859,0.380215771
0.028834998,0.215894871,0.374923347,0.380346784
0.028861142,0.215762839,0.374898161,0.380477857
0.028886776,0.215631206,0.374873026,0.380608991
0.028911903,0.215499977,0.374847934,0.380740186
0.028936527,0.215369155,0.374822878,0.38087144
0.028960652,0.215238748,0.374797852,0.381002749
0.02898428,0.215108761,0.374772849,0.38113411
0.029007416,0.214979199,0.374747864,0.381265521
0.029030064,0.214850068,0.37472289,0.381396979
0.029052227,0.214721374,0.374697919,0.38152848
0.029073908,0.214593125,0.374672944,0.381660023
0.029095112,0.214465325,0.374647957,0.381791605
0.029115843,0.214337982,0.374622952,0.381923223
0.029136104,0.214211099,0.374597924,0.382054874
0.029155899,0.214084682,0.374572868,0.382186552
0.029175232,0.213958734,0.37454778,0.382318254
0.029194106,0.21383326,0.374522658,0.382449976
0.029212526,0.213708264,0.374497497,0.382581713
0.029230494,0.213583751,0.374472294,0.382713461
0.029248014,0.213459725,0.374447046,0.382845215
0.02926509,0.213336192,0.37442175,0.382976968
0.029281724,0.213213157,0.374396404,0.383108715
0.029297921,0.213090626,0.374371007,0.383240446
0.029313682,0.212968605,0.374345559,0.383372154
0.02932901,0.212847096,0.374320063,0.38350383
0.02934391,0.212726105,0.374294519,0.383635465
0.029358383,0.212605635,0.374268932,0.38376705
0.029372432,0.21248569,0.374243305,0.383898573
0.02938606,0.212366273,0.374217643,0.384030025
0.029399269,0.212247387,0.374191949,0.384161394
0.029412064,0.212129037,0.374166228,0.384292672
0.029424445,0.212011224,0.374140485,0.384423847
0.029436416,0.211893953,0.374114722,0.384554908
0.029447981,0.211777228,0.374088945,0.384685846
0.02945914,0.211661054,0.374063157,0.384816649
0.029469898,0.211545437,0.374037362,0.384947304
0.029480256,0.21143038,0.374011562,0.385077802
0.029490218,0.211315889,0.37398576,0.385208133
0.029499786,0.21120197,0.373959957,0.385338287
0.029508963,0.211088628,0.373934152,0.385468257
0.029517753,0.210975869,0.373908343,0.385598035
0.029526157,0.210863699,0.373882527,0.385727617
0.029534178,0.210752125,0.3738567,0.385856997
0.029541819,0.210641152,0.373830858,0.385986171
0.029549083,0.210530786,0.373804997,0.386115134
0.029555973,0.210421032,0.373779115,0.38624388
0.029562491,0.210311897,0.373753208,0.386372404
0.029568641,0.210203384,0.373727273,0.386500701
0.029574426,0.2100955,0.373701308,0.386628766
0.029579849,0.209988247,0.37367531,0.386756594
0.029584912,0.209881631,0.373649276,0.386884181
0.029589619,0.209775654,0.373623201,0.387011525
0.029593974,0.209670322,0.373597083,0.387138622
0.029597979,0.209565637,0.373570917,0.387265467
0.029601637,0.209461604,0.373544699,0.38739206
0.029604951,0.209358228,0.373518424,0.387518397
0.029607925,0.209255513,0.373492084,0.387644478
0.02961056,0.209153464,0.373465673,0.387770302
0.02961286,0.209052087,0.373439185,0.387895868
0.029614828,0.208951385,0.373412612,0.388021175
0.029616466,0.208851363,0.373385949,0.388146222
0.029617776,0.208752024,0.373359191,0.388271009
0.029618761,0.208653372,0.373332334,0.388395532
0.029619425,0.20855541,0.373305379,0.388519786
0.029619768,0.208458141,0.373278326,0.388643766
0.029619792,0.208361568,0.373251175,0.388767464
0.0296195,0.208265696,0.373223932,0.388890872
0.029618893,0.208170527,0.373196599,0.38901398
0.029617973,0.208076063,0.373169186,0.389136779
0.02961674,0.207982305,0.373141696,0.389259259
0.029615195,0.207889253,0.373114138,0.389381415
0.02961334,0.207796907,0.373086515,0.389503238
0.029611175,0.207705265,0.373058836,0.389624724
0.029608703,0.207614327,0.373031106,0.389745864
0.029605922,0.207524091,0.373003335,0.389866652
0.029602835,0.207434555,0.37297553,0.38998708
0.029599442,0.207345719,0.3729477,0.390107139
0.029595744,0.207257578,0.372919855,0.390226823
0.029591742,0.207170131,0.372892003,0.390346124
0.029587436,0.207083373,0.372864155,0.390465036
0.029582828,0.2069973,0.372836319,0.390583553
0.029577919,0.20691191,0.372808504,0.390701667
0.02957271,0.206827197,0.372780721,0.390819372
0.029567202,0.206743159,0.372752981,0.390936659
0.029561397,0.20665979,0.372725292,0.391053521
0.029555295,0.206577088,0.372697664,0.391169953
0.029548899,0.206495049,0.372670106,0.391285947
0.029542209,0.206413666,0.372642625,0.391401499
0.029535227,0.206332938,0.372615231,0.391516604
0.029527955,0.206252858,0.37258793,0.391631258
0.029520392,0.206173421,0.37256073,0.391745457
0.029512541,0.206094622,0.372533637,0.3918592
0.029504403,0.206016454,0.372506659,0.391972484
0.029495978,0.205938912,0.372479804,0.392085306
0.029487268,0.205861988,0.372453082,0.392197662
0.029478275,0.205785674,0.372426503,0.392309548
0.029468997,0.205709963,0.372400081,0.392420958
0.029459438,0.205634846,0.372373829,0.392531887
0.029449597,0.205560316,0.372347761,0.392642326
0.029439476,0.205486367,0.372321892,0.392752266
0.029429075,0.205412992,0.372296236,0.392861696
0.029418396,0.205340187,0.372270809,0.392970608
0.029407439,0.205267945,0.372245625,0.393078991
0.029396206,0.20519626,0.3722207,0.393186835
0.029384697,0.205125127,0.372196047,0.393294129
0.029372914,0.20505454,0.372171681,0.393400864
0.029360859,0.204984493,0.372147618,0.39350703
0.029348531,0.204914981,0.372123871,0.393612618
0.029335932,0.204845995,0.372100454,0.393717619
0.029323064,0.204777529,0.372077383,0.393822023
0.029309929,0.204709575,0.372054672,0.393925825
0.029296528,0.204642125,0.372032334,0.394029014
0.029282864,0.204575169,0.372010385,0.394131582
0.029268939,0.204508699,0.37198884,0.394233521
0.029254755,0.204442706,0.371967717,0.394334822
0.029240314,0.20437718,0.371947029,0.394435476
0.029225619,0.204312114,0.371926793,0.394535474
0.02921067,0.2042475,0.371907024,0.394634806
0.029195471,0.204183333,0.371887735,0.394733462
0.029180022,0.204119606,0.371868939,0.394831433
0.029164327,0.204056315,0.37185065,0.394928708
0.029148386,0.203993457,0.371832879,0.395025278
0.029132202,0.203931027,0.371815638,0.395121133
0.029115777,0.203869023,0.371798938,0.395216263
0.029099112,0.203807439,0.371782791,0.395310658
0.02908221,0.203746273,0.371767208,0.395404309
0.029065072,0.203685521,0.3717522,0.395497207
0.029047701,0.203625178,0.371737777,0.395589344
0.029030097,0.20356524,0.37172395,0.395680712
0.029012264,0.203505702,0.37171073,0.395771303
0.028994203,0.203446561,0.371698128,0.395861108
0.028975916,0.203387811,0.371686154,0.395950119
0.028957405,0.203329447,0.37167482,0.396038328
0.02893867,0.203271465,0.371664138,0.396125726
0.028919715,0.20321386,0.371654122,0.396212303
0.028900539,0.203156629,0.371644784,0.396298048
0.028881144,0.203099766,0.371636137,0.396382953
0.028861533,0.203043266,0.371628193,0.396467008
0.028841706,0.202987126,0.371620963,0.396550206
0.028821665,0.202931337,0.371614455,0.396632543
0.028801413,0.202875895,0.371608678,0.396714013
0.028780951,0.202820794,0.371603639,0.396794616
0.028760282,0.202766027,0.371599343,0.396874349
0.028739406,0.202711588,0.371595794,0.396953211
0.028718327,0.202657473,0.371592998,0.397031202
0.028697046,0.202603677,0.371590956,0.397108321
0.028675566,0.202550193,0.371589673,0.397184568
0.028653889,0.202497018,0.371589151,0.397259942
0.028632018,0.202444148,0.371589391,0.397334443
0.028609954,0.202391578,0.371590397,0.397408071
0.028587702,0.202339303,0.371592169,0.397480826
0.028565262,0.202287319,0.371594712,0.397552707
0.028542639,0.202235621,0.371598026,0.397623715
0.028519833,0.202184202,0.371602114,0.397693851
0.028496847,0.202133057,0.371606981,0.397763115
0.028473684,0.202082179,0.371612628,0.397831508
0.028450345,0.20203156,0.371619062,0.397899033
0.028426832,0.201981192,0.371626284,0.397965691
0.028403146,0.201931067,0.371634301,0.398031486
0.02837929,0.201881174,0.371643115,0.398096421
0.028355265,0.201831508,0.371652729,0.398160498
0.028331074,0.201782059,0.371663147,0.39822372
0.028306718,0.20173282,0.371674373,0.398286089
0.028282199,0.201683782,0.371686412,0.398347607
0.028257519,0.201634938,0.371699266,0.398408277
0.028232681,0.20158628,0.371712939,0.398468101
0.028207686,0.201537799,0.371727434,0.398527082
0.028182535,0.201489488,0.371742754,0.398585223
0.028157232,0.201441339,0.371758901,0.398642528
0.028131779,0.201393346,0.371775876,0.398699
0.028106176,0.2013455,0.371793683,0.398754641
0.028080427,0.201297796,0.371812325,0.398809452
0.028054532,0.201250229,0.371831806,0.398863433
0.028028495,0.201202792,0.37185213,0.398916583
0.028002317,0.20115548,0.371873303,0.3989689
0.027976,0.201108291,0.371895327,0.399020382
0.027949546,0.201061218,0.371918207,0.39907103
0.027922956,0.201014258,0.371941946,0.399120841
0.027896232,0.200967405,0.371966547,0.399169816
0.027869376,0.200920656,0.371992012,0.399217955
0.02784239,0.200874007,0.372018343,0.39926526
0.027815276,0.200827453,0.372045538,0.399311733
0.027788034,0.20078099,0.372073597,0.399357379
0.027760666,0.200734615,0.372102515,0.399402204
0.027733173,0.200688322,0.372132291,0.399446214
0.027705557,0.200642109,0.372162921,0.399489413
0.027677819,0.200595973,0.372194401,0.399531807
0.027649961,0.20054991,0.372226728,0.399573401
0.027621983,0.200503919,0.372259899,0.399614198
0.027593888,0.200457999,0.37229391,0.399654203
0.027565676,0.200412147,0.372328758,0.399693419
0.027537348,0.200366363,0.372364439,0.399731849
0.027508908,0.200320644,0.372400949,0.399769499
0.027480354,0.200274989,0.372438284,0.399806372
0.02745169,0.200229395,0.37247644,0.399842475
0.027422917,0.200183859,0.372515411,0.399877813
0.027394035,0.200138379,0.372555194,0.399912392
0.027365048,0.200092951,0.372595781,0.399946219
0.027335956,0.200047572,0.372637167,0.399979305
0.027306761,0.200002239,0.372679342,0.400011658
0.027277465,0.199956947,0.372722299,0.400043289
0.027248071,0.199911695,0.372766027,0.400074208
0.027218579,0.199866478,0.372810517,0.400104426
0.027188992,0.199821296,0.37285576,0.400133952
0.027159311,0.199776146,0.372901747,0.400162796
0.027129539,0.199731026,0.372948468,0.400190967
0.027099677,0.199685934,0.372995913,0.400218476
0.027069726,0.199640868,0.373044073,0.400245333
0.027039689,0.199595824,0.373092939,0.400271547
0.027009568,0.199550802,0.373142502,0.400297128
0.026979363,0.199505798,0.373192753,0.400322087
0.026949077,0.19946081,0.373243681,0.400346433
0.026918711,0.199415835,0.373295277,0.400370177
0.026888268,0.19937087,0.373347532,0.40039333
0.026857748,0.199325914,0.373400435,0.400415904
0.026827154,0.199280963,0.373453975,0.400437908
0.026796487,0.199236016,0.373508143,0.400459354
0.026765749,0.199191072,0.373562928,0.40048025
0.026734942,0.19914613,0.373618323,0.400500604
0.026704068,0.199101192,0.37367432,0.40052042
0.026673127,0.199056258,0.373730911,0.400539703
0.026642123,0.199011331,0.373788092,0.400558455
0.026611055,0.198966412,0.373845859,0.400576674
0.026579926,0.198921503,0.373904208,0.400594363
0.026548737,0.198876604,0.373963137,0.400611522
0.026517489,0.198831718,0.374022642,0.400628151
0.026486185,0.198786844,0.374082721,0.40064425
0.026454825,0.198741984,0.37414337,0.400659821
0.02642341,0.198697139,0.374204586,0.400674864
0.026391944,0.19865231,0.374266366,0.40068938
0.026360425,0.198607498,0.374328706,0.40070337
0.026328857,0.198562706,0.374391602,0.400716835
0.02629724,0.198517935,0.37445505,0.400729775
0.026265575,0.198473189,0.374519045,0.40074219
0.026233864,0.198428468,0.374583585,0.400754082
0.026202109,0.198383776,0.374648665,0.40076545
0.026170309,0.198339115,0.374714278,0.400776297
0.026138468,0.198294486,0.374780422,0.400786624
0.026106585,0.198249893,0.37484709,0.400796432
0.026074664,0.198205337,0.374914277,0.400805722
0.026042705,0.198160821,0.374981979,0.400814495
0.02601071,0.198116347,0.375050192,0.400822751
0.02597868,0.198071919,0.37511891,0.400830491
0.025946618,0.198027537,0.37518813,0.400837715
0.025914525,0.197983206,0.375257844,0.400844424
0.025882403,0.197938927,0.375328048,0.400850622
0.025850252,0.197894704,0.375398735,0.400856309
0.025818076,0.197850537,0.375469897,0.40086149
0.025785874,0.197806428,0.375541528,0.40086617
0.025753649,0.19776238,0.375613619,0.400870352
0.025721402,0.197718391,0.375686165,0.400874043
0.025689134,0.197674462,0.375759158,0.400877246
0.025656847,0.197630595,0.375832591,0.400879967
0.025624542,0.197586789,0.375906459,0.400882211
0.025592221,0.197543043,0.375980756,0.40088398
0.025559885,0.19749936,0.376055477,0.400885279
0.025527535,0.197455737,0.376130619,0.400886109
0.025495173,0.197412176,0.376206177,0.400886474
0.0254628,0.197368676,0.376282148,0.400886376
0.025430418,0.197325236,0.376358529,0.400885818
0.025398027,0.197281856,0.376435316,0.400884801
0.02536563,0.197238534,0.376512508,0.400883327
0.025333228,0.197195271,0.376590102,0.400881399
0.025300822,0.197152066,0.376668096,0.400879016
0.025268413,0.197108918,0.376746487,0.400876182
0.025236004,0.197065827,0.376825273,0.400872896
0.025203595,0.197022792,0.376904452,0.400869161
0.025171188,0.196979815,0.376984018,0.400864978
0.025138785,0.196936898,0.377063968,0.400860349
0.025106386,0.196894041,0.377144298,0.400855275
0.025073992,0.196851248,0.377225002,0.400849758
0.025041605,0.196808519,0.377306076,0.4008438
0.025009226,0.196765858,0.377387515,0.400837401
0.024976855,0.196723266,0.377469316,0.400830563
0.024944493,0.196680746,0.377551474,0.400823286
0.024912142,0.196638302,0.377633986,0.400815569
0.024879802,0.196595938,0.377716849,0.400807411
0.024847473,0.196553658,0.377800061,0.400798807
0.024815157,0.196511469,0.377883618,0.400789756
0.024782854,0.196469374,0.377967518,0.400780253
0.024750565,0.196427381,0.378051757,0.400770296
0.024718291,0.196385495,0.378136331,0.400759883
0.024686033,0.196343725,0.378221233,0.400749009
0.024653791,0.196302076,0.37830646,0.400737673
0.024621566,0.196260557,0.378392005,0.400725872
0.02458936,0.196219175,0.378477863,0.400713603
0.024557172,0.196177936,0.378564028,0.400700864
0.024525003,0.196136848,0.378650494,0.400687654
0.024492855,0.196095918,0.378737255,0.400673972
0.024460729,0.196055153,0.378824304,0.400659815
0.024428624,0.196014558,0.378911633,0.400645184
