0.011205791,0.130868501,0.015928389,0.026863747
0.011195404,0.130885114,0.015911058,0.026868009
0.011184941,0.130902812,0.015893891,0.02687232
0.011174406,0.130921607,0.01587689,0.026876682
0.011163804,0.130941511,0.015860057,0.026881096
0.011153139,0.130962534,0.015843392,0.026885563
0.011142414,0.130984685,0.015826897,0.026890085
0.011131634,0.131007975,0.015810574,0.026894664
0.011120803,0.131032411,0.015794423,0.0268993
0.011109924,0.131058004,0.015778446,0.026903995
0.011099001,0.131084762,0.015762642,0.02690875
0.011088039,0.131112696,0.015747014,0.026913568
0.011077041,0.131141814,0.015731562,0.026918448
0.011066011,0.131172128,0.015716288,0.026923394
0.011054953,0.131203649,0.015701192,0.026928405
0.011043871,0.131236387,0.015686276,0.026933483
0.011032769,0.131270354,0.015671542,0.02693863
0.011021651,0.131305561,0.015656991,0.026943846
0.01101052,0.131342017,0.015642623,0.026949132
0.010999383,0.131379733,0.015628441,0.026954489
0.010988243,0.131418718,0.015614445,0.026959918
0.010977104,0.131458981,0.015600637,0.026965419
0.010965972,0.131500532,0.015587018,0.026970994
0.010954852,0.131543381,0.015573587,0.026976643
0.010943747,0.131587535,0.015560347,0.026982367
0.010932663,0.131633003,0.015547298,0.026988167
0.010921606,0.131679792,0.01553444,0.026994042
0.010910579,0.13172791,0.015521774,0.026999995
0.010899587,0.131777363,0.015509301,0.027006024
0.010888637,0.131828159,0.015497022,0.027012131
0.010877732,0.131880302,0.015484936,0.027018316
0.010866877,0.131933802,0.015473046,0.02702458
0.010856078,0.131988664,0.015461352,0.027030923
0.01084534,0.132044895,0.015449855,0.027037345
0.010834668,0.132102501,0.015438555,0.027043848
0.010824067,0.132161487,0.015427454,0.027050432
0.010813541,0.132221858,0.015416553,0.027057098
0.010803095,0.132283617,0.015405852,0.027063846
0.010792734,0.132346768,0.015395352,0.027070677
0.010782463,0.132411316,0.015385054,0.02707759
0.010772286,0.132477262,0.015374957,0.027084587
0.010762208,0.132544609,0.015365064,0.027091668
0.010752233,0.132613361,0.015355372,0.027098833
0.010742364,0.132683517,0.015345883,0.027106082
0.010732608,0.132755082,0.015336598,0.027113415
0.010722966,0.132828056,0.015327515,0.027120832
0.010713445,0.132902441,0.015318636,0.027128333
0.010704046,0.13297824,0.015309961,0.027135918
0.010694776,0.133055455,0.015301491,0.027143588
0.010685637,0.133134088,0.015293225,0.027151342
0.010676633,0.133214142,0.015285165,0.027159181
0.010667769,0.133295617,0.015277311,0.027167105
0.010659048,0.133378517,0.015269663,0.027175114
0.010650475,0.133462844,0.015262221,0.02718321
0.010642053,0.1335486,0.015254986,0.027191391
0.010633785,0.133635791,0.015247957,0.027199659
0.010625677,0.13372442,0.015241136,0.027208014
0.010617733,0.133814492,0.01523452,0.027216455
0.010609955,0.13390601,0.015228112,0.027224984
0.010602348,0.133998978,0.01522191,0.027233601
0.010594916,0.134093398,0.015215914,0.027242306
0.010587662,0.134189272,0.015210125,0.0272511
0.010580591,0.134286604,0.015204543,0.027259983
0.010573707,0.134385395,0.015199167,0.027268956
0.010567012,0.134485647,0.015193998,0.027278019
0.010560512,0.134587362,0.015189037,0.027287172
0.010554209,0.134690544,0.015184284,0.027296416
0.010548108,0.134795194,0.015179739,0.027305752
0.010542213,0.134901319,0.015175404,0.027315178
0.010536527,0.13500892,0.015171277,0.027324697
0.010531055,0.135118004,0.015167361,0.027334308
0.010525801,0.135228572,0.015163654,0.027344012
0.010520768,0.135340628,0.015160158,0.027353809
0.010515961,0.135454175,0.015156871,0.0273637
0.010511384,0.135569216,0.015153794,0.027373684
0.010507041,0.135685755,0.015150927,0.027383762
0.010502936,0.135803798,0.01514827,0.027393934
0.010499073,0.135923349,0.015145822,0.027404202
0.010495458,0.136044414,0.015143583,0.027414567
0.010492095,0.136166998,0.015141552,0.02742503
0.010488987,0.136291105,0.015139731,0.027435595
0.010486139,0.136416739,0.015138118,0.027446263
0.010483557,0.136543906,0.015136713,0.027457038
0.010481245,0.136672612,0.015135517,0.027467924
0.010479208,0.136802863,0.015134531,0.027478923
0.010477451,0.136934665,0.015133753,0.027490039
0.010475979,0.137068025,0.015133186,0.027501278
0.010474797,0.137202949,0.015132827,0.027512642
0.010473911,0.137339442,0.015132678,0.027524135
0.010473326,0.13747751,0.015132739,0.027535761
0.010473048,0.137617158,0.015133008,0.027547524
0.010473081,0.137758392,0.015133486,0.027559429
0.010473431,0.137901218,0.015134173,0.027571478
0.010474104,0.138045641,0.015135068,0.027583676
0.010475105,0.138191663,0.01513617,0.027596027
0.010476439,0.138339289,0.015137478,0.027608534
0.010478111,0.138488521,0.015138993,0.027621202
0.010480127,0.138639361,0.015140714,0.027634034
0.010482492,0.138791811,0.01514264,0.027647034
0.01048521,0.138945875,0.015144771,0.027660205
0.010488288,0.139101555,0.015147107,0.027673553
0.01049173,0.139258853,0.015149647,0.027687079
0.010495542,0.139417773,0.015152391,0.027700789
0.010499729,0.139578315,0.015155338,0.027714686
0.010504297,0.139740481,0.015158488,0.027728772
0.010509249,0.139904272,0.015161841,0.027743053
0.010514592,0.140069688,0.015165395,0.027757531
0.01052033,0.140236729,0.01516915,0.027772209
0.010526468,0.140405396,0.015173104,0.027787092
0.010533012,0.140575688,0.015177258,0.027802183
0.010539967,0.140747605,0.01518161,0.027817485
0.010547336,0.140921146,0.015186159,0.027833003
0.010555126,0.141096309,0.015190904,0.027848738
0.010563341,0.141273093,0.015195844,0.027864696
0.010571984,0.141451496,0.015200978,0.027880878
0.010581062,0.141631517,0.015206305,0.027897289
0.010590578,0.141813155,0.015211825,0.02791393
0.010600536,0.141996409,0.015217536,0.027930807
0.010610942,0.14218128,0.015223438,0.027947921
0.010621798,0.142367765,0.01522953,0.027965276
0.01063311,0.142555864,0.015235811,0.027982874
0.010644882,0.142745573,0.015242281,0.028000719
0.010657116,0.142936891,0.015248938,0.028018814
0.010669818,0.143129814,0.015255781,0.02803716
0.010682989,0.143324338,0.01526281,0.028055762
0.010696634,0.143520462,0.015270022,0.02807462
0.010710756,0.143718181,0.015277418,0.028093738
0.010725359,0.143917492,0.015284994,0.028113118
0.010740444,0.144118392,0.015292751,0.028132763
0.010756017,0.144320877,0.015300686,0.028152673
0.010772079,0.144524943,0.015308799,0.028172851
0.010788634,0.144730584,0.015317087,0.028193299
0.010805684,0.144937797,0.015325552,0.028214019
0.010823234,0.145146577,0.01533419,0.028235012
0.010841285,0.145356922,0.015343002,0.028256281
0.01085984,0.145568827,0.015351987,0.028277827
0.010878904,0.145782289,0.015361143,0.028299651
0.010898478,0.145997302,0.01537047,0.028321756
0.010918565,0.146213862,0.015379967,0.028344142
0.010939169,0.146431961,0.015389633,0.028366812
0.010960292,0.146651595,0.015399466,0.028389766
0.010981937,0.146872758,0.015409466,0.028413006
0.011004105,0.147095444,0.01541963,0.028436533
0.011026801,0.147319647,0.015429957,0.028460348
0.011050025,0.147545362,0.015440446,0.028484452
0.011073782,0.147772582,0.015451096,0.028508847
0.011098072,0.148001301,0.015461904,0.028533531
0.011122898,0.148231513,0.015472869,0.028558507
0.011148263,0.148463211,0.01548399,0.028583775
0.011174168,0.148696389,0.015495265,0.028609336
0.011200617,0.148931043,0.015506694,0.028635189
0.01122761,0.149167167,0.015518275,0.028661337
0.01125515,0.149404756,0.015530007,0.028687779
0.011283239,0.149643805,0.015541888,0.028714516
0.011311878,0.149884306,0.015553919,0.02874155
0.01134107,0.150126254,0.015566097,0.028768879
0.011370814,0.150369641,0.015578421,0.028796505
0.011401114,0.15061446,0.015590889,0.028824427
0.01143197,0.150860706,0.015603501,0.028852646
0.011463385,0.151108373,0.015616254,0.028881163
0.011495358,0.151357452,0.015629149,0.028909977
0.011527892,0.151607938,0.015642182,0.028939088
0.011560988,0.151859823,0.015655353,0.028968495
0.011594647,0.152113099,0.015668661,0.0289982
0.011628871,0.152367759,0.015682104,0.029028202
0.01166366,0.152623797,0.015695681,0.0290585
0.011699015,0.152881205,0.015709391,0.029089095
0.011734938,0.153139976,0.015723235,0.029119987
0.011771429,0.153400102,0.01573721,0.029151175
0.011808488,0.153661576,0.015751317,0.029182659
0.011846117,0.153924387,0.015765555,0.029214439
0.011884316,0.154188527,0.015779922,0.029246515
0.011923085,0.154453986,0.015794418,0.029278887
0.011962424,0.154720754,0.015809042,0.029311553
0.012002335,0.154988822,0.015823793,0.029344515
0.012042818,0.15525818,0.015838671,0.029377771
0.012083872,0.15552882,0.015853673,0.029411323
0.012125498,0.15580073,0.015868799,0.029445168
0.012167696,0.156073902,0.015884049,0.029479308
0.012210467,0.156348325,0.015899421,0.029513741
0.012253809,0.156623988,0.015914913,0.029548467
0.012297725,0.15690088,0.015930526,0.029583486
0.012342212,0.15717899,0.015946257,0.029618797
0.012387271,0.157458307,0.015962107,0.029654399
0.012432902,0.15773882,0.015978075,0.029690293
0.012479103,0.158020519,0.01599416,0.029726478
0.012525876,0.158303394,0.016010362,0.029762953
0.012573218,0.158587433,0.016026683,0.029799719
0.01262113,0.158872625,0.016043122,0.029836773
0.01266961,0.159158958,0.016059679,0.029874117
0.012718658,0.15944642,0.016076355,0.02991175
0.012768273,0.159735,0.01609315,0.029949671
0.012818455,0.160024683,0.016110066,0.02998788
0.012869201,0.160315457,0.016127102,0.030026378
0.012920513,0.160607307,0.016144259,0.030065162
0.012972388,0.16090022,0.016161538,0.030104233
0.013024825,0.161194183,0.016178941,0.030143591
0.013077824,0.161489183,0.016196468,0.030183235
0.013131383,0.161785207,0.016214119,0.030223165
0.013185502,0.162082246,0.016231897,0.03026338
0.013240178,0.162380287,0.016249802,0.03030388
0.013295412,0.162679323,0.016267835,0.030344665
0.013351201,0.162979342,0.016286,0.030385735
0.013407543,0.163280334,0.016304298,0.030427089
0.013464438,0.16358229,0.016322734,0.030468728
0.013521885,0.163885199,0.016341312,0.03051065
0.01357988,0.164189054,0.016360035,0.030552855
0.013638423,0.164493846,0.01637891,0.030595343
0.013697513,0.164799569,0.016397942,0.030638112
0.013757148,0.165106215,0.016417139,0.030681163
0.013817327,0.165413777,0.016436508,0.030724495
0.013878049,0.165722249,0.016456061,0.030768107
0.013939313,0.166031623,0.016475809,0.030811998
0.014001116,0.166341896,0.016495765,0.030856169
0.01406346,0.166653064,0.016515944,0.030900618
0.014126343,0.166965125,0.016536358,0.030945347
0.014189764,0.167278078,0.016557023,0.030990354
0.014253723,0.167591924,0.016577953,0.031035641
0.014318219,0.167906662,0.016599163,0.031081209
0.014383252,0.168222291,0.016620669,0.031127058
0.014448821,0.168538809,0.016642486,0.031173192
0.014514925,0.168856214,0.01666463,0.031219613
0.014581562,0.169174504,0.016687116,0.031266323
0.014648733,0.169493676,0.016709961,0.031313325
0.014716435,0.169813729,0.016733179,0.031360622
0.014784668,0.17013466,0.016756786,0.031408219
0.014853429,0.170456469,0.016780798,0.031456118
0.014922717,0.170779151,0.01680523,0.031504325
0.014992531,0.171102706,0.016830097,0.031552843
0.015062868,0.171427128,0.016855415,0.031601678
0.015133727,0.171752417,0.016881199,0.031650833
0.015205106,0.172078569,0.016907465,0.031700312
0.015277003,0.172405584,0.016934228,0.03175012
0.015349417,0.172733459,0.016961506,0.031800261
0.015422344,0.173062194,0.016989315,0.031850737
0.015495782,0.173391787,0.017017672,0.031901553
0.01556973,0.173722236,0.017046594,0.031952712
0.015644184,0.174053539,0.017076099,0.03200422
0.015719142,0.174385692,0.017106204,0.03205608
0.015794602,0.174718693,0.017136929,0.032108298
0.015870562,0.175052535,0.017168291,0.032160877
0.015947018,0.175387217,0.01720031,0.032213822
0.016023969,0.17572273,0.017233006,0.032267139
0.016101414,0.176059071,0.017266398,0.032320831
0.016179348,0.176396232,0.017300506,0.032374905
0.01625777,0.176734206,0.017335349,0.032429365
0.016336679,0.177072986,0.017370945,0.032484216
0.016416072,0.177412565,0.017407314,0.032539465
0.016495947,0.177752935,0.017444473,0.032595117
0.016576302,0.178094091,0.017482441,0.032651179
0.016657135,0.178436024,0.017521235,0.032707657
0.016738444,0.178778729,0.017560876,0.032764557
0.016820227,0.179122199,0.01760138,0.032821885
0.016902481,0.179466426,0.017642766,0.032879647
0.016985204,0.179811404,0.017685053,0.032937848
0.017068394,0.180157126,0.017728259,0.032996493
0.017152048,0.180503585,0.017772404,0.033055588
0.017236164,0.180850774,0.017817504,0.033115138
0.01732074,0.181198688,0.017863579,0.033175149
0.017405772,0.181547318,0.017910647,0.033235625
0.017491258,0.181896656,0.017958726,0.033296572
0.017577196,0.182246694,0.018007836,0.033357995
0.017663583,0.182597425,0.018057998,0.033419899
0.017750417,0.182948838,0.018109232,0.033482289
0.017837694,0.183300928,0.018161556,0.03354517
0.017925412,0.183653684,0.018214993,0.033608546
0.018013569,0.184007102,0.018269561,0.033672422
0.018102162,0.184361175,0.018325281,0.033736804
0.018191189,0.184715896,0.018382177,0.033801695
0.018280647,0.18507126,0.01844027,0.033867102
0.018370534,0.185427262,0.01849958,0.03393303
0.018460848,0.185783896,0.01856013,0.033999484
0.018551588,0.186141159,0.018621941,0.03406647
0.01864275,0.186499045,0.018685034,0.034133993
0.018734332,0.186857551,0.018749431,0.034202058
0.018826334,0.187216671,0.018815151,0.034270671
0.018918752,0.187576399,0.018882215,0.034339834
0.019011585,0.18793673,0.018950643,0.034409555
0.01910483,0.188297656,0.019020454,0.034479837
0.019198486,0.188659174,0.019091669,0.034550685
0.01929255,0.189021275,0.019164307,0.034622104
0.019387021,0.189383957,0.019238389,0.0346941
0.019481895,0.189747213,0.019313935,0.034766678
0.019577171,0.190111039,0.019390967,0.03483984
0.019672845,0.190475432,0.019469506,0.034913594
0.019768914,0.190840385,0.019549575,0.034987941
0.019865378,0.191205896,0.019631197,0.035062887
0.019962231,0.191571957,0.019714399,0.035138435
0.020059472,0.191938565,0.019799205,0.035214589
0.020157098,0.192305713,0.019885642,0.035291353
0.020255106,0.192673397,0.019973738,0.035368731
0.020353496,0.19304161,0.020063521,0.035446725
0.020452265,0.193410347,0.020155018,0.03552534
0.020551412,0.1937796,0.02024826,0.035604578
0.020650933,0.194149363,0.020343272,0.035684444
0.02075083,0.194519631,0.020440083,0.035764941
0.0208511,0.194890398,0.020538719,0.035846076
0.020951743,0.195261659,0.020639205,0.035927856
0.02105276,0.195633408,0.020741567,0.036010286
0.021154149,0.196005638,0.020845829,0.036093376
0.021255911,0.196378343,0.020952017,0.036177131
0.021358046,0.196751518,0.021060153,0.036261561
0.021460553,0.197125158,0.021170263,0.036346671
0.021563432,0.197499256,0.021282369,0.036432472
0.021666682,0.197873807,0.021396496,0.036518971
0.021770305,0.198248805,0.021512669,0.036606181
0.021874298,0.198624247,0.021630911,0.036694111
0.021978663,0.199000129,0.021751248,0.036782775
0.022083399,0.19937645,0.021873704,0.036872183
0.022188505,0.199753209,0.021998303,0.036962348
0.022293981,0.200130407,0.02212507,0.037053284
0.022399827,0.200508042,0.022254028,0.037145005
0.022506043,0.200886117,0.022385197,0.037237527
0.022612627,0.201264632,0.022518601,0.037330866
0.022719581,0.201643588,0.022654262,0.03742504
0.022826901,0.202022985,0.022792202,0.037520066
0.02293459,0.202402824,0.022932443,0.037615962
0.023042645,0.202783105,0.023075009,0.037712747
0.023151066,0.203163831,0.023219919,0.037810438
0.023259853,0.203545007,0.023367197,0.037909053
0.023369005,0.203926643,0.023516864,0.038008611
0.02347852,0.204308747,0.02366894,0.038109128
0.023588398,0.204691334,0.023823446,0.038210622
0.023698639,0.205074416,0.023980401,0.038313109
0.02380924,0.205458014,0.024139827,0.038416607
0.023920201,0.205842149,0.024301742,0.03852113
0.024031521,0.206226852,0.024466164,0.038626694
0.024143199,0.206612152,0.024633113,0.038733313
0.024255234,0.206998087,0.024802604,0.038841004
0.024367625,0.20738469,0.024974656,0.038949778
0.024480372,0.207771999,0.025149285,0.039059651
0.024593473,0.20816005,0.025326509,0.039170636
0.024706927,0.208548884,0.025506346,0.039282744
0.024820733,0.208938541,0.025688814,0.03939599
0.024934889,0.209329061,0.025873931,0.039510385
0.025049394,0.209720489,0.026061714,0.039625942
0.025164247,0.210112866,0.026252182,0.039742672
0.025279445,0.210506237,0.026445351,0.039860587
0.025394987,0.210900641,0.026641238,0.039979699
0.025510872,0.211296122,0.026839862,0.040100019
0.025627097,0.211692719,0.027041238,0.040221559
0.025743663,0.212090472,0.027245384,0.040344331
0.025860567,0.212489421,0.027452315,0.040468345
0.025977808,0.212889603,0.027662048,0.040593613
0.026095385,0.213291055,0.027874595,0.040720146
0.026213297,0.213693814,0.028089973,0.040847952
0.026331542,0.214097915,0.028308194,0.040977044
0.026450119,0.214503395,0.028529274,0.04110743
0.026569026,0.214910293,0.028753226,0.041239119
0.026688263,0.21531865,0.028980065,0.041372121
0.026807827,0.215728507,0.029209804,0.041506445
0.026927717,0.216139906,0.029442458,0.041642098
0.027047934,0.216552891,0.02967804,0.041779088
0.027168478,0.216967504,0.029916563,0.041917424
0.027289347,0.217383792,0.03015804,0.042057111
0.027410543,0.2178018,0.030402485,0.042198158
0.027532065,0.218221575,0.030649908,0.04234057
0.027653914,0.218643162,0.030900321,0.042484353
0.027776092,0.219066607,0.031153736,0.042629514
0.027898599,0.219491957,0.031410164,0.042776058
0.028021437,0.219919259,0.031669614,0.042923992
0.028144607,0.22034856,0.031932097,0.043073322
0.028268109,0.220779906,0.032197622,0.043224056
0.028391945,0.221213342,0.032466197,0.043376199
0.028516115,0.221648915,0.03273783,0.043529758
0.028640619,0.222086674,0.033012529,0.043684741
0.028765458,0.222526668,0.033290301,0.043841153
0.028890633,0.222968948,0.033571153,0.043999002
0.029016144,0.223413566,0.033855093,0.044158293
0.029141993,0.223860574,0.034142125,0.044319032
0.029268181,0.224310027,0.034432258,0.044481226
0.029394709,0.224761978,0.034725497,0.04464488
0.029521581,0.225216481,0.035021849,0.044809999
0.029648798,0.22567359,0.03532132,0.044976589
0.029776362,0.226133355,0.035623917,0.045144654
0.029904274,0.226595831,0.035929644,0.0453142
0.030032538,0.227061065,0.036238507,0.045485231
0.030161155,0.227529108,0.036550512,0.04565775
0.030290127,0.228000005,0.036865664,0.045831762
0.030419458,0.228473803,0.037183968,0.046007269
0.030549149,0.228950548,0.037505431,0.046184275
0.030679203,0.229430286,0.037830057,0.046362781
0.030809623,0.22991306,0.038157855,0.046542791
0.030940412,0.230398914,0.038488835,0.046724307
0.031071572,0.23088789,0.038823005,0.046907332
0.031203105,0.231380029,0.039160377,0.047091867
0.031335015,0.23187537,0.039500961,0.047277914
0.031467304,0.232373954,0.039844769,0.047465476
0.031599974,0.232875818,0.04019181,0.047654555
0.031733027,0.233380999,0.040542094,0.047845155
0.031866465,0.233889531,0.04089563,0.048037278
0.03200029,0.234401447,0.041252427,0.048230929
0.032134504,0.234916779,0.041612494,0.048426111
0.032269107,0.235435556,0.041975838,0.048622828
0.032404103,0.235957806,0.04234247,0.048821081
0.032539491,0.236483556,0.042712398,0.049020875
0.032675272,0.237012832,0.04308563,0.049222211
0.032811447,0.237545659,0.043462176,0.049425093
0.032948017,0.238082065,0.043842041,0.049629523
0.033084983,0.238622081,0.044225234,0.049835502
0.033222344,0.239165739,0.044611764,0.050043033
0.0333601,0.239713077,0.045001637,0.050252116
0.033498253,0.240264131,0.045394863,0.050462753
0.033636803,0.240818944,0.045791452,0.050674945
0.033775749,0.24137756,0.046191411,0.050888691
0.033915092,0.241940026,0.04659475,0.051103994
0.034054833,0.242506398,0.047001478,0.051320854
0.034194971,0.243076735,0.047411601,0.051539271
0.034335506,0.243651099,0.047825128,0.051759247
0.034476439,0.244229552,0.048242067,0.051980783
0.034617771,0.244812158,0.048662423,0.05220388
0.034759502,0.245398976,0.049086203,0.052428541
0.034901632,0.245990068,0.049513414,0.052654767
0.035044164,0.246585493,0.049944059,0.052882562
0.035187097,0.24718531,0.050378144,0.053111931
0.035330433,0.247789581,0.050815671,0.053342877
0.035474171,0.248398363,0.051256644,0.053575404
0.035618312,0.249011714,0.051701064,0.053809516
0.035762857,0.249629693,0.052148934,0.054045218
0.035907805,0.250252354,0.052600256,0.054282513
0.036053157,0.250879753,0.053055032,0.054521403
0.036198911,0.251511945,0.053513264,0.054761891
0.036345069,0.252148981,0.053974952,0.05500398
0.036491629,0.252790911,0.054440099,0.055247672
0.03663859,0.253437784,0.054908704,0.055492969
0.036785952,0.254089646,0.055380767,0.055739874
0.036933714,0.254746544,0.055856288,0.055988388
0.037081874,0.255408518,0.056335266,0.056238512
0.037230432,0.256075612,0.056817698,0.056490248
0.037379385,0.256747863,0.057303583,0.056743597
0.037528733,0.257425311,0.057792919,0.056998559
0.037678474,0.258107992,0.058285704,0.057255134
0.037828605,0.258795943,0.058781936,0.057513322
0.037979125,0.259489197,0.059281611,0.057773122
0.038130033,0.260187788,0.059784726,0.058034535
0.038281326,0.260891746,0.060291278,0.05829756
0.038433003,0.261601103,0.060801261,0.058562197
0.03858506,0.262315883,0.061314669,0.058828445
0.038737498,0.263036113,0.061831495,0.059096304
0.038890315,0.263761814,0.062351735,0.059365773
0.039043509,0.264493008,0.062875379,0.059636851
0.03919708,0.265229714,0.06340242,0.059909536
0.039351026,0.265971948,0.063932852,0.060183828
0.039505349,0.266719727,0.064466667,0.060459726
0.039660047,0.267473067,0.065003858,0.060737228
0.039815122,0.268231982,0.065544417,0.061016334
0.039970574,0.268996486,0.066088336,0.061297043
0.040126405,0.269766591,0.066635606,0.061579355
0.040282618,0.270542306,0.067186217,0.06186327
0.040439215,0.271323641,0.06774016,0.062148789
0.040596199,0.272110603,0.068297423,0.062435911
0.040753572,0.272903197,0.068857995,0.062724637
0.040911339,0.273701424,0.069421865,0.063014966
0.0410695,0.274505287,0.06998902,0.063306898
0.04122806,0.275314784,0.070559449,0.063600434
0.04138702,0.276129913,0.07113314,0.063895574
0.041546384,0.27695067,0.071710081,0.064192319
0.041706155,0.277777051,0.072290264,0.064490669
0.041866337,0.278609049,0.072873679,0.064790627
0.042026934,0.279446658,0.073460317,0.065092192
0.042187949,0.280289869,0.074050172,0.065395369
0.042349384,0.281138672,0.074643238,0.065700159
0.042511243,0.281993055,0.075239511,0.066006567
0.04267353,0.282853006,0.075838985,0.066314599
0.042836248,0.283718511,0.076441656,0.066624259
0.042999399,0.284589556,0.077047517,0.066935552
0.043162986,0.285466129,0.077656565,0.067248483
0.043327013,0.286348216,0.078268793,0.067563057
0.04349148,0.287235802,0.078884195,0.067879278
0.043656391,0.288128876,0.079502763,0.068197151
0.043821746,0.289027421,0.080124492,0.06851668
0.043987549,0.289931421,0.080749374,0.06883787
0.0441538,0.290840859,0.081377401,0.069160727
0.044320503,0.291755717,0.082008566,0.069485253
0.044487658,0.292675975,0.08264286,0.069811456
0.044655269,0.293601615,0.083280274,0.070139339
0.044823338,0.29453262,0.083920799,0.070468911
0.044991869,0.295468969,0.084564425,0.070800177
0.045160863,0.296410644,0.085211144,0.071133143
0.045330324,0.297357623,0.085860945,0.071467819
0.045500254,0.298309886,0.086513819,0.071804212
0.045670656,0.299267412,0.087169754,0.072142332
0.045841532,0.300230181,0.08782874,0.072482189
0.046012884,0.301198171,0.088490765,0.072823794
0.046184715,0.302171361,0.089155818,0.073167156
0.046357027,0.303149727,0.089823886,0.073512286
0.046529821,0.304133245,0.090494957,0.073859193
0.0467031,0.305121889,0.091169017,0.074207887
0.046876863,0.306115633,0.091846055,0.074558379
0.047051113,0.307114449,0.092526058,0.074910678
0.047225851,0.308118311,0.093209015,0.075264793
0.047401075,0.30912719,0.093894916,0.075620735
0.047576789,0.310141059,0.094583748,0.075978515
0.047752991,0.311159887,0.0952755,0.076338143
0.047929684,0.312183645,0.095970161,0.076699635
0.048106869,0.313212302,0.09666772,0.077063007
0.048284549,0.314245825,0.097368167,0.077428283
0.048462725,0.315284184,0.098071493,0.077795486
0.0486414,0.316327348,0.098777692,0.078164647
0.048820576,0.317375286,0.099486755,0.078535795
0.049000257,0.318427965,0.100198674,0.07890896
0.049180445,0.319485352,0.10091344,0.079284173
0.049361144,0.320547413,0.101631045,0.079661464
0.049542357,0.321614113,0.10235148,0.08004086
0.049724089,0.322685416,0.103074736,0.080422392
0.04990634,0.323761285,0.103800805,0.080806087
0.050089115,0.32484168,0.104529679,0.081191972
0.050272415,0.325926566,0.10526135,0.081580074
0.050456243,0.327015901,0.105995808,0.081970419
0.0506406,0.328109649,0.106733048,0.082363033
0.05082549,0.329207766,0.107473059,0.082757942
0.051010915,0.330310213,0.108215834,0.083155172
0.051196875,0.331416945,0.108961364,0.083554751
0.051383373,0.332527919,0.109709642,0.083956705
0.05157041,0.333643091,0.110460656,0.084361059
0.051757987,0.334762418,0.111214399,0.084767843
0.051946104,0.335885859,0.11197086,0.085177083
0.052134764,0.337013368,0.11273003,0.085588807
0.052323967,0.338144904,0.113491896,0.086003042
0.052513715,0.33928042,0.114256448,0.086419815
0.052704008,0.340419872,0.115023673,0.086839155
0.052894848,0.34156321,0.115793559,0.087261087
0.053086236,0.342710388,0.116566092,0.087685639
0.053278174,0.343861358,0.117341258,0.088112836
0.053470662,0.345016068,0.118119043,0.088542705
0.053663702,0.346174472,0.118899433,0.08897527
0.053857296,0.347336517,0.11968241,0.089410556
0.054051445,0.348502154,0.120467962,0.089848588
0.05424615,0.349671331,0.121256072,0.090289388
0.054441413,0.350843997,0.122046729,0.090732979
0.054637236,0.352020098,0.12283992,0.091179384
0.054833618,0.35319958,0.123635633,0.091628625
0.05503056,0.354382392,0.124433858,0.092080724
0.055228064,0.355568481,0.125234583,0.092535702
0.055426128,0.356757796,0.126037798,0.092993583
0.055624754,0.357950283,0.126843494,0.093454387
0.055823942,0.359145889,0.127651659,0.093918136
0.05602369,0.360344558,0.128462283,0.094384851
0.056223999,0.361546234,0.129275356,0.094854555
0.056424869,0.36275086,0.130090869,0.095327271
0.056626299,0.363958377,0.130908813,0.095803023
0.056828291,0.365168725,0.131729178,0.096281834
0.057030847,0.366381845,0.132551954,0.096763727
0.057233969,0.367597676,0.133377132,0.097248726
0.05743766,0.368816159,0.134204704,0.097736853
0.057641922,0.370037232,0.135034665,0.098228128
0.05784676,0.371260835,0.135867008,0.098722572
0.05805218,0.372486905,0.136701729,0.099220205
0.058258188,0.373715379,0.137538823,0.099721048
0.058464792,0.374946197,0.138378284,0.100225121
0.058671997,0.376179293,0.139220106,0.100732443
0.058879812,0.377414605,0.140064285,0.101243033
0.059088241,0.37865207,0.140910813,0.101756911
0.059297293,0.379891625,0.141759681,0.102274097
0.059506973,0.381133204,0.142610883,0.10279461
0.059717288,0.382376742,0.143464409,0.10331847
0.059928243,0.383622174,0.144320249,0.103845696
0.060139846,0.384869435,0.145178393,0.104376307
0.0603521,0.38611846,0.146038832,0.104910319
0.060565013,0.387369185,0.146901553,0.105447749
0.06077859,0.388621546,0.147766548,0.105988614
0.060992834,0.389875478,0.148633803,0.10653293
0.061207752,0.391130918,0.149503309,0.107080713
0.061423347,0.392387802,0.150375053,0.107631983
0.061639625,0.393646069,0.151249025,0.108186759
0.06185659,0.394905656,0.152125213,0.108745059
0.062074248,0.396166503,0.153003606,0.109306902
0.062292601,0.397428552,0.153884193,0.109872307
0.062511655,0.398691742,0.154766964,0.110441295
0.062731413,0.399956015,0.155651906,0.111013885
0.062951878,0.401221312,0.156539009,0.111590094
0.063173055,0.402487571,0.157428259,0.112169942
0.063394945,0.403754733,0.158319643,0.112753445
0.063617552,0.405022736,0.159213146,0.113340621
0.063840881,0.406291519,0.160108754,0.113931489
0.064064934,0.407561024,0.16100645,0.114526064
0.064289714,0.40883119,0.161906217,0.115124364
0.064515224,0.41010196,0.162808038,0.115726401
0.064741467,0.411373274,0.163711894,0.116332191
0.064968444,0.412645072,0.164617767,0.116941747
0.065196157,0.413917297,0.165525639,0.11755508
0.065424608,0.415189887,0.16643549,0.118172205
0.065653798,0.416462784,0.1673473,0.118793135
0.065883728,0.41773593,0.168261048,0.119417884
0.066114399,0.419009268,0.169176715,0.120046467
0.066345812,0.420282739,0.170094281,0.120678897
0.066577967,0.421556289,0.171013723,0.121315192
0.066810865,0.422829858,0.171935021,0.121955365
0.067044505,0.424103389,0.172858153,0.122599433
0.067278887,0.425376822,0.173783097,0.123247407
0.06751401,0.426650099,0.174709831,0.123899302
0.067749874,0.42792316,0.175638334,0.12455513
0.067986476,0.429195945,0.176568585,0.125214902
0.068223815,0.430468395,0.177500561,0.125878632
0.06846189,0.431740448,0.178434242,0.126546328
0.068700698,0.433012046,0.179369604,0.127218002
0.068940238,0.434283127,0.180306625,0.127893661
0.069180508,0.435553631,0.181245282,0.128573314
0.069421507,0.436823498,0.182185553,0.129256967
0.069663232,0.438092668,0.183127416,0.129944626
0.069905681,0.439361081,0.184070848,0.130636296
0.070148854,0.440628677,0.185015826,0.131331982
0.070392748,0.4418954,0.185962328,0.132031686
0.070637361,0.44316119,0.18691033,0.132735414
0.070882692,0.44442599,0.187859811,0.133443169
0.071128741,0.445689745,0.188810749,0.134154958
0.071375507,0.4469524,0.189763121,0.134870789
0.071622991,0.448213902,0.190716909,0.13559067
0.071871193,0.449474198,0.191672094,0.136314609
0.072120114,0.450733235,0.192628662,0.137042616
0.072369753,0.451990961,0.1935866,0.137774703
0.072620112,0.45324732,0.194545895,0.138510884
0.072871189,0.45450226,0.195506538,0.139251173
0.073122986,0.455755725,0.196468517,0.139995581
0.073375501,0.45700766,0.197431826,0.140744121
0.073628736,0.458258012,0.198396456,0.141496801
0.07388269,0.459506727,0.199362403,0.14225363
0.074137364,0.460753754,0.200329663,0.14301462
0.074392758,0.46199904,0.20129823,0.14377978
0.074648872,0.463242534,0.2022681,0.144549122
0.074905708,0.464484183,0.203239267,0.145322657
0.075163264,0.465723936,0.204211726,0.146100395
0.075421542,0.46696174,0.205185469,0.146882348
0.075680542,0.468197545,0.206160492,0.147668522
0.075940264,0.469431302,0.20713679,0.148458927
0.076200709,0.47066296,0.208114361,0.149253568
0.076461877,0.471892471,0.209093202,0.150052452
0.07672377,0.473119784,0.210073311,0.150855583
0.076986387,0.47434485,0.211054684,0.151662966
0.07724973,0.475567617,0.212037318,0.152474608
0.077513798,0.476788037,0.21302121,0.153290511
0.077778594,0.478006059,0.214006356,0.15411068
0.078044118,0.479221636,0.214992751,0.154935121
0.078310369,0.48043472,0.21598039,0.155763839
0.078577348,0.481645266,0.21696927,0.156596839
0.078845056,0.482853231,0.217959385,0.157434126
0.079113494,0.484058572,0.21895073,0.158275704
0.07938266,0.485261248,0.219943299,0.159121575
0.079652555,0.486461218,0.220937087,0.159971741
0.079923178,0.487658439,0.221932087,0.160826204
0.08019453,0.488852871,0.222928294,0.161684962
0.08046661,0.490044473,0.223925702,0.162548017
0.080739418,0.491233205,0.224924307,0.163415369
0.081012952,0.492419027,0.225924103,0.164287017
0.081287214,0.493601899,0.226925084,0.165162959
0.0815622,0.49478178,0.227927245,0.166043195
0.081837912,0.495958633,0.228930579,0.166927722
0.082114346,0.497132417,0.229935079,0.167816541
0.082391502,0.498303095,0.230940736,0.168709653
0.082669378,0.499470629,0.231947543,0.16960706
0.082947972,0.500634979,0.232955493,0.170508761
0.083227284,0.501796106,0.233964576,0.171414756
0.083507311,0.50295397,0.234974786,0.172325044
0.083788052,0.504108531,0.235986114,0.173239624
0.084069507,0.505259746,0.236998549,0.174158495
0.084351673,0.506407576,0.238012085,0.175081659
0.084634551,0.507551979,0.239026712,0.176009117
0.084918137,0.508692914,0.240042421,0.176940871
0.085202432,0.509830338,0.241059206,0.177876922
0.085487434,0.510964214,0.242077056,0.178817271
0.085773142,0.512094499,0.243095962,0.179761916
0.086059553,0.513221155,0.244115914,0.180710855
0.086346665,0.514344141,0.245136901,0.181664088
0.086634475,0.515463419,0.246158911,0.182621611
0.086922981,0.51657895,0.247181934,0.183583421
0.08721218,0.517690692,0.248205958,0.184549514
0.087502068,0.518798607,0.249230973,0.185519888
0.087792642,0.519902655,0.25025697,0.186494539
0.088083898,0.521002794,0.251283938,0.187473461
0.088375832,0.522098987,0.252311868,0.188456652
0.088668439,0.523191195,0.253340751,0.189444107
0.088961715,0.524279378,0.254370581,0.190435822
0.089255655,0.525363499,0.255401349,0.191431794
0.089550254,0.52644352,0.256433049,0.192432018
0.089845506,0.527519406,0.257465674,0.193436488
0.090141406,0.528591119,0.258499217,0.194445199
0.090437947,0.529658625,0.25953367,0.195458143
0.090735123,0.530721886,0.260569027,0.196475313
0.091032928,0.531780868,0.261605277,0.197496701
0.091331354,0.532835534,0.262642414,0.198522299
0.091630396,0.533885848,0.263680429,0.199552099
0.091930048,0.534931777,0.264719314,0.200586092
0.092230305,0.535973289,0.265759061,0.20162427
0.092531162,0.537010353,0.26679966,0.202666625
0.092832616,0.538042937,0.267841103,0.203713149
0.093134662,0.539071009,0.268883379,0.204763835
0.093437298,0.540094536,0.269926478,0.205818675
0.093740523,0.541113488,0.27097039,0.206877661
0.094044334,0.542127832,0.272015103,0.207940785
0.094348733,0.543137535,0.273060606,0.209008038
0.094653718,0.544142567,0.274106885,0.210079411
0.09495929,0.545142894,0.275153929,0.211154894
0.095265446,0.546138485,0.276201724,0.212234477
0.095572185,0.547129306,0.277250257,0.213318147
0.095879507,0.548115325,0.278299511,0.214405893
0.096187409,0.549096509,0.279349472,0.2154977
0.09649589,0.550072823,0.280400123,0.216593554
0.096804949,0.551044233,0.281451447,0.217693437
0.097114585,0.552010706,0.282503424,0.218797333
0.097424795,0.552972207,0.283556038,0.219905222
0.097735577,0.553928704,0.284609268,0.221017085
0.098046931,0.554880165,0.285663096,0.222132901
0.098358852,0.555826558,0.286717503,0.22325265
0.09867134,0.556767852,0.28777247,0.224376309
0.098984393,0.557704016,0.288827977,0.225503858
0.099298009,0.558635018,0.289884006,0.226635275
0.099612187,0.559560826,0.290940537,0.227770538
0.099926924,0.560481411,0.291997551,0.228909627
0.100242219,0.561396742,0.293055028,0.230052521
0.100558073,0.562306792,0.294112947,0.231199202
0.100874482,0.563211532,0.29517129,0.232349649
0.101191447,0.564110936,0.296230035,0.233503843
0.101508964,0.565004977,0.29728916,0.234661765
0.101827033,0.565893628,0.298348645,0.235823397
0.102145651,0.566776864,0.29940847,0.236988724
0.102464816,0.56765466,0.300468615,0.238157733
0.102784525,0.568526994,0.301529062,0.239330413
0.103104775,0.569393844,0.302589792,0.240506755
0.103425564,0.570255189,0.303650787,0.241686747
0.103746888,0.571111007,0.304712028,0.242870379
0.104068746,0.571961277,0.305773496,0.244057639
0.104391133,0.572805977,0.306835174,0.245248515
0.104714051,0.573645086,0.307897042,0.246442997
0.105037496,0.574478583,0.308959081,0.247641072
0.105361469,0.575306445,0.310021271,0.248842732
0.105685968,0.576128653,0.311083594,0.250047966
0.106010992,0.576945183,0.312146028,0.251256765
0.106336541,0.577756015,0.313208555,0.252469121
0.106662612,0.578561125,0.314271151,0.253685025
0.10698921,0.579360492,0.315333796,0.254904464
0.107316334,0.580154092,0.316396468,0.256127427
0.107643991,0.580941904,0.317459144,0.257353901
0.107972182,0.581723907,0.3185218,0.25858387
0.108300914,0.582500081,0.319584415,0.259817319
0.108630189,0.583270404,0.320646965,0.26105423
0.108960011,0.584034859,0.321709428,0.262294586
0.109290385,0.584793428,0.322771782,0.263538367
0.109621314,0.585546095,0.323834006,0.264785556
0.1099528,0.586292842,0.324896077,0.26603613
0.110284848,0.587033655,0.325957975,0.267290071
0.110617461,0.587768517,0.327019675,0.268547359
0.110950641,0.588497412,0.328081158,0.269807972
0.111284392,0.589220325,0.329142404,0.271071887
0.111618715,0.58993724,0.330203393,0.272339084
0.111953614,0.59064814,0.331264108,0.273609539
0.112289091,0.591353009,0.332324535,0.274883232
0.112625147,0.592051834,0.333384658,0.276160142
0.112961785,0.592744601,0.334444467,0.277440251
0.113299005,0.593431297,0.335503952,0.278723538
0.113636808,0.594111908,0.336563104,0.280009982
0.113975196,0.594786421,0.337621914,0.281299561
0.114314168,0.595454823,0.338680374,0.282592256
0.114653726,0.596117101,0.339738473,0.283888044
0.11499387,0.596773243,0.340796206,0.285186908
0.115334602,0.597423235,0.341853563,0.286488833
0.115675922,0.598067066,0.342910535,0.287793802
0.11601783,0.598704723,0.343967114,0.289101801
0.116360329,0.599336194,0.345023291,0.290412817
0.11670342,0.599961468,0.346079055,0.291726837
0.117047104,0.600580532,0.347134397,0.293043852
0.117391385,0.601193373,0.348189308,0.294363849
0.117736264,0.601799979,0.349243778,0.295686819
0.118081744,0.602400337,0.350297797,0.29701275
0.118427825,0.602994433,0.351351354,0.298341628
0.11877451,0.603582256,0.352404438,0.299673439
0.119121801,0.604163793,0.353457039,0.301008167
0.119469697,0.604739031,0.354509145,0.302345795
0.119818201,0.605307958,0.355560745,0.303686307
0.120167313,0.605870561,0.356611828,0.305029684
0.120517034,0.606426827,0.357662381,0.306375905
0.120867364,0.606976743,0.358712392,0.30772495
0.121218303,0.607520295,0.359761846,0.309076801
0.121569852,0.608057469,0.360810731,0.310431436
0.121922012,0.608588252,0.361859031,0.311788835
0.122274784,0.609112628,0.362906732,0.313148979
0.122628168,0.609630583,0.363953817,0.314511844
0.122982166,0.610142102,0.365000272,0.31587741
0.123336779,0.610647171,0.366046085,0.317245654
0.123692009,0.611145777,0.367091242,0.318616551
0.124047859,0.61163791,0.368135733,0.319990079
0.124404332,0.612123558,0.369179549,0.321366212
0.124761429,0.612602713,0.37022268,0.322744924
0.125119153,0.613075365,0.371265118,0.32412619
0.125477505,0.613541511,0.372306859,0.325509981
0.125836486,0.614001144,0.373347899,0.326896271
0.126196099,0.61445426,0.374388235,0.328285032
0.126556343,0.614900856,0.375427865,0.329676235
0.126917218,0.615340927,0.376466784,0.331069851
0.127278726,0.615774468,0.377504989,0.332465851
0.127640864,0.616201472,0.378542473,0.333864203
0.128003634,0.616621936,0.379579231,0.335264876
0.128367033,0.617035853,0.380615256,0.336667837
0.12873106,0.617443218,0.381650541,0.338073052
0.129095714,0.61784403,0.382685078,0.339480485
0.129460994,0.618238284,0.383718861,0.3408901
0.129826897,0.618625979,0.384751883,0.342301862
0.130193423,0.619007111,0.385784138,0.343715732
0.13056057,0.619381679,0.386815619,0.345131675
0.130928336,0.619749681,0.387846319,0.346549655
0.131296721,0.620111117,0.388876233,0.347969636
0.131665722,0.620465986,0.389905357,0.349391582
0.132035338,0.62081429,0.39093369,0.35081546
0.132405568,0.621156032,0.391961236,0.352241239
0.13277641,0.621491216,0.392987996,0.353668887
0.133147861,0.621819844,0.394013974,0.355098372
0.13351992,0.622141921,0.39503917,0.356529663
0.133892584,0.62245745,0.396063587,0.357962727
0.13426585,0.622766436,0.397087223,0.359397529
0.134639715,0.623068885,0.398110081,0.360834037
0.135014176,0.623364801,0.399132158,0.362272217
0.135389229,0.623654191,0.400153457,0.363712035
0.135764869,0.62393706,0.401173974,0.365153459
0.136141092,0.624213416,0.40219371,0.366596454
0.136517894,0.624483263,0.403212662,0.368040992
0.136895269,0.624746609,0.404230829,0.369487043
0.137273212,0.625003458,0.405248208,0.370934581
0.137651718,0.625253815,0.406264796,0.372383579
0.13803078,0.625497687,0.407280589,0.373834012
0.138410393,0.625735078,0.408295584,0.375285852
0.138790548,0.625965994,0.409309777,0.376739073
0.13917124,0.62619044,0.410323165,0.378193647
0.139552461,0.626408424,0.411335742,0.37964955
0.139934204,0.626619951,0.412347504,0.381106753
0.14031646,0.626825028,0.413358447,0.382565231
0.140699224,0.627023659,0.414368569,0.384024956
0.141082487,0.627215851,0.415377865,0.385485899
0.141466244,0.627401609,0.416386331,0.386948033
0.141850488,0.627580939,0.417393963,0.388411325
0.142235212,0.627753848,0.418400758,0.389875747
0.142620409,0.627920341,0.419406712,0.391341266
0.143006074,0.628080425,0.420411821,0.392807852
0.143392201,0.628234105,0.421416083,0.39427547
0.143778786,0.62838139,0.422419496,0.395744091
0.144165822,0.628522288,0.423422057,0.397213679
0.144553304,0.628656807,0.424423764,0.3986842
0.144941226,0.628784957,0.425424614,0.400155621
0.145329581,0.628906745,0.426424603,0.401627904
0.145718363,0.629022181,0.427423726,0.403101014
0.146107565,0.629131272,0.428421979,0.404574913
0.14649718,0.629234026,0.429419358,0.406049565
0.146887201,0.629330452,0.430415855,0.407524933
0.147277621,0.62942056,0.431411466,0.409000979
0.147668431,0.629504359,0.432406185,0.410477665
0.148059626,0.629581858,0.433400006,0.411954954
0.148451195,0.629653065,0.434392923,0.413432808
0.148843131,0.629717989,0.43538493,0.41491119
0.149235425,0.629776638,0.436376019,0.416390062
0.149628067,0.629829019,0.437366183,0.417869387
0.15002105,0.629875141,0.438355417,0.419349126
0.150414363,0.629915013,0.439343714,0.420829243
0.150807997,0.629948644,0.440331069,0.422309699
0.151201943,0.629976047,0.441317476,0.423790457
0.15159619,0.629997232,0.442302927,0.42527148
0.15199073,0.63001221,0.443287418,0.42675273
0.152385554,0.630020995,0.444270943,0.428234175
0.152780651,0.630023598,0.445253496,0.429715783
0.153176013,0.630020032,0.446235072,0.431197524
0.153571631,0.630010311,0.447215664,0.432679365
0.153967499,0.629994447,0.448195267,0.434161276
0.154363609,0.629972456,0.449173872,0.435643223
0.154759952,0.629944352,0.450151474,0.437125175
0.155156521,0.629910148,0.451128063,0.438607097
0.155553308,0.629869858,0.452103633,0.440088958
0.155950303,0.629823495,0.453078176,0.441570722
0.156347499,0.629771074,0.454051683,0.443052357
0.156744886,0.629712606,0.455024146,0.444533826
0.157142454,0.629648104,0.455995554,0.446015096
0.157540195,0.629577581,0.456965899,0.447496129
0.157938099,0.62950105,0.457935169,0.448976891
0.158336156,0.629418525,0.458903356,0.450457346
0.158734358,0.629330022,0.45987045,0.451937457
0.159132694,0.629235555,0.460836441,0.453417187
0.159531154,0.62913514,0.461801319,0.4548965
0.159929727,0.629028791,0.462765072,0.456375361
0.160328404,0.628916521,0.463727689,0.457853733
0.160727173,0.628798347,0.464689157,0.45933158
0.161126024,0.628674284,0.465649465,0.460808865
0.161524944,0.628544348,0.466608603,0.462285552
0.161923923,0.628408555,0.467566559,0.463761604
0.162322948,0.628266924,0.468523323,0.465236984
0.16272201,0.628119471,0.469478888,0.466711657
0.163121096,0.627966218,0.470433245,0.468185585
0.163520194,0.627807185,0.471386387,0.469658733
0.163919294,0.627642395,0.472338305,0.471131062
0.164318383,0.627471872,0.47328899,0.472602536
0.164717449,0.627295639,0.474238432,0.474073118
0.165116479,0.627113716,0.475186621,0.47554277
0.165515461,0.626926127,0.476133544,0.477011453
0.165914381,0.626732893,0.47707919,0.478479129
0.166313226,0.626534035,0.478023546,0.47994576
0.166711983,0.626329581,0.478966602,0.481411306
0.167110639,0.626119555,0.479908345,0.482875729
0.167509181,0.625903986,0.480848765,0.48433899
0.167907596,0.625682904,0.481787851,0.485801054
0.168305871,0.625456335,0.482725593,0.487261886
0.168703993,0.625224311,0.483661982,0.488721455
0.169101949,0.624986861,0.484597009,0.490179734
0.169499727,0.624744015,0.485530668,0.491636693
0.169897314,0.624495804,0.486462953,0.493092306
0.170294699,0.624242257,0.487393862,0.494546545
0.17069187,0.623983405,0.488323392,0.495999384
0.171088814,0.62371928,0.489251539,0.497450795
0.17148552,0.62344991,0.4901783,0.498900749
0.171881976,0.623175327,0.49110367,0.500349219
0.172278168,0.622895561,0.492027642,0.501796173
0.172674084,0.622610644,0.49295021,0.503241584
0.173069712,0.622320605,0.493871368,0.50468542
0.173465037,0.622025479,0.494791109,0.50612765
0.173860048,0.621725295,0.495709424,0.507568243
0.17425473,0.621420086,0.496626306,0.509007166
0.174649072,0.621109882,0.497541745,0.510444387
0.175043059,0.620794713,0.49845573,0.511879871
0.175436678,0.620474608,0.49936825,0.513313585
0.175829917,0.620149595,0.500279295,0.514745495
0.176222761,0.619819703,0.501188852,0.516175567
0.176615197,0.619484961,0.50209691,0.517603765
0.177007212,0.619145398,0.503003456,0.519030056
0.17739879,0.618801044,0.50390848,0.520454406
0.177789918,0.618451933,0.504811969,0.521876778
0.178180581,0.618098097,0.505713912,0.523297138
0.178570766,0.617739568,0.506614297,0.52471545
0.178960456,0.617376379,0.507513112,0.526131679
0.179349637,0.617008562,0.508410343,0.527545788
0.179738294,0.616636152,0.509305977,0.528957742
0.180126412,0.61625918,0.510200001,0.530367505
0.180513977,0.615877682,0.511092401,0.531775039
0.180900973,0.61549169,0.511983163,0.533180311
0.181287386,0.61510124,0.512872275,0.534583285
0.181673201,0.614706363,0.513759723,0.535983926
0.182058403,0.614307095,0.514645494,0.537382201
0.182442979,0.613903468,0.515529576,0.538778077
0.182826912,0.613495515,0.516411957,0.540171524
0.183210189,0.61308327,0.517292625,0.54156251
0.183592796,0.612666768,0.518171571,0.542951005
0.183974719,0.612246042,0.519048785,0.544336976
0.184355943,0.611821129,0.519924258,0.545720394
0.184736456,0.611392062,0.520797981,0.547101228
0.185116243,0.610958877,0.521669945,0.548479447
0.18549529,0.610521609,0.522540141,0.549855024
0.185873582,0.610080291,0.523408561,0.551227929
0.186251107,0.609634957,0.524275193,0.552598134
0.186627849,0.609185644,0.525140027,0.553965611
0.187003795,0.608732387,0.526003053,0.55533033
0.187378931,0.608275224,0.526864259,0.556692259
0.187753243,0.607814192,0.527723634,0.558051369
0.188126718,0.607349327,0.528581165,0.559407627
0.18849934,0.606880665,0.529436841,0.560761001
0.188871097,0.606408245,0.530290648,0.562111459
0.189241975,0.605932101,0.531142575,0.563458966
0.189611959,0.605452274,0.531992606,0.56480349
0.189981037,0.604968799,0.53284073,0.566144995
0.190349194,0.604481714,0.53368693,0.567483446
0.190716417,0.603991055,0.534531191,0.568818807
0.191082693,0.603496859,0.535373498,0.570151042
0.191448008,0.602999161,0.536213835,0.571480112
0.191812348,0.602497995,0.537052185,0.572805981
0.192175699,0.601993397,0.53788853,0.574128611
0.192538047,0.6014854,0.538722852,0.575447962
0.192899377,0.600974041,0.539555132,0.576763995
0.193259676,0.600459353,0.54038535,0.578076672
0.193618929,0.59994137,0.541213487,0.579385953
0.193977121,0.599420124,0.542039522,0.580691798
0.194334238,0.598895647,0.542863435,0.581994166
0.194690265,0.598367972,0.543685205,0.583293017
0.195045187,0.597837128,0.544504812,0.584588312
0.195398991,0.597303148,0.545322234,0.585880008
0.195751663,0.596766063,0.546137454,0.587168067
0.196103189,0.596225904,0.546950452,0.588452449
0.196453554,0.595682702,0.547761211,0.589733114
0.196802745,0.595136491,0.548569713,0.591010024
0.197150747,0.594587302,0.549375941,0.592283141
0.197497548,0.594035167,0.55017988,0.593552429
0.197843133,0.593480118,0.55098151,0.59481785
0.198187488,0.592922186,0.551780817,0.59607937
0.198530599,0.592361402,0.552577782,0.597336953
0.198872454,0.591797797,0.55337239,0.598590564
0.199213037,0.591231401,0.554164624,0.599840169
0.199552335,0.590662242,0.554954471,0.601085731
0.199890334,0.59009035,0.555741914,0.602327215
0.200227023,0.589515754,0.556526938,0.603564586
0.200562387,0.588938483,0.55730953,0.604797808
0.200896415,0.588358567,0.558089674,0.606026844
0.201229094,0.587776035,0.558867356,0.607251658
0.201560411,0.587190919,0.55964256,0.608472212
0.201890355,0.586603248,0.560415269,0.609688472
0.202218912,0.586013056,0.561185468,0.610900401
0.20254607,0.585420375,0.561953139,0.612107966
0.202871819,0.584825237,0.562718265,0.613311135
0.203196145,0.584227672,0.563480829,0.614509877
0.203519038,0.583627713,0.564240815,0.615704159
0.203840485,0.58302539,0.564998204,0.61689395
0.204160475,0.582420733,0.565752981,0.618079217
0.204478995,0.581813774,0.566505129,0.619259928
0.204796034,0.581204542,0.567254631,0.62043605
0.20511158,0.580593069,0.568001468,0.62160755
0.205425621,0.579979383,0.568745625,0.622774394
0.205738146,0.579363514,0.569487083,0.623936551
0.206049142,0.578745492,0.570225826,0.625093986
0.206358597,0.578125345,0.570961837,0.626246668
0.206666502,0.577503101,0.571695101,0.627394562
0.01004224,0.363041766,0.013202124,-0.033589928
0.009930707,0.362550708,0.012703769,-0.034061203
0.009819798,0.362058266,0.012208898,-0.034527459
0.009709514,0.361564457,0.011717509,-0.034988707
0.009599853,0.361069298,0.011229598,-0.035444958
0.009490812,0.360572806,0.010745163,-0.035896224
0.009382392,0.360074999,0.010264201,-0.036342516
0.009274589,0.359575895,0.009786708,-0.036783846
0.009167404,0.359075514,0.009312681,-0.037220224
0.009060834,0.358573874,0.008842117,-0.037651662
0.008954878,0.358070993,0.008375013,-0.038078172
0.008849535,0.357566888,0.007911366,-0.038499765
0.008744803,0.357061577,0.007451173,-0.038916453
0.00864068,0.356555076,0.006994429,-0.039328249
0.008537165,0.356047404,0.006541131,-0.039735165
0.008434257,0.355538576,0.006091274,-0.040137212
0.008331954,0.355028611,0.005644856,-0.040534404
0.008230254,0.354517525,0.005201871,-0.040926752
0.008129156,0.354005337,0.004762315,-0.041314269
0.008028658,0.353492063,0.004326183,-0.041696969
0.007928759,0.352977721,0.003893472,-0.042074863
0.007829457,0.352462326,0.003464174,-0.042447965
0.007730752,0.351945896,0.003038287,-0.042816287
0.00763264,0.351428449,0.002615805,-0.043179842
0.007535122,0.350910002,0.002196723,-0.043538644
0.007438195,0.350390574,0.001781035,-0.043892705
0.007341858,0.349870183,0.001368739,-0.044242038
0.00724611,0.349348849,0.000959827,-0.044586657
0.007150949,0.348826589,0.000554296,-0.044926574
0.007056375,0.348303421,0.00015214,-0.045261803
0.006962386,0.347779362,-0.000246647,-0.045592358
0.00686898,0.347254429,-0.00064207,-0.045918251
0.006776156,0.34672864,-0.001034134,-0.046239498
0.006683914,0.346202013,-0.001422846,-0.046556111
0.006592252,0.345674564,-0.001808212,-0.046868104
0.006501168,0.345146313,-0.002190236,-0.047175492
0.006410662,0.344617276,-0.002568927,-0.047478287
0.006320732,0.34408747,-0.002944289,-0.047776506
0.006231377,0.343556912,-0.00331633,-0.04807016
0.006142595,0.343025621,-0.003685056,-0.048359267
0.006054387,0.342493613,-0.004050472,-0.048643838
0.00596675,0.341960906,-0.004412585,-0.048923889
0.005879683,0.341427519,-0.004771401,-0.049199435
0.005793185,0.340893469,-0.005126926,-0.04947049
0.005707255,0.340358773,-0.005479168,-0.049737069
0.005621892,0.33982345,-0.005828131,-0.049999185
0.005537094,0.339287515,-0.006173823,-0.050256855
0.00545286,0.338750986,-0.00651625,-0.050510093
0.005369189,0.338213879,-0.00685542,-0.050758913
0.005286079,0.337676211,-0.007191339,-0.051003332
0.00520353,0.337137999,-0.007524015,-0.051243362
0.00512154,0.33659926,-0.007853454,-0.051479021
0.005040108,0.33606001,-0.008179665,-0.051710322
0.004959232,0.335520266,-0.008502653,-0.051937281
0.004878913,0.334980044,-0.008822428,-0.052159914
0.004799147,0.334439359,-0.009138995,-0.052378235
0.004719934,0.333898228,-0.009452363,-0.052592261
0.004641274,0.333356667,-0.009762539,-0.052802007
0.004563163,0.332814692,-0.01006953,-0.053007488
0.004485602,0.33227232,-0.010373344,-0.053208721
0.004408589,0.331729569,-0.010673988,-0.05340572
0.004332123,0.331186455,-0.01097147,-0.053598501
0.004256202,0.330642994,-0.011265797,-0.05378708
0.004180824,0.330099201,-0.011556977,-0.053971473
0.00410599,0.329555093,-0.011845018,-0.054151696
0.004031697,0.329010686,-0.012129928,-0.054327765
0.003957945,0.328465995,-0.012411716,-0.054499696
0.003884731,0.327921037,-0.01269039,-0.054667505
0.003812056,0.327375827,-0.012965959,-0.054831209
0.003739916,0.326830382,-0.01323843,-0.054990823
0.003668312,0.326284718,-0.013507812,-0.055146365
0.003597241,0.32573885,-0.013774115,-0.05529785
0.003526703,0.325192795,-0.014037347,-0.055445295
0.003456695,0.324646568,-0.014297516,-0.055588717
0.003387217,0.324100189,-0.01455463,-0.055728131
0.003318267,0.323553673,-0.014808699,-0.055863555
0.003249843,0.323007039,-0.01505973,-0.055995004
0.003181944,0.322460304,-0.015307732,-0.056122496
0.003114568,0.321913485,-0.015552712,-0.056246046
0.003047714,0.321366598,-0.01579468,-0.056365672
0.002981381,0.320819659,-0.016033642,-0.05648139
0.002915567,0.320272684,-0.016269609,-0.056593217
0.002850271,0.319725689,-0.016502587,-0.05670117
0.00278549,0.319178691,-0.016732586,-0.056805265
0.002721224,0.318631708,-0.016959615,-0.056905519
0.002657471,0.318084755,-0.017183682,-0.057001949
0.00259423,0.317537851,-0.017404795,-0.057094572
0.002531499,0.316991011,-0.017622965,-0.057183405
0.002469276,0.316444253,-0.017838201,-0.057268466
0.002407561,0.315897592,-0.01805051,-0.057349771
0.00234635,0.315351045,-0.018259903,-0.057427338
0.002285644,0.314804629,-0.018466389,-0.057501183
0.002225439,0.314258361,-0.018669976,-0.057571325
0.002165735,0.313712259,-0.018870673,-0.05763778
0.00210653,0.313166341,-0.019068489,-0.057700565
0.002047823,0.312620621,-0.019263434,-0.057759699
0.001989611,0.312075118,-0.019455516,-0.057815198
0.001931894,0.311529847,-0.019644745,-0.05786708
0.001874669,0.310984823,-0.019831131,-0.057915362
0.001817935,0.310440062,-0.020014682,-0.057960063
0.00176169,0.30989558,-0.020195409,-0.058001199
0.001705933,0.309351392,-0.02037332,-0.058038789
0.001650661,0.308807514,-0.020548427,-0.05807285
0.001595874,0.308263958,-0.020720739,-0.0581034
0.001541569,0.307720741,-0.020890266,-0.058130457
0.001487745,0.307177875,-0.021057017,-0.058154037
0.0014344,0.306635376,-0.021221003,-0.058174161
0.001381532,0.306093257,-0.021382234,-0.058190844
0.001329139,0.305551534,-0.021540719,-0.058204106
0.00127722,0.305010221,-0.021696468,-0.058213963
0.001225773,0.304469334,-0.021849491,-0.058220434
0.001174796,0.303928887,-0.021999798,-0.058223537
0.001124288,0.303388893,-0.022147399,-0.05822329
0.001074246,0.302849366,-0.022292304,-0.05821971
0.00102467,0.302310319,-0.022434524,-0.058212816
0.000975557,0.301771765,-0.022574068,-0.058202627
0.000926905,0.301233718,-0.022710947,-0.058189159
0.000878714,0.300696191,-0.022845172,-0.058172432
0.000830981,0.300159197,-0.022976754,-0.058152463
0.000783705,0.29962275,-0.023105703,-0.058129271
0.000736885,0.29908686,-0.023232031,-0.058102874
0.000690518,0.298551542,-0.023355747,-0.05807329
0.000644603,0.298016806,-0.023476863,-0.058040538
0.000599138,0.297482665,-0.02359539,-0.058004636
0.000554122,0.296949132,-0.023711339,-0.057965601
0.000509553,0.29641622,-0.023824719,-0.057923454
0.00046543,0.295883942,-0.023935542,-0.057878211
0.000421752,0.295352311,-0.024043818,-0.057829891
0.000378517,0.29482134,-0.024149558,-0.057778512
0.000335724,0.29429104,-0.024252771,-0.057724094
0.000293371,0.293761423,-0.02435347,-0.057666653
0.000251457,0.2932325,-0.024451664,-0.057606209
0.000209981,0.292704283,-0.024547364,-0.05754278
0.000168942,0.292176783,-0.024640582,-0.057476384
0.000128338,0.291650015,-0.024731328,-0.05740704
8.82E-05,0.291123989,-0.024819614,-0.057334766
4.84E-05,0.29059872,-0.024905451,-0.057259581
9.13E-06,0.290074219,-0.02498885,-0.057181504
-2.97E-05,0.289550499,-0.025069822,-0.057100553
-6.82E-05,0.289027571,-0.025148379,-0.057016746
-0.000106193,0.288505449,-0.025224531,-0.056930103
-0.000143776,0.287984146,-0.02529829,-0.056840642
-0.000180933,0.287463675,-0.025369666,-0.056748382
-0.000217664,0.286944052,-0.025438671,-0.056653341
-0.00025397,0.286425289,-0.025505316,-0.056555538
-0.000289853,0.285907401,-0.025569611,-0.056454991
-0.000325314,0.285390402,-0.025631568,-0.05635172
-0.000360353,0.284874304,-0.025691198,-0.056245742
-0.000394972,0.284359124,-0.025748513,-0.056137077
-0.000429173,0.283844875,-0.025803524,-0.056025742
-0.000462957,0.283331572,-0.025856242,-0.055911758
-0.000496325,0.282819227,-0.025906679,-0.055795141
-0.000529278,0.282307854,-0.025954847,-0.055675912
-0.000561818,0.281797465,-0.026000756,-0.055554088
-0.000593946,0.28128807,-0.02604442,-0.055429689
-0.000625663,0.280779682,-0.026085849,-0.055302733
-0.000656971,0.280272313,-0.026125054,-0.055173239
-0.000687871,0.279765975,-0.026162048,-0.055041226
-0.000718365,0.27926068,-0.026196841,-0.054906713
-0.000748454,0.278756442,-0.026229444,-0.054769718
-0.00077814,0.278253274,-0.026259869,-0.054630259
-0.000807424,0.27775119,-0.026288126,-0.054488357
-0.000836307,0.277250202,-0.026314228,-0.054344028
-0.000864792,0.276750324,-0.026338186,-0.054197293
-0.000892879,0.27625157,-0.02636001,-0.054048169
-0.00092057,0.275753953,-0.026379713,-0.053896676
-0.000947867,0.275257489,-0.026397306,-0.053742832
-0.000974771,0.274762193,-0.026412801,-0.053586657
-0.001001284,0.274268084,-0.026426209,-0.053428168
-0.001027408,0.273775178,-0.026437542,-0.053267385
-0.001053144,0.27328349,-0.026446811,-0.053104327
-0.001078494,0.272793038,-0.026454027,-0.052939012
-0.00110346,0.272303837,-0.026459202,-0.052771459
-0.001128043,0.271815906,-0.026462348,-0.052601687
-0.001152246,0.27132926,-0.026463477,-0.052429714
-0.001176069,0.270843918,-0.026462599,-0.05225556
-0.001199515,0.270359898,-0.026459726,-0.052079242
-0.001222585,0.269877219,-0.026454869,-0.05190078
-0.001245281,0.269395897,-0.026448041,-0.051720192
-0.001267605,0.268915951,-0.026439253,-0.051537497
-0.001289557,0.268437396,-0.026428517,-0.051352713
-0.001311141,0.267960249,-0.026415844,-0.051165859
-0.001332357,0.267484525,-0.026401246,-0.050976955
-0.001353207,0.267010242,-0.026384735,-0.050786017
-0.001373692,0.266537415,-0.026366324,-0.050593066
-0.001393815,0.26606606,-0.026346024,-0.050398119
-0.001413576,0.265596192,-0.026323847,-0.050201196
-0.001432978,0.265127825,-0.026299806,-0.050002314
-0.001452022,0.264660974,-0.026273914,-0.049801493
-0.001470709,0.264195652,-0.026246181,-0.049598751
-0.001489041,0.263731875,-0.02621662,-0.049394105
-0.001507019,0.263269658,-0.026185243,-0.049187576
-0.001524645,0.262809015,-0.026152061,-0.048979181
-0.00154192,0.262349962,-0.026117086,-0.048768938
-0.001558846,0.261892516,-0.026080331,-0.048556865
-0.001575423,0.261436691,-0.026041806,-0.048342982
-0.001591653,0.260982501,-0.026001522,-0.048127305
-0.001607538,0.26052996,-0.025959493,-0.047909854
-0.001623078,0.260079081,-0.025915729,-0.047690647
-0.001638275,0.259629879,-0.025870241,-0.047469701
-0.001653129,0.259182367,-0.025823041,-0.047247034
-0.001667642,0.258736562,-0.025774139,-0.047022666
-0.001681815,0.25829248,-0.025723547,-0.046796612
-0.001695648,0.257850139,-0.025671275,-0.046568892
-0.001709143,0.257409557,-0.025617335,-0.046339522
-0.001722301,0.256970751,-0.025561738,-0.046108521
-0.001735122,0.25653374,-0.025504495,-0.045875906
-0.001747608,0.256098544,-0.025445617,-0.045641694
-0.00175976,0.255665182,-0.025385115,-0.045405902
-0.001771579,0.255233675,-0.025323,-0.045168548
-0.001783066,0.254804041,-0.025259283,-0.044929649
-0.001794222,0.254376301,-0.025193975,-0.044689222
-0.001805048,0.253950473,-0.025127088,-0.044447284
-0.001815546,0.253526574,-0.025058633,-0.044203851
-0.001825716,0.253104622,-0.02498862,-0.043958942
-0.001835561,0.252684633,-0.024917062,-0.043712573
-0.00184508,0.252266623,-0.02484397,-0.04346476
-0.001854277,0.251850611,-0.024769354,-0.043215522
-0.00186315,0.251436612,-0.024693227,-0.042964875
-0.001871703,0.251024643,-0.0246156,-0.042712835
-0.001879936,0.25061472,-0.024536484,-0.04245942
-0.001887849,0.250206859,-0.024455891,-0.042204646
-0.001895446,0.249801076,-0.024373832,-0.041948532
-0.001902725,0.249397388,-0.024290317,-0.041691092
-0.001909688,0.248995812,-0.024205358,-0.041432345
-0.001916337,0.248596368,-0.024118965,-0.041172306
-0.001922671,0.248199072,-0.024031148,-0.040910993
-0.001928692,0.247803942,-0.023941919,-0.040648421
-0.001934399,0.247410995,-0.023851287,-0.040384608
-0.001939794,0.247020249,-0.023759263,-0.040119569
-0.001944875,0.24663172,-0.023665857,-0.039853322
-0.001949644,0.246245425,-0.023571079,-0.039585882
-0.0019541,0.245861383,-0.023474939,-0.039317267
-0.001958244,0.24547961,-0.023377446,-0.039047492
-0.001962075,0.245100123,-0.02327861,-0.038776574
-0.001965594,0.244722939,-0.023178442,-0.038504529
-0.001968801,0.244348073,-0.023076951,-0.038231374
-0.001971696,0.24397554,-0.022974146,-0.037957124
-0.00197428,0.243605356,-0.022870037,-0.037681796
-0.001976552,0.243237536,-0.022764634,-0.037405406
-0.001978513,0.242872095,-0.022657947,-0.037127971
-0.001980163,0.242509049,-0.022549985,-0.036849504
-0.001981502,0.242148412,-0.022440758,-0.036570023
-0.001982531,0.241790201,-0.022330275,-0.036289543
-0.00198325,0.241434429,-0.022218546,-0.036008079
-0.001983659,0.241081111,-0.022105581,-0.035725647
-0.001983759,0.240730258,-0.02199139,-0.035442263
-0.00198355,0.240381884,-0.021875982,-0.035157942
-0.001983032,0.240036002,-0.021759368,-0.0348727
-0.001982205,0.239692623,-0.021641558,-0.034586553
-0.001981071,0.239351759,-0.021522561,-0.034299514
-0.001979629,0.239013423,-0.021402389,-0.034011601
-0.00197788,0.238677626,-0.021281051,-0.033722828
-0.001975824,0.238344378,-0.021158557,-0.033433211
-0.001973462,0.238013689,-0.021034918,-0.033142765
-0.001970794,0.237685568,-0.020910145,-0.032851504
-0.001967822,0.237360025,-0.020784246,-0.032559446
-0.001964544,0.23703707,-0.020657232,-0.032266603
-0.001960963,0.236716712,-0.020529112,-0.031972993
-0.001957078,0.236398961,-0.020399896,-0.031678628
-0.001952891,0.236083826,-0.020269595,-0.031383525
-0.001948401,0.235771318,-0.020138216,-0.031087698
-0.00194361,0.235461446,-0.020005772,-0.030791162
-0.001938519,0.235154218,-0.019872271,-0.030493932
-0.001933127,0.234849643,-0.019737723,-0.030196023
-0.001927435,0.234547732,-0.019602139,-0.029897451
-0.001921445,0.234248493,-0.019465529,-0.029598229
-0.001915156,0.233951936,-0.019327902,-0.029298373
-0.00190857,0.233658069,-0.019189269,-0.028997897
-0.001901686,0.233366902,-0.01904964,-0.028696817
-0.001894507,0.233078441,-0.018909025,-0.028395147
-0.001887031,0.232792693,-0.018767433,-0.028092901
-0.001879261,0.232509666,-0.018624875,-0.027790094
-0.001871197,0.232229365,-0.01848136,-0.027486741
-0.001862839,0.231951799,-0.018336899,-0.027182857
-0.00185419,0.231676974,-0.018191499,-0.026878454
-0.001845248,0.2314049,-0.018045172,-0.026573549
-0.001836016,0.231135582,-0.017897927,-0.026268155
-0.001826495,0.230869028,-0.017749773,-0.025962287
-0.001816685,0.230605242,-0.01760072,-0.025655958
-0.001806587,0.230344231,-0.017450778,-0.025349183
-0.001796202,0.230086,-0.017299956,-0.025041976
-0.001785531,0.229830554,-0.017148266,-0.024734351
-0.001774575,0.2295779,-0.016995715,-0.024426323
-0.001763335,0.229328044,-0.016842315,-0.024117904
-0.001751812,0.229080991,-0.016688074,-0.023809109
-0.001740006,0.228836747,-0.016533003,-0.023499953
-0.001727918,0.228595318,-0.016377112,-0.023190448
-0.00171555,0.228356707,-0.016220409,-0.02288061
-0.001702902,0.22812092,-0.016062904,-0.022570452
-0.001689975,0.227887963,-0.015904607,-0.022259987
-0.00167677,0.22765784,-0.015745527,-0.02194923
-0.001663288,0.227430558,-0.015585673,-0.021638193
-0.00164953,0.227206121,-0.015425054,-0.021326891
-0.001635496,0.226984535,-0.01526368,-0.021015337
-0.001621189,0.226765805,-0.01510156,-0.020703543
-0.001606608,0.226549933,-0.014938702,-0.020391524
-0.001591754,0.226336923,-0.014775116,-0.020079292
-0.001576629,0.226126778,-0.01461081,-0.019766861
-0.001561234,0.225919501,-0.014445792,-0.019454244
-0.001545569,0.225715095,-0.014280073,-0.019141453
-0.001529634,0.225513565,-0.014113661,-0.018828502
-0.001513431,0.225314915,-0.013946563,-0.018515403
-0.001496961,0.225119147,-0.01377879,-0.018202168
-0.001480223,0.224926264,-0.01361035,-0.017888811
-0.001463218,0.224736269,-0.013441251,-0.017575343
-0.001445947,0.224549164,-0.013271502,-0.017261777
-0.001428411,0.224364952,-0.013101113,-0.016948124
-0.001410608,0.224183635,-0.012930091,-0.016634397
-0.00139254,0.224005215,-0.012758446,-0.016320607
-0.001374205,0.223829697,-0.012586185,-0.016006765
-0.001355605,0.223657082,-0.012413319,-0.015692883
-0.001336739,0.223487375,-0.012239856,-0.015378973
-0.001317607,0.223320575,-0.012065803,-0.015065044
-0.00129821,0.223156686,-0.011891171,-0.01475111
-0.001278546,0.222995708,-0.011715967,-0.01443718
-0.001258616,0.222837642,-0.0115402,-0.014123266
-0.001238419,0.222682488,-0.011363879,-0.013809379
-0.001217957,0.222530246,-0.011187012,-0.01349553
-0.001197227,0.222380915,-0.011009609,-0.013181731
-0.001176231,0.222234493,-0.010831677,-0.012867992
-0.001154968,0.222090978,-0.010653225,-0.012554326
-0.001133437,0.221950368,-0.010474262,-0.012240742
-0.001111639,0.221812661,-0.010294797,-0.011927253
-0.001089573,0.221677856,-0.010114839,-0.011613869
-0.00106724,0.221545949,-0.009934397,-0.011300602
-0.001044639,0.22141694,-0.009753479,-0.010987461
-0.001021771,0.221290824,-0.009572094,-0.010674458
-0.000998635,0.221167596,-0.009390251,-0.010361604
-0.000975233,0.221047253,-0.009207959,-0.01004891
-0.000951563,0.220929789,-0.009025224,-0.009736386
-0.000927626,0.220815197,-0.008842056,-0.009424043
-0.000903422,0.220703473,-0.008658462,-0.00911189
-0.000878953,0.220594608,-0.00847445,-0.00879994
-0.000854217,0.220488597,-0.008290029,-0.008488201
-0.000829215,0.220385431,-0.008105207,-0.008176685
-0.000803949,0.220285101,-0.007919991,-0.007865402
-0.000778417,0.220187597,-0.00773439,-0.007554363
-0.000752621,0.220092908,-0.007548412,-0.007243578
-0.00072656,0.220001024,-0.007362064,-0.006933057
-0.000700236,0.219911933,-0.007175354,-0.00662281
-0.000673648,0.219825625,-0.006988291,-0.006312848
-0.000646798,0.219742089,-0.006800881,-0.006003181
-0.000619684,0.219661315,-0.006613131,-0.005693818
-0.000592308,0.219583293,-0.00642505,-0.005384769
-0.00056467,0.219508012,-0.006236644,-0.005076046
-0.00053677,0.219435462,-0.006047922,-0.004767657
-0.000508609,0.219365631,-0.00585889,-0.004459613
-0.000480188,0.219298508,-0.005669555,-0.004151924
-0.000451507,0.219234081,-0.005479926,-0.003844599
-0.000422566,0.219172341,-0.005290009,-0.003537649
-0.000393366,0.219113274,-0.005099813,-0.003231084
-0.000363909,0.219056869,-0.004909345,-0.002924913
-0.000334194,0.219003115,-0.004718612,-0.002619147
-0.000304223,0.218951997,-0.004527623,-0.002313795
-0.000273997,0.218903503,-0.004336384,-0.002008867
-0.000243516,0.218857621,-0.004144903,-0.001704373
-0.000212781,0.218814339,-0.003953187,-0.001400321
-0.000181793,0.218773645,-0.003761244,-0.001096723
-0.000150554,0.218735527,-0.00356908,-0.000793586
-0.000119064,0.218699974,-0.003376701,-0.00049092
-8.73E-05,0.218666975,-0.003184116,-0.000188735
-5.53E-05,0.218636516,-0.002991331,0.00011296
-2.31E-05,0.218608586,-0.002798353,0.000414156
9.38E-06,0.21858317,-0.002605188,0.000714844
4.21E-05,0.218560258,-0.002411843,0.001015015
7.51E-05,0.218539835,-0.002218324,0.00131466
0.000108286,0.21852189,-0.00202464,0.001613769
0.000141738,0.218506413,-0.001830796,0.001912334
0.000175431,0.218493391,-0.001636798,0.002210346
0.000209362,0.218482813,-0.001442655,0.002507796
0.000243529,0.218474667,-0.001248372,0.002804675
0.000277932,0.218468943,-0.001053955,0.003100975
0.000312569,0.218465631,-0.000859412,0.003396685
0.00034744,0.218464722,-0.000664748,0.003691799
0.000382541,0.218466207,-0.00046997,0.003986308
0.000417873,0.218470077,-0.000275083,0.004280202
0.000453434,0.218476324,-8.01E-05,0.004573475
0.000489223,0.218484939,0.00011499,0.004866118
0.000525239,0.218495912,0.000310165,0.005158122
0.000561481,0.218509233,0.000505423,0.005449481
0.000597949,0.218524894,0.000700759,0.005740185
0.000634641,0.218542884,0.000896167,0.006030227
0.000671556,0.218563196,0.001091641,0.006319599
0.000708695,0.21858582,0.001287176,0.006608294
0.000746056,0.218610747,0.001482765,0.006896304
0.000783638,0.218637966,0.001678402,0.007183621
0.000821441,0.218667469,0.001874083,0.007470239
0.000859464,0.218699243,0.002069802,0.007756148
0.000897707,0.218733278,0.002265552,0.008041343
0.000936169,0.218769564,0.00246133,0.008325815
0.000974849,0.218808092,0.002657129,0.008609557
0.001013747,0.21884885,0.002852945,0.008892562
0.001052862,0.218891828,0.003048774,0.009174823
0.001092193,0.218937018,0.003244611,0.009456333
0.001131741,0.218984407,0.003440451,0.009737085
0.001171505,0.219033985,0.003636289,0.010017072
0.001211484,0.219085743,0.003832123,0.010296286
0.001251677,0.219139668,0.004027947,0.010574721
0.001292084,0.219195751,0.004223756,0.01085237
0.001332705,0.219253984,0.004419548,0.011129226
0.001373538,0.219314361,0.004615317,0.011405282
0.001414585,0.219376875,0.004811058,0.011680531
0.001455843,0.219441523,0.005006769,0.011954967
0.001497312,0.219508301,0.005202443,0.012228581
0.001538993,0.219577203,0.005398078,0.012501369
0.001580884,0.219648229,0.005593668,0.012773323
0.001622985,0.219721375,0.005789209,0.013044436
0.001665295,0.21979664,0.005984697,0.013314702
0.001707813,0.219874022,0.006180128,0.013584115
0.00175054,0.21995352,0.006375497,0.013852668
0.001793475,0.22003513,0.006570799,0.014120356
0.001836616,0.220118851,0.006766032,0.014387171
0.001879964,0.220204677,0.006961191,0.014653108
0.001923517,0.220292605,0.007156272,0.01491816
0.001967276,0.22038263,0.007351272,0.015182322
0.002011238,0.220474748,0.007546186,0.015445586
0.002055404,0.220568954,0.007741009,0.015707947
0.002099773,0.220665243,0.00793574,0.015969398
0.002144343,0.220763608,0.008130372,0.016229934
0.002189115,0.220864044,0.008324902,0.016489548
0.002234087,0.220966542,0.008519326,0.016748234
0.002279259,0.221071098,0.00871364,0.017005987
0.002324631,0.221177704,0.00890784,0.017262799
0.002370201,0.221286353,0.009101923,0.017518665
0.002415968,0.221397038,0.009295884,0.017773579
0.002461933,0.221509751,0.009489722,0.018027535
0.002508094,0.221624485,0.009683432,0.018280527
0.002554451,0.221741229,0.009877011,0.01853255
0.002601003,0.221859974,0.010070455,0.018783597
0.00264775,0.22198071,0.010263761,0.019033663
0.002694691,0.222103425,0.010456925,0.019282743
0.002741825,0.222228108,0.010649945,0.019530831
0.002789152,0.222354749,0.010842815,0.019777921
0.002836671,0.222483335,0.011035534,0.020024009
0.002884381,0.222613855,0.011228096,0.020269089
0.002932283,0.222746295,0.011420498,0.020513157
0.002980375,0.222880644,0.011612737,0.020756206
0.003028656,0.223016886,0.011804808,0.020998232
0.003077127,0.22315501,0.011996707,0.02123923
0.003125785,0.223295001,0.01218843,0.021479196
0.003174632,0.223436846,0.012379975,0.021718125
0.003223664,0.223580532,0.012571336,0.021956013
0.003272883,0.223726046,0.012762511,0.022192855
0.003322286,0.223873375,0.012953495,0.022428647
0.003371873,0.224022504,0.013144286,0.022663384
0.003421643,0.22417342,0.013334878,0.022897064
0.003471595,0.224326108,0.013525269,0.02312968
0.003521726,0.224480554,0.013715455,0.02336123
0.003572038,0.224636743,0.013905431,0.023591709
0.003622527,0.224794659,0.014095193,0.023821113
0.003673193,0.22495429,0.014284737,0.024049438
0.003724034,0.225115618,0.01447406,0.024276681
0.003775049,0.22527863,0.014663158,0.024502836
0.003826237,0.225443308,0.014852026,0.024727901
0.003877597,0.225609637,0.015040661,0.024951871
0.003929126,0.225777601,0.015229059,0.025174743
0.003980823,0.225947186,0.015417216,0.025396513
0.004032688,0.226118377,0.015605128,0.025617176
0.004084717,0.226291161,0.015792791,0.025836731
0.004136911,0.226465524,0.015980202,0.026055172
0.004189266,0.226641452,0.016167355,0.026272496
0.004241782,0.226818931,0.016354247,0.0264887
0.004294456,0.226997947,0.016540874,0.026703781
0.004347288,0.227178487,0.016727231,0.026917733
0.004400274,0.227360537,0.016913314,0.027130555
0.004453414,0.227544083,0.017099119,0.027342241
0.004506706,0.227729111,0.017284642,0.02755279
0.004560147,0.227915608,0.017469878,0.027762197
0.004613737,0.228103559,0.017654824,0.027970459
0.004667472,0.228292948,0.017839475,0.028177573
0.004721352,0.22848376,0.018023827,0.028383535
0.004775373,0.228675979,0.018207876,0.028588342
0.004829535,0.228869591,0.018391618,0.028791992
0.004883835,0.229064582,0.01857505,0.028994481
0.004938271,0.229260938,0.018758169,0.029195806
0.004992842,0.229458647,0.018940969,0.029395965
0.005047545,0.229657697,0.019123449,0.029594955
0.005102379,0.229858074,0.019305603,0.029792773
0.00515734,0.230059766,0.019487429,0.029989417
0.005212429,0.230262761,0.019668923,0.030184884
0.005267642,0.230467046,0.019850081,0.030379171
0.005322978,0.230672609,0.020030898,0.030572276
0.005378434,0.230879438,0.020211371,0.030764197
0.005434008,0.231087519,0.020391497,0.030954932
0.005489699,0.231296838,0.02057127,0.031144478
0.005545504,0.231507381,0.020750688,0.031332833
0.005601421,0.231719134,0.020929745,0.031519995
0.005657448,0.231932083,0.021108439,0.031705962
0.005713583,0.232146212,0.021286765,0.031890731
0.005769824,0.232361509,0.021464719,0.032074302
0.005826169,0.23257796,0.021642298,0.032256672
0.005882615,0.23279555,0.0218195,0.032437839
0.005939161,0.233014267,0.02199632,0.032617803
0.005995804,0.233234096,0.022172755,0.032796562
0.006052543,0.233455023,0.022348803,0.032974113
0.006109375,0.233677035,0.02252446,0.033150457
0.006166298,0.233900118,0.022699722,0.033325592
0.00622331,0.234124256,0.022874587,0.033499515
0.006280408,0.234349438,0.023049051,0.033672227
0.006337592,0.23457565,0.02322311,0.033843726
0.006394857,0.234802878,0.023396762,0.03401401
0.006452203,0.235031108,0.023570002,0.034183079
0.006509626,0.235260324,0.023742826,0.034350931
0.006567124,0.235490512,0.023915232,0.034517565
0.006624696,0.235721656,0.024087217,0.03468298
0.006682338,0.23595374,0.024258776,0.034847176
0.006740049,0.236186749,0.024429908,0.03501015
0.006797826,0.236420666,0.024600609,0.035171903
0.006855667,0.236655475,0.024770877,0.035332434
0.006913569,0.236891162,0.024940709,0.035491741
0.006971531,0.23712771,0.025110101,0.035649825
0.007029549,0.237365103,0.025279051,0.035806685
0.007087623,0.237603326,0.025447557,0.035962319
0.007145749,0.237842362,0.025615615,0.036116727
0.007203926,0.238082195,0.025783223,0.036269909
0.007262151,0.238322808,0.025950377,0.036421864
0.007320422,0.238564187,0.026117076,0.036572592
0.007378736,0.238806316,0.026283315,0.036722093
0.007437092,0.239049178,0.026449093,0.036870365
0.007495486,0.239292756,0.026614406,0.037017408
0.007553918,0.239537036,0.026779253,0.037163223
0.007612383,0.239782,0.02694363,0.037307808
0.007670881,0.240027633,0.027107535,0.037451164
0.007729408,0.240273922,0.027270966,0.037593291
0.007787962,0.24052085,0.02743392,0.037734188
0.007846541,0.240768404,0.027596395,0.037873857
0.007905143,0.24101657,0.027758388,0.038012296
0.007963765,0.241265333,0.027919897,0.038149506
0.008022406,0.241514678,0.028080919,0.038285488
0.008081062,0.241764589,0.028241452,0.038420242
0.008139733,0.242015052,0.028401493,0.038553768
0.008198415,0.242266051,0.028561039,0.038686067
0.008257107,0.242517571,0.028720088,0.038817139
0.008315806,0.242769599,0.028878636,0.038946984
0.008374511,0.243022118,0.029036682,0.039075603
0.00843322,0.243275113,0.029194221,0.039202997
0.008491931,0.243528568,0.029351253,0.039329167
0.008550642,0.243782468,0.029507773,0.039454111
0.008609351,0.244036798,0.029663781,0.039577832
0.008668057,0.244291543,0.029819274,0.03970033
0.008726758,0.244546688,0.029974248,0.039821606
0.008785453,0.24480222,0.030128704,0.03994166
0.00884414,0.245058123,0.030282637,0.040060494
0.008902817,0.245314384,0.030436048,0.040178108
0.008961483,0.245570985,0.030588934,0.040294505
0.009020137,0.245827913,0.030741294,0.040409684
0.009078777,0.246085152,0.030893127,0.040523647
0.009137402,0.246342685,0.031044431,0.040636395
0.00919601,0.246600498,0.031195205,0.040747929
0.009254599,0.246858575,0.031345448,0.040858251
0.009313169,0.247116902,0.031495158,0.040967362
0.009371717,0.247375462,0.031644333,0.041075263
0.009430242,0.24763424,0.031792973,0.041181957
0.009488743,0.247893218,0.031941077,0.041287445
0.009547217,0.24815238,0.032088642,0.041391729
0.009605663,0.248411711,0.03223567,0.041494811
0.009664079,0.248671195,0.032382159,0.041596692
0.009722464,0.248930816,0.032528108,0.041697375
0.009780816,0.249190561,0.032673517,0.041796863
0.009839133,0.249450416,0.032818386,0.041895156
0.009897414,0.249710366,0.032962712,0.041992257
0.009955658,0.249970399,0.033106497,0.042088169
0.010013862,0.250230501,0.033249738,0.042182894
0.010072027,0.25049066,0.033392435,0.042276433
0.010130149,0.250750868,0.033534588,0.04236879
0.010188228,0.251011115,0.033676194,0.042459965
0.010246264,0.251271392,0.033817255,0.042549963
0.010304254,0.25153169,0.033957769,0.042638784
0.010362199,0.251792001,0.034097735,0.042726432
0.010420096,0.252052314,0.034237152,0.042812909
0.010477945,0.252312621,0.03437602,0.042898216
0.010535745,0.252572911,0.034514338,0.042982358
0.010593495,0.252833177,0.034652105,0.043065336
0.010651193,0.253093411,0.034789321,0.043147153
0.010708838,0.253353605,0.034925984,0.043227812
0.01076643,0.253613753,0.035062094,0.043307315
0.010823967,0.253873847,0.03519765,0.043385666
0.010881448,0.254133878,0.035332652,0.043462867
0.010938871,0.254393838,0.035467099,0.043538921
0.010996235,0.254653717,0.03560099,0.043613831
0.011053539,0.254913508,0.035734325,0.043687599
0.011110782,0.2551732,0.035867103,0.043760229
0.011167961,0.255432784,0.035999325,0.043831722
0.011225077,0.255692252,0.036130988,0.043902083
0.011282127,0.255951593,0.036262093,0.043971314
0.01133911,0.256210798,0.03639264,0.044039418
0.011396026,0.256469857,0.036522627,0.044106398
0.011452871,0.256728758,0.036652055,0.044172257
0.011509646,0.256987492,0.036780923,0.044236998
0.011566348,0.25724605,0.036909231,0.044300624
0.011622977,0.257504421,0.037036978,0.044363139
0.011679532,0.257762596,0.037164166,0.044424545
0.01173601,0.258020567,0.037290793,0.044484847
0.011792411,0.258278324,0.037416861,0.044544048
0.011848733,0.258535858,0.037542367,0.044602152
0.011904975,0.258793159,0.037667313,0.044659161
0.011961136,0.259050216,0.037791699,0.044715079
0.012017216,0.259307019,0.037915523,0.04476991
0.012073212,0.25956356,0.038038786,0.044823658
0.012129124,0.259819829,0.038161489,0.044876325
0.012184951,0.260075814,0.038283632,0.044927915
0.012240692,0.260331507,0.038405215,0.044978433
0.012296346,0.260586896,0.038526238,0.045027882
0.012351912,0.260841971,0.038646703,0.045076265
0.01240739,0.261096721,0.038766609,0.045123586
0.012462777,0.261351134,0.038885958,0.045169849
0.012518074,0.261605202,0.03900475,0.045215059
0.01257328,0.261858916,0.039122985,0.045259218
0.012628393,0.262112265,0.039240666,0.045302331
0.012683413,0.26236524,0.039357791,0.045344402
0.012738338,0.262617832,0.039474362,0.045385435
0.012793168,0.26287003,0.039590379,0.045425434
0.012847902,0.263121823,0.039705843,0.045464403
0.012902539,0.263373201,0.039820754,0.045502345
0.012957077,0.263624154,0.039935114,0.045539264
0.013011516,0.263874672,0.040048923,0.045575166
0.013065856,0.264124745,0.040162181,0.045610052
0.013120093,0.26437436,0.04027489,0.045643928
0.013174229,0.264623508,0.040387048,0.045676797
0.013228261,0.264872176,0.040498658,0.045708662
0.013282188,0.265120353,0.040609718,0.045739528
0.01333601,0.265368028,0.040720229,0.045769399
0.013389725,0.26561519,0.040830191,0.045798278
0.013443332,0.265861829,0.040939604,0.04582617
0.013496829,0.266107935,0.041048469,0.045853078
0.013550217,0.266353499,0.041156785,0.045879007
0.013603492,0.266598511,0.041264554,0.045903959
0.013656655,0.266842958,0.041371774,0.04592794
0.013709703,0.26708683,0.041478445,0.045950953
0.013762636,0.267330115,0.041584569,0.045973001
0.013815452,0.267572802,0.041690143,0.045994089
0.013868151,0.267814878,0.041795169,0.046014219
0.01392073,0.268056333,0.041899645,0.046033397
0.01397319,0.268297154,0.042003571,0.046051624
0.014025529,0.26853733,0.042106946,0.046068906
0.014077746,0.268776848,0.04220977,0.046085246
0.01412984,0.269015696,0.042312041,0.046100646
0.01418181,0.26925386,0.042413759,0.046115112
0.014233654,0.269491328,0.042514924,0.046128646
0.014285372,0.269728089,0.042615534,0.046141253
0.014336962,0.269964131,0.04271559,0.046152936
0.014388423,0.270199443,0.042815091,0.046163699
0.014439754,0.270434012,0.042914037,0.046173546
0.014490953,0.270667829,0.043012426,0.046182481
0.01454202,0.27090088,0.043110259,0.046190508
0.014592952,0.271133154,0.043207535,0.04619763
0.014643748,0.271364639,0.043304254,0.046203851
0.014694407,0.271595322,0.043400414,0.046209176
0.014744928,0.271825194,0.043496014,0.046213608
0.014795309,0.272054241,0.043591054,0.04621715
0.014845548,0.272282454,0.043685533,0.046219807
0.014895645,0.272509822,0.04377945,0.046221583
0.014945597,0.272736332,0.043872803,0.046222481
0.014995403,0.272961973,0.043965592,0.046222505
0.015045062,0.273186734,0.044057816,0.046221658
0.015094573,0.273410605,0.044149473,0.046219945
0.015143933,0.273633574,0.044240563,0.04621737
0.015193142,0.273855633,0.044331084,0.046213935
0.015242198,0.274076771,0.044421036,0.046209645
0.015291099,0.274296979,0.044510417,0.046204504
0.015339845,0.274516247,0.044599228,0.046198516
0.015388432,0.274734565,0.044687467,0.046191685
0.01543686,0.274951924,0.044775134,0.046184013
0.015485128,0.275168313,0.044862228,0.046175506
0.015533233,0.275383723,0.044948749,0.046166168
0.015581175,0.275598144,0.045034697,0.046156002
0.015628951,0.275811566,0.045120072,0.046145012
0.01567656,0.276023979,0.045204874,0.046133203
0.015724002,0.276235373,0.045289104,0.046120579
0.015771273,0.276445738,0.045372763,0.046107143
0.015818373,0.276655063,0.04545585,0.046092901
0.015865301,0.276863339,0.045538368,0.046077856
0.015912055,0.27707056,0.045620317,0.046062013
0.015958633,0.277276717,0.045701698,0.046045376
0.016005036,0.277481805,0.045782514,0.04602795
0.016051262,0.277685814,0.045862765,0.046009739
0.01609731,0.27788874,0.045942453,0.045990747
0.016143178,0.278090574,0.046021579,0.045970979
0.016188867,0.278291311,0.046100146,0.045950439
0.016234375,0.278490941,0.046178153,0.045929132
0.0162797,0.27868946,0.046255604,0.045907062
0.016324844,0.278886859,0.046332499,0.045884234
0.016369803,0.279083131,0.04640884,0.045860651
0.016414579,0.279278269,0.046484628,0.045836319
0.016459169,0.279472266,0.046559865,0.045811241
0.016503574,0.279665113,0.046634553,0.045785422
0.016547793,0.279856803,0.046708693,0.045758866
0.016591824,0.280047328,0.046782288,0.045731577
0.016635668,0.280236679,0.046855339,0.04570356
0.016679322,0.280424851,0.04692785,0.045674818
0.016722788,0.280611836,0.046999824,0.045645356
0.016766063,0.280797627,0.047071264,0.045615178
0.016809147,0.280982219,0.047142172,0.045584288
0.01685204,0.281165604,0.047212553,0.04555269
0.01689474,0.281347775,0.047282407,0.045520389
0.016937246,0.281528724,0.047351739,0.045487389
0.016979557,0.281708445,0.047420549,0.045453693
0.017021673,0.28188693,0.047488841,0.045419306
0.017063593,0.282064171,0.047556616,0.045384232
0.017105315,0.282240163,0.047623878,0.045348475
0.017146839,0.282414897,0.047690627,0.045312039
0.017188163,0.282588367,0.047756866,0.045274928
0.017229288,0.282760565,0.047822596,0.045237146
0.01727021,0.282931483,0.047887821,0.045198697
0.017310931,0.283101114,0.047952541,0.045159585
0.017351448,0.283269451,0.048016759,0.045119815
0.01739176,0.283436488,0.048080476,0.04507939
0.017431867,0.283602219,0.048143695,0.045038314
0.017471767,0.283766637,0.048206417,0.044996592
0.01751146,0.283929737,0.048268645,0.044954227
0.017550944,0.284091513,0.04833038,0.044911225
0.017590218,0.284251958,0.048391625,0.044867588
0.017629281,0.284411066,0.04845238,0.044823321
0.017668133,0.28456883,0.048512648,0.044778427
0.017706772,0.284725243,0.048572429,0.044732912
0.017745198,0.2848803,0.048631726,0.044686778
0.01778341,0.285033996,0.048690539,0.044640031
0.017821407,0.285186323,0.048748869,0.044592673
0.017859187,0.285337278,0.048806718,0.044544708
0.017896751,0.285486854,0.048864087,0.044496142
0.017934097,0.285635046,0.048920976,0.044446977
0.017971224,0.285781849,0.048977387,0.044397218
0.018008131,0.285927259,0.04903332,0.044346868
0.018044817,0.286071271,0.049088778,0.044295932
0.018081282,0.286213881,0.04914376,0.044244414
0.018117525,0.286355085,0.049198269,0.044192318
0.018153545,0.286494879,0.049252304,0.044139648
0.01818934,0.286633259,0.049305869,0.04408641
0.018224911,0.28677022,0.049358962,0.044032606
0.018260257,0.286905757,0.049411586,0.043978241
0.018295376,0.287039865,0.049463741,0.04392332
0.018330269,0.287172541,0.049515429,0.043867846
0.018364934,0.287303779,0.04956665,0.043811825
0.018399373,0.287433576,0.049617405,0.043755261
0.018433583,0.287561928,0.049667697,0.043698158
0.018467566,0.28768883,0.049717525,0.04364052
0.01850132,0.287814277,0.049766892,0.043582352
0.018534846,0.287938264,0.0498158,0.043523658
0.018568144,0.288060788,0.04986425,0.043464442
0.018601214,0.288181842,0.049912243,0.043404709
0.018634056,0.288301425,0.049959782,0.043344464
0.018666671,0.288419531,0.050006867,0.04328371
0.018699058,0.288536159,0.050053501,0.043222452
0.018731219,0.288651305,0.050099685,0.043160694
0.018763152,0.288764964,0.05014542,0.043098442
0.018794858,0.288877134,0.050190707,0.043035699
0.018826338,0.288987811,0.050235547,0.042972469
0.018857592,0.28909699,0.050279942,0.042908758
0.01888862,0.289204669,0.050323892,0.042844569
0.018919423,0.289310843,0.050367398,0.042779907
0.018950001,0.289415509,0.050410462,0.042714776
0.018980353,0.289518664,0.050453085,0.04264918
0.019010482,0.289620304,0.050495267,0.042583125
0.019040386,0.289720424,0.050537009,0.042516613
0.019070067,0.289819021,0.050578312,0.042449649
0.019099524,0.289916093,0.050619178,0.042382238
0.019128758,0.290011635,0.050659608,0.042314384
0.019157769,0.290105647,0.050699602,0.042246091
0.019186558,0.290198125,0.050739162,0.042177365
0.019215123,0.290289069,0.050778289,0.042108209
0.019243467,0.290378475,0.050816984,0.042038628
0.019271588,0.290466342,0.050855249,0.041968626
0.019299488,0.290552665,0.050893084,0.041898209
0.019327165,0.290637443,0.050930491,0.04182738
0.019354621,0.290720674,0.050967471,0.041756143
0.019381855,0.290802354,0.051004025,0.041684504
0.019408867,0.290882484,0.051040153,0.041612467
0.019435658,0.290961061,0.051075856,0.041540036
0.019462227,0.291038084,0.051111136,0.041467216
0.019488575,0.291113549,0.051145993,0.041394011
0.0195147,0.291187457,0.051180427,0.041320425
0.019540604,0.291259803,0.05121444,0.041246462
0.019566285,0.291330586,0.051248033,0.041172128
0.019591745,0.291399806,0.051281206,0.041097426
0.019616982,0.291467463,0.051313961,0.04102236
0.019641996,0.291533556,0.051346299,0.040946936
0.019666788,0.291598086,0.051378221,0.040871158
0.019691357,0.291661053,0.051409729,0.040795029
0.019715702,0.291722457,0.051440823,0.040718555
0.019739824,0.291782297,0.051471504,0.04064174
0.019763723,0.291840575,0.051501773,0.040564588
0.019787399,0.291897291,0.051531631,0.040487104
0.019810851,0.291952445,0.05156108,0.040409292
0.01983408,0.292006038,0.051590119,0.040331156
0.019857085,0.29205807,0.051618749,0.040252701
0.019879867,0.292108543,0.051646972,0.040173931
0.019902426,0.292157453,0.051674787,0.04009485
0.019924761,0.292204802,0.051702195,0.040015463
0.019946872,0.292250586,0.051729197,0.039935774
0.019968759,0.292294804,0.051755794,0.039855787
0.019990422,0.292337455,0.051781987,0.039775507
0.020011862,0.292378538,0.051807777,0.039694939
0.020033077,0.292418052,0.051833165,0.039614086
0.020054068,0.292455997,0.051858151,0.039532954
0.020074835,0.292492372,0.051882737,0.039451546
0.020095377,0.292527175,0.051906925,0.039369868
0.020115693,0.292560405,0.051930714,0.039287923
0.020135785,0.29259206,0.051954108,0.039205716
0.020155652,0.29262214,0.051977105,0.039123252
0.020175292,0.292650643,0.051999709,0.039040534
0.020194707,0.29267757,0.05202192,0.038957568
0.020213895,0.29270292,0.05204374,0.038874358
0.020232858,0.29272669,0.052065169,0.038790907
0.020251593,0.292748881,0.052086208,0.038707221
0.020270101,0.292769491,0.05210686,0.038623303
0.020288383,0.292788519,0.052127124,0.038539158
0.020306437,0.292805965,0.052147002,0.038454791
0.020324264,0.292821829,0.052166494,0.038370205
0.020341864,0.292836112,0.052185603,0.038285404
0.020359236,0.292848815,0.052204328,0.038200394
0.020376381,0.292859936,0.052222672,0.038115179
0.020393298,0.292869477,0.052240635,0.038029762
0.020409989,0.292877438,0.052258218,0.037944148
0.020426452,0.292883817,0.052275424,0.03785834
0.020442689,0.292888614,0.052292252,0.037772344
0.020458699,0.292891831,0.052308704,0.037686163
0.020474483,0.292893465,0.052324781,0.037599802
0.02049004,0.292893518,0.052340486,0.037513264
0.020505372,0.29289199,0.052355817,0.037426553
0.020520478,0.292888878,0.052370778,0.037339674
0.020535358,0.292884184,0.052385368,0.03725263
0.020550014,0.292877907,0.05239959,0.037165425
0.020564445,0.292870046,0.052413443,0.037078063
0.020578653,0.292860602,0.052426931,0.036990548
0.020592636,0.292849575,0.052440054,0.036902884
0.020606396,0.292836963,0.052452814,0.036815075
0.020619933,0.292822767,0.052465211,0.036727125
0.020633247,0.292806985,0.052477248,0.036639038
0.020646339,0.292789616,0.052488926,0.036550818
0.020659209,0.292770659,0.052500245,0.036462468
0.020671857,0.292750113,0.052511207,0.036373994
0.020684284,0.292727976,0.052521813,0.036285397
0.02069649,0.292704246,0.052532063,0.036196683
0.020708474,0.292678923,0.05254196,0.036107855
0.020720238,0.292652005,0.052551502,0.036018916
0.020731781,0.292623489,0.052560691,0.035929871
0.020743105,0.292593374,0.052569528,0.035840722
0.020754208,0.292561658,0.052578013,0.035751475
0.020765092,0.292528338,0.052586148,0.035662131
0.020775756,0.292493413,0.052593933,0.035572696
0.020786201,0.292456884,0.05260137,0.035483172
0.020796428,0.29241875,0.05260846,0.035393564
0.020806435,0.292379012,0.052615204,0.035303876
0.020816224,0.29233767,0.052621604,0.035214111
0.020825795,0.292294723,0.052627661,0.035124272
0.020835148,0.292250172,0.052633375,0.035034365
0.020844282,0.292204018,0.052638748,0.034944392
0.020853199,0.292156259,0.052643782,0.034854357
0.020861897,0.292106898,0.052648476,0.034764265
0.020870378,0.292055935,0.052652832,0.034674117
0.020878641,0.292003371,0.052656851,0.034583919
0.020886687,0.291949207,0.052660533,0.034493674
0.020894516,0.291893445,0.052663879,0.034403385
0.020902127,0.291836084,0.05266689,0.034313056
0.020909521,0.291777125,0.052669566,0.03422269
0.020916699,0.291716569,0.052671908,0.034132291
0.02092366,0.291654418,0.052673916,0.034041862
0.020930405,0.291590672,0.05267559,0.033951407
0.020936934,0.291525335,0.052676932,0.033860929
0.020943247,0.29145841,0.052677941,0.033770431
0.020949345,0.291389898,0.052678618,0.033679918
0.020955227,0.291319801,0.052678964,0.033589392
0.020960894,0.291248122,0.052678979,0.033498857
0.020966345,0.291174863,0.052678664,0.033408316
0.020971582,0.291100026,0.052678021,0.033317773
0.020976604,0.291023614,0.052677049,0.033227231
0.020981412,0.29094563,0.052675749,0.033136692
0.020986006,0.290866078,0.052674122,0.033046162
0.020990386,0.290784961,0.052672169,0.032955642
0.020994553,0.290702281,0.052669888,0.032865137
0.020998508,0.29061804,0.052667282,0.032774649
0.021002251,0.290532243,0.052664349,0.032684181
0.021005782,0.290444893,0.052661092,0.032593737
0.021009103,0.290355995,0.052657508,0.03250332
0.021012215,0.290265554,0.052653601,0.032412932
0.021015119,0.290173575,0.052649368,0.032322578
0.021017815,0.290080063,0.052644812,0.032232261
0.021020306,0.289985023,0.052639932,0.032141982
0.021022592,0.289888458,0.052634727,0.032051747
0.021024674,0.289790374,0.0526292,0.031961557
0.021026555,0.289690774,0.052623348,0.031871415
0.021028235,0.289589662,0.052617172,0.031781325
0.021029715,0.289487045,0.052610673,0.031691289
0.021030997,0.289382925,0.052603849,0.031601309
0.021032082,0.289277309,0.052596701,0.03151139
0.021032971,0.289170198,0.052589227,0.031421533
0.021033666,0.289061597,0.052581429,0.031331741
0.021034167,0.288951509,0.052573305,0.031242017
0.021034477,0.288839937,0.052564856,0.031152364
0.021034595,0.288726886,0.052556081,0.031062785
0.021034524,0.28861236,0.05254698,0.030973282
0.021034264,0.288496365,0.052537553,0.030883858
0.021033817,0.288378905,0.052527801,0.030794516
0.021033182,0.288259984,0.052517724,0.030705258
0.021032362,0.288139608,0.052507321,0.030616089
0.021031357,0.288017779,0.052496594,0.03052701
0.021030168,0.287894503,0.05248554,0.030438024
0.021028796,0.287769784,0.052474162,0.030349134
0.021027241,0.287643625,0.052462458,0.030260342
0.021025506,0.287516032,0.052450428,0.030171651
0.02102359,0.28738701,0.052438072,0.030083064
0.021021494,0.287256561,0.05242539,0.029994584
0.02101922,0.287124692,0.05241238,0.029906213
0.021016767,0.286991405,0.052399043,0.029817953
0.021014137,0.286856705,0.052385377,0.029729807
0.021011331,0.286720596,0.052371383,0.029641777
0.02100835,0.286583084,0.05235706,0.029553867
0.021005194,0.286444175,0.052342407,0.029466078
0.021001865,0.286303874,0.052327424,0.029378413
0.020998363,0.286162188,0.052312113,0.029290874
0.02099469,0.286019123,0.052296473,0.029203464
0.020990846,0.285874686,0.052280505,0.029116185
0.020986833,0.285728882,0.052264209,0.02902904
0.020982651,0.285581718,0.052247586,0.028942031
0.020978302,0.285433199,0.052230636,0.02885516
0.020973786,0.285283333,0.052213359,0.028768429
0.020969105,0.285132127,0.052195756,0.028681842
0.020964259,0.284979586,0.052177827,0.0285954
0.020959249,0.284825718,0.052159571,0.028509104
0.020954076,0.284670528,0.052140988,0.028422959
0.020948742,0.284514023,0.052122079,0.028336964
0.020943246,0.284356208,0.052102843,0.028251123
0.020937589,0.284197092,0.05208328,0.028165437
0.020931773,0.284036681,0.052063391,0.02807991
0.020925798,0.283874983,0.052043174,0.027994541
0.020919664,0.283712005,0.05202263,0.027909335
0.020913373,0.283547755,0.05200176,0.027824292
0.020906925,0.28338224,0.051980562,0.027739415
0.02090032,0.283215466,0.051959037,0.027654706
0.020893559,0.283047441,0.051937186,0.027570166
0.020886642,0.28287817,0.051915007,0.027485797
0.020879571,0.282707661,0.051892501,0.0274016
0.020872346,0.282535922,0.051869668,0.027317579
0.020864966,0.28236296,0.051846507,0.027233734
0.020857434,0.282188782,0.05182302,0.027150067
0.020849749,0.282013395,0.051799207,0.027066579
0.020841913,0.281836806,0.051775069,0.026983274
0.020833926,0.281659022,0.051750607,0.026900151
0.020825789,0.281480049,0.051725822,0.026817213
0.020817503,0.281299895,0.051700714,0.026734461
0.02080907,0.281118568,0.051675284,0.026651897
0.020800489,0.280936078,0.051649534,0.026569522
0.020791763,0.280752432,0.051623463,0.026487338
0.020782892,0.280567641,0.051597072,0.026405347
0.020773877,0.280381711,0.051570363,0.02632355
0.020764719,0.280194651,0.051543334,0.026241948
0.020755418,0.28000647,0.051515987,0.026160545
0.020745976,0.279817176,0.051488323,0.02607934
0.020736394,0.279626778,0.051460341,0.025998337
0.020726671,0.279435283,0.051432042,0.025917536
0.02071681,0.279242701,0.051403427,0.025836939
0.02070681,0.279049039,0.051374497,0.025756547
0.020696672,0.278854306,0.051345253,0.025676363
0.020686398,0.278658507,0.051315696,0.025596388
0.020675988,0.27846165,0.051285827,0.025516623
0.020665442,0.278263743,0.051255649,0.02543707
0.020654761,0.278064794,0.051225164,0.02535773
0.020643946,0.277864809,0.051194374,0.025278605
0.020632998,0.277663799,0.051163281,0.025199697
0.020621916,0.27746177,0.051131887,0.025121006
0.020610702,0.277258729,0.051100195,0.025042535
0.020599355,0.277054685,0.051068205,0.024964285
0.020587877,0.276849644,0.051035921,0.024886257
0.020576269,0.276643613,0.051003343,0.024808452
0.020564529,0.2764366,0.050970474,0.024730872
0.02055266,0.276228614,0.050937316,0.024653518
0.020540662,0.27601966,0.05090387,0.024576391
0.020528536,0.275809749,0.050870137,0.024499492
0.020516282,0.275598887,0.05083612,0.024422822
0.0205039,0.275387081,0.050801819,0.024346383
0.020491393,0.275174339,0.050767237,0.024270175
0.020478759,0.27496067,0.050732374,0.024194199
0.020466,0.274746081,0.050697233,0.024118457
0.020453116,0.274530582,0.050661816,0.02404295
0.020440108,0.274314182,0.050626123,0.023967679
0.020426976,0.27409689,0.050590156,0.023892644
0.020413722,0.273878717,0.050553918,0.023817847
0.020400344,0.27365967,0.05051741,0.023743289
0.020386845,0.273439759,0.050480633,0.023668971
0.020373225,0.273218993,0.050443589,0.023594894
0.020359484,0.272997379,0.05040628,0.023521059
0.020345623,0.272774928,0.050368705,0.023447467
0.020331643,0.272551647,0.050330868,0.023374117
0.020317544,0.272327547,0.050292769,0.023301013
0.020303327,0.272102637,0.050254408,0.023228154
0.020288992,0.271876925,0.050215788,0.02315554
0.02027454,0.271650422,0.050176908,0.023083174
0.020259972,0.271423135,0.050137771,0.023011056
0.020245288,0.271195077,0.050098378,0.022939186
0.020230488,0.270966257,0.050058729,0.022867566
0.020215573,0.270736686,0.050018827,0.022796197
0.020200543,0.270506375,0.049978673,0.022725079
0.020185399,0.270275335,0.049938267,0.022654214
0.020170142,0.270043574,0.049897613,0.022583602
0.020154771,0.269811102,0.04985671,0.022513245
0.020139288,0.269577928,0.049815561,0.022443143
0.020123693,0.269344061,0.049774166,0.022373296
0.020107986,0.26910951,0.049732527,0.022303707
0.020092169,0.268874286,0.049690643,0.022234376
0.006863644,0.257009841,0.389854849,0.346271666
0.006986947,0.256891913,0.389774886,0.346346253
0.007110747,0.256771785,0.389694621,0.346422847
0.00723503,0.256649473,0.389614066,0.346501431
0.007359783,0.256524992,0.389533233,0.346581992
0.007484992,0.256398362,0.389452135,0.346664511
0.007610644,0.256269598,0.389370783,0.346748974
0.007736726,0.25613872,0.389289191,0.346835364
0.007863223,0.256005745,0.389207369,0.346923664
0.007990121,0.255870691,0.389125329,0.347013858
0.008117409,0.255733579,0.389043082,0.34710593
0.008245072,0.255594427,0.388960639,0.347199862
0.008373097,0.255453256,0.388878011,0.347295636
0.00850147,0.255310087,0.388795209,0.347393235
0.008630178,0.255164942,0.388712242,0.347492639
0.008759207,0.255017845,0.38862912,0.347593828
0.008888544,0.254868819,0.388545854,0.347696783
0.009018174,0.25471789,0.388462451,0.347801485
0.009148084,0.254565082,0.388378923,0.347907911
0.009278259,0.254410421,0.388295279,0.348016041
0.009408686,0.254253932,0.38821153,0.348125852
0.009539351,0.254095641,0.388127688,0.34823732
0.009670242,0.253935574,0.388043762,0.348350422
0.009801344,0.253773756,0.387959765,0.348465135
0.009932646,0.253610213,0.387875707,0.348581434
0.010064136,0.253444971,0.387791596,0.348699297
0.010195803,0.253278055,0.387707441,0.348818701
0.010327636,0.25310949,0.387623249,0.348939624
0.010459626,0.252939301,0.387539027,0.349062046
0.010591762,0.252767515,0.387454778,0.349185946
0.010724033,0.252594155,0.387370509,0.349311303
0.010856431,0.252419249,0.387286224,0.349438096
0.010988946,0.252242821,0.387201928,0.349566305
0.011121567,0.2520649,0.387117626,0.349695907
0.011254285,0.251885511,0.387033321,0.349826883
0.011387089,0.25170468,0.38694902,0.34995921
0.01151997,0.251522435,0.386864727,0.350092868
0.011652917,0.251338802,0.386780449,0.350227833
0.011785918,0.251153807,0.386696191,0.350364083
0.011918965,0.250967479,0.386611961,0.350501595
0.012052047,0.250779844,0.386527764,0.350640345
0.012185154,0.25059093,0.386443608,0.350780308
0.012318277,0.250400764,0.386359499,0.35092146
0.012451405,0.250209374,0.386275445,0.351063777
0.012584528,0.250016789,0.38619145,0.351207233
0.012717637,0.249823036,0.386107522,0.351351805
0.01285072,0.249628144,0.386023667,0.351497469
0.012983768,0.24943214,0.385939889,0.351644202
0.01311677,0.249235053,0.385856193,0.351791984
0.013249715,0.24903691,0.385772582,0.351940793
0.013382592,0.248837739,0.385689059,0.35209061
0.01351539,0.248637569,0.385605625,0.352241416
0.013648097,0.248436428,0.385522281,0.352393193
0.013780704,0.248234345,0.385439029,0.352545922
0.013913198,0.248031349,0.385355871,0.352699582
0.014045569,0.24782747,0.385272806,0.352854155
0.014177804,0.247622741,0.385189836,0.35300962
0.014309893,0.247417192,0.385106959,0.353165955
0.014441824,0.247210857,0.385024179,0.35332314
0.014573587,0.247003766,0.384941495,0.353481152
0.01470517,0.246795952,0.38485891,0.353639969
0.014836563,0.246587447,0.384776422,0.353799569
0.014967755,0.246378283,0.384694031,0.353959931
0.015098736,0.246168493,0.384611735,0.354121036
0.015229493,0.245958109,0.384529534,0.354282864
0.015360016,0.245747162,0.384447427,0.354445395
0.015490294,0.245535681,0.384365414,0.354608611
0.015620315,0.245323693,0.384283497,0.354772494
0.015750069,0.245111228,0.384201676,0.354937026
0.015879544,0.244898312,0.384119953,0.355102191
0.016008729,0.244684972,0.384038328,0.355267972
0.016137613,0.244471234,0.383956803,0.35543435
0.016266187,0.244257126,0.383875379,0.355601308
0.016394438,0.244042675,0.383794058,0.35576883
0.016522355,0.243827908,0.383712839,0.355936898
0.016649929,0.243612854,0.383631724,0.356105493
0.016777148,0.243397539,0.383550714,0.356274599
0.016904002,0.243181993,0.383469809,0.356444196
0.017030479,0.242966244,0.383389013,0.356614265
0.01715657,0.242750319,0.383308325,0.356784786
0.017282264,0.24253425,0.383227748,0.356955739
0.01740755,0.242318065,0.383147282,0.357127103
0.01753242,0.242101793,0.383066928,0.357298859
0.017656863,0.241885463,0.382986686,0.357470989
0.017780868,0.241669101,0.382906556,0.357643474
0.017904426,0.241452738,0.38282654,0.357816296
0.018027527,0.241236399,0.382746638,0.357989436
0.018150162,0.241020115,0.38266685,0.358162873
0.018272321,0.240803911,0.38258718,0.358336588
0.018393995,0.240587816,0.382507628,0.358510562
0.018515175,0.240371854,0.382428196,0.358684775
0.018635853,0.240156051,0.382348885,0.358859212
0.018756019,0.239940428,0.382269698,0.359033854
0.018875666,0.239725009,0.382190636,0.359208689
0.018994786,0.239509812,0.382111699,0.359383703
0.01911337,0.239294861,0.382032887,0.359558882
0.019231412,0.239080175,0.381954202,0.359734212
0.019348903,0.238865775,0.381875643,0.359909678
0.019465838,0.238651683,0.381797213,0.360085266
0.019582209,0.238437919,0.38171891,0.360260961
0.019698011,0.238224504,0.381640738,0.360436747
0.019813237,0.238011456,0.381562697,0.36061261
0.019927881,0.237798795,0.381484791,0.360788533
0.020041937,0.237586537,0.381407026,0.360964499
0.0201554,0.237374699,0.38132941,0.361140491
0.020268263,0.237163296,0.38125195,0.361316491
0.020380521,0.236952343,0.381174659,0.361492477
0.020492168,0.236741853,0.381097546,0.361668433
0.0206032,0.236531842,0.381020622,0.361844336
0.020713609,0.236322322,0.3809439,0.362020169
0.020823391,0.236113306,0.38086739,0.362195912
0.020932542,0.235904808,0.380791105,0.362371545
0.021041054,0.235696842,0.380715056,0.362547048
0.021148923,0.235489421,0.380639252,0.362722404
0.021256145,0.235282558,0.380563702,0.362897595
0.021362713,0.235076264,0.380488415,0.363072608
0.021468623,0.23487055,0.380413398,0.363247429
0.021573868,0.234665428,0.380338659,0.363422044
0.021678445,0.234460908,0.380264208,0.36359644
0.021782348,0.234257,0.380190052,0.3637706
0.021885572,0.234053714,0.380116203,0.363944511
0.021988112,0.23385106,0.380042671,0.364118157
0.022089964,0.233649047,0.379969466,0.364291523
0.022191123,0.233447684,0.379896598,0.364464595
0.022291585,0.233246981,0.379824075,0.364637359
0.022391344,0.233046945,0.379751907,0.364809803
0.022490397,0.232847585,0.379680103,0.364981915
0.022588738,0.23264891,0.379608671,0.365153681
0.022686365,0.232450927,0.379537618,0.36532509
0.022783271,0.232253644,0.379466954,0.365496131
0.022879454,0.232057067,0.379396684,0.365666795
0.022974909,0.231861202,0.379326817,0.365837071
0.023069633,0.231666056,0.37925736,0.366006951
0.023163622,0.231471634,0.379188319,0.366176425
0.023256873,0.231277944,0.379119701,0.366345482
0.023349381,0.231084992,0.379051512,0.366514115
0.023441144,0.230892785,0.378983755,0.366682316
0.02353216,0.230701329,0.378916436,0.366850075
0.023622424,0.230510631,0.378849558,0.367017387
0.023711936,0.230320696,0.378783125,0.367184243
0.023800691,0.23013153,0.378717143,0.367350636
0.023888687,0.229943136,0.378651619,0.367516558
0.023975921,0.229755517,0.378586563,0.367681998
0.024062391,0.229568677,0.378521983,0.367846948
0.024148095,0.229382618,0.378457889,0.368011398
0.02423303,0.229197343,0.378394289,0.368175338
0.024317194,0.229012856,0.37833119,0.36833876
0.024400587,0.228829159,0.378268601,0.368501654
0.024483205,0.228646255,0.378206528,0.368664012
0.024565049,0.228464148,0.378144979,0.368825823
0.024646117,0.22828284,0.378083963,0.368987079
0.024726408,0.228102335,0.378023488,0.369147769
0.024805923,0.227922634,0.37796356,0.369307884
0.024884661,0.22774374,0.377904187,0.369467412
0.024962622,0.227565655,0.377845377,0.369626345
0.025039809,0.227388384,0.377787137,0.36978467
0.025116223,0.227211927,0.377729472,0.369942378
0.025191864,0.227036288,0.37767239,0.370099458
0.025266735,0.226861469,0.377615894,0.370255902
0.025340836,0.226687472,0.377559989,0.370411703
0.025414171,0.226514296,0.377504679,0.370566853
0.025486742,0.226341942,0.377449968,0.370721348
0.02555855,0.226170407,0.377395858,0.370875185
0.025629598,0.225999691,0.377342351,0.371028361
0.025699888,0.225829789,0.377289447,0.371180877
0.025769423,0.225660696,0.377237147,0.371332734
0.025838204,0.225492406,0.377185454,0.371483937
0.025906234,0.225324912,0.377134366,0.371634487
0.025973516,0.22515821,0.377083883,0.371784391
0.026040051,0.224992291,0.377034006,0.371933652
0.026105841,0.22482715,0.376984732,0.372082277
0.02617089,0.22466278,0.376936059,0.372230271
0.026235199,0.224499174,0.376887985,0.372377642
0.026298771,0.224336325,0.376840508,0.372524396
0.026361609,0.224174226,0.376793626,0.37267054
0.026423715,0.224012867,0.376747339,0.372816079
0.026485093,0.223852239,0.376701648,0.37296102
0.026545744,0.223692331,0.376656557,0.373105368
0.026605672,0.223533133,0.376612068,0.373249126
0.02666488,0.223374634,0.376568183,0.373392302
0.026723371,0.223216824,0.376524905,0.3735349
0.026781148,0.223059692,0.376482234,0.373676926
0.026838214,0.222903229,0.37644017,0.373818387
0.026894572,0.222747424,0.376398714,0.373959291
0.026950224,0.222592268,0.376357863,0.374099645
0.027005176,0.222437754,0.376317614,0.374239456
0.027059428,0.222283875,0.376277963,0.374378733
0.027112986,0.222130624,0.376238906,0.374517485
0.027165853,0.221977993,0.376200435,0.37465572
0.027218031,0.221825973,0.376162543,0.374793453
0.027269526,0.221674556,0.376125221,0.374930698
0.027320339,0.221523732,0.376088456,0.375067473
0.027370474,0.221373493,0.376052236,0.375203797
0.027419934,0.221223829,0.37601655,0.375339688
0.027468722,0.221074731,0.375981384,0.375475164
0.02751684,0.22092619,0.375946726,0.375610245
0.027564291,0.220778198,0.375912562,0.37574495
0.027611078,0.220630746,0.37587888,0.375879296
0.027657204,0.220483827,0.375845667,0.376013303
0.027702672,0.220337431,0.375812909,0.376146988
0.027747485,0.22019155,0.375780596,0.376280369
0.027791647,0.220046177,0.375748715,0.376413462
0.027835161,0.219901306,0.375717253,0.376546281
0.02787803,0.219756931,0.375686197,0.376678842
0.02792026,0.219613047,0.375655533,0.376811161
0.027961853,0.219469648,0.375625244,0.376943254
0.028002814,0.219326729,0.375595318,0.377075139
0.028043147,0.219184285,0.375565737,0.377206831
0.028082856,0.21904231,0.375536487,0.377338347
0.028121946,0.218900801,0.375507553,0.377469701
0.028160422,0.218759751,0.375478918,0.37760091
0.028198289,0.218619155,0.375450567,0.377731989
0.028235552,0.218479007,0.375422485,0.377862955
0.028272217,0.218339303,0.375394658,0.377993822
0.028308286,0.218200036,0.375367072,0.378124606
0.028343766,0.218061201,0.375339712,0.378255321
0.028378661,0.217922791,0.375312566,0.378385982
0.028412976,0.217784799,0.37528562,0.378516605
0.028446715,0.21764722,0.375258863,0.378647202
0.028479884,0.217510048,0.375232282,0.378777787
0.028512486,0.217373279,0.375205865,0.378908369
0.028544528,0.21723691,0.375179603,0.379038959
0.028576012,0.217100936,0.375153486,0.379169566
0.028606944,0.216965356,0.375127503,0.379300197
0.028637327,0.216830169,0.375101646,0.379430858
0.028667166,0.216695374,0.375075904,0.379561556
0.028696464,0.216560972,0.375050268,0.379692296
0.028725226,0.216426963,0.375024728,0.379823084
0.028753456,0.216293348,0.374999273,0.379953923
0.028781158,0.216160127,0.374973897,0.380084818
0.028808338,0.216027301,0.37494859,0.380215771
0.028834998,0.215894871,0.374923347,0.380346784
0.028861142,0.215762839,0.374898161,0.380477857
0.028886776,0.215631206,0.374873026,0.380608991
0.028911903,0.215499977,0.374847934,0.380740186
0.028936527,0.215369155,0.374822878,0.38087144
0.028960652,0.215238748,0.374797852,0.381002749
0.02898428,0.215108761,0.374772849,0.38113411
0.029007416,0.214979199,0.374747864,0.381265521
0.029030064,0.214850068,0.37472289,0.381396979
0.029052227,0.214721374,0.374697919,0.38152848
0.029073908,0.214593125,0.374672944,0.381660023
0.029095112,0.214465325,0.374647957,0.381791605
0.029115843,0.214337982,0.374622952,0.381923223
0.029136104,0.214211099,0.374597924,0.382054874
0.029155899,0.214084682,0.374572868,0.382186552
0.029175232,0.213958734,0.37454778,0.382318254
0.029194106,0.21383326,0.374522658,0.382449976
0.029212526,0.213708264,0.374497497,0.382581713
0.029230494,0.213583751,0.374472294,0.382713461
0.029248014,0.213459725,0.374447046,0.382845215
0.02926509,0.213336192,0.37442175,0.382976968
0.029281724,0.213213157,0.374396404,0.383108715
0.029297921,0.213090626,0.374371007,0.383240446
0.029313682,0.212968605,0.374345559,0.383372154
0.02932901,0.212847096,0.374320063,0.38350383
0.02934391,0.212726105,0.374294519,0.383635465
0.029358383,0.212605635,0.374268932,0.38376705
0.029372432,0.21248569,0.374243305,0.383898573
0.02938606,0.212366273,0.374217643,0.384030025
0.029399269,0.212247387,0.374191949,0.384161394
0.029412064,0.212129037,0.374166228,0.384292672
0.029424445,0.212011224,0.374140485,0.384423847
0.029436416,0.211893953,0.374114722,0.384554908
0.029447981,0.211777228,0.374088945,0.384685846
0.02945914,0.211661054,0.374063157,0.384816649
0.029469898,0.211545437,0.374037362,0.384947304
0.029480256,0.21143038,0.374011562,0.385077802
0.029490218,0.211315889,0.37398576,0.385208133
0.029499786,0.21120197,0.373959957,0.385338287
0.029508963,0.211088628,0.373934152,0.385468257
0.029517753,0.210975869,0.373908343,0.385598035
0.029526157,0.210863699,0.373882527,0.385727617
0.029534178,0.210752125,0.3738567,0.385856997
0.029541819,0.210641152,0.373830858,0.385986171
0.029549083,0.210530786,0.373804997,0.386115134
0.029555973,0.210421032,0.373779115,0.38624388
0.029562491,0.210311897,0.373753208,0.386372404
0.029568641,0.210203384,0.373727273,0.386500701
0.029574426,0.2100955,0.373701308,0.386628766
0.029579849,0.209988247,0.37367531,0.386756594
0.029584912,0.209881631,0.373649276,0.386884181
0.029589619,0.209775654,0.373623201,0.387011525
0.029593974,0.209670322,0.373597083,0.387138622
0.029597979,0.209565637,0.373570917,0.387265467
0.029601637,0.209461604,0.373544699,0.38739206
0.029604951,0.209358228,0.373518424,0.387518397
0.029607925,0.209255513,0.373492084,0.387644478
0.02961056,0.209153464,0.373465673,0.387770302
0.02961286,0.209052087,0.373439185,0.387895868
0.029614828,0.208951385,0.373412612,0.388021175
0.029616466,0.208851363,0.373385949,0.388146222
0.029617776,0.208752024,0.373359191,0.388271009
0.029618761,0.208653372,0.373332334,0.388395532
0.029619425,0.20855541,0.373305379,0.388519786
0.029619768,0.208458141,0.373278326,0.388643766
0.029619792,0.208361568,0.373251175,0.388767464
0.0296195,0.208265696,0.373223932,0.388890872
0.029618893,0.208170527,0.373196599,0.38901398
0.029617973,0.208076063,0.373169186,0.389136779
0.02961674,0.207982305,0.373141696,0.389259259
0.029615195,0.207889253,0.373114138,0.389381415
0.02961334,0.207796907,0.373086515,0.389503238
0.029611175,0.207705265,0.373058836,0.389624724
0.029608703,0.207614327,0.373031106,0.389745864
0.029605922,0.207524091,0.373003335,0.389866652
0.029602835,0.207434555,0.37297553,0.38998708
0.029599442,0.207345719,0.3729477,0.390107139
0.029595744,0.207257578,0.372919855,0.390226823
0.029591742,0.207170131,0.372892003,0.390346124
0.029587436,0.207083373,0.372864155,0.390465036
0.029582828,0.2069973,0.372836319,0.390583553
0.029577919,0.20691191,0.372808504,0.390701667
0.02957271,0.206827197,0.372780721,0.390819372
0.029567202,0.206743159,0.372752981,0.390936659
0.029561397,0.20665979,0.372725292,0.391053521
0.029555295,0.206577088,0.372697664,0.391169953
0.029548899,0.206495049,0.372670106,0.391285947
0.029542209,0.206413666,0.372642625,0.391401499
0.029535227,0.206332938,0.372615231,0.391516604
0.029527955,0.206252858,0.37258793,0.391631258
0.029520392,0.206173421,0.37256073,0.391745457
0.029512541,0.206094622,0.372533637,0.3918592
0.029504403,0.206016454,0.372506659,0.391972484
0.029495978,0.205938912,0.372479804,0.392085306
0.029487268,0.205861988,0.372453082,0.392197662
0.029478275,0.205785674,0.372426503,0.392309548
0.029468997,0.205709963,0.372400081,0.392420958
0.029459438,0.205634846,0.372373829,0.392531887
0.029449597,0.205560316,0.372347761,0.392642326
0.029439476,0.205486367,0.372321892,0.392752266
0.029429075,0.205412992,0.372296236,0.392861696
0.029418396,0.205340187,0.372270809,0.392970608
0.029407439,0.205267945,0.372245625,0.393078991
0.029396206,0.20519626,0.3722207,0.393186835
0.029384697,0.205125127,0.372196047,0.393294129
0.029372914,0.20505454,0.372171681,0.393400864
0.029360859,0.204984493,0.372147618,0.39350703
0.029348531,0.204914981,0.372123871,0.393612618
0.029335932,0.204845995,0.372100454,0.393717619
0.029323064,0.204777529,0.372077383,0.393822023
0.029309929,0.204709575,0.372054672,0.393925825
0.029296528,0.204642125,0.372032334,0.394029014
0.029282864,0.204575169,0.372010385,0.394131582
0.029268939,0.204508699,0.37198884,0.394233521
0.029254755,0.204442706,0.371967717,0.394334822
0.029240314,0.20437718,0.371947029,0.394435476
0.029225619,0.204312114,0.371926793,0.394535474
0.02921067,0.2042475,0.371907024,0.394634806
0.029195471,0.204183333,0.371887735,0.394733462
0.029180022,0.204119606,0.371868939,0.394831433
0.029164327,0.204056315,0.37185065,0.394928708
0.029148386,0.203993457,0.371832879,0.395025278
0.029132202,0.203931027,0.371815638,0.395121133
0.029115777,0.203869023,0.371798938,0.395216263
0.029099112,0.203807439,0.371782791,0.395310658
0.02908221,0.203746273,0.371767208,0.395404309
0.029065072,0.203685521,0.3717522,0.395497207
0.029047701,0.203625178,0.371737777,0.395589344
0.029030097,0.20356524,0.37172395,0.395680712
0.029012264,0.203505702,0.37171073,0.395771303
0.028994203,0.203446561,0.371698128,0.395861108
0.028975916,0.203387811,0.371686154,0.395950119
0.028957405,0.203329447,0.37167482,0.396038328
0.02893867,0.203271465,0.371664138,0.396125726
0.028919715,0.20321386,0.371654122,0.396212303
0.028900539,0.203156629,0.371644784,0.396298048
0.028881144,0.203099766,0.371636137,0.396382953
0.028861533,0.203043266,0.371628193,0.396467008
0.028841706,0.202987126,0.371620963,0.396550206
0.028821665,0.202931337,0.371614455,0.396632543
0.028801413,0.202875895,0.371608678,0.396714013
0.028780951,0.202820794,0.371603639,0.396794616
0.028760282,0.202766027,0.371599343,0.396874349
0.028739406,0.202711588,0.371595794,0.396953211
0.028718327,0.202657473,0.371592998,0.397031202
0.028697046,0.202603677,0.371590956,0.397108321
0.028675566,0.202550193,0.371589673,0.397184568
0.028653889,0.202497018,0.371589151,0.397259942
0.028632018,0.202444148,0.371589391,0.397334443
0.028609954,0.202391578,0.371590397,0.397408071
0.028587702,0.202339303,0.371592169,0.397480826
0.028565262,0.202287319,0.371594712,0.397552707
0.028542639,0.202235621,0.371598026,0.397623715
0.028519833,0.202184202,0.371602114,0.397693851
0.028496847,0.202133057,0.371606981,0.397763115
0.028473684,0.202082179,0.371612628,0.397831508
0.028450345,0.20203156,0.371619062,0.397899033
0.028426832,0.201981192,0.371626284,0.397965691
0.028403146,0.201931067,0.371634301,0.398031486
0.02837929,0.201881174,0.371643115,0.398096421
0.028355265,0.201831508,0.371652729,0.398160498
0.028331074,0.201782059,0.371663147,0.39822372
0.028306718,0.20173282,0.371674373,0.398286089
0.028282199,0.201683782,0.371686412,0.398347607
0.028257519,0.201634938,0.371699266,0.398408277
0.028232681,0.20158628,0.371712939,0.398468101
0.028207686,0.201537799,0.371727434,0.398527082
0.028182535,0.201489488,0.371742754,0.398585223
0.028157232,0.201441339,0.371758901,0.398642528
0.028131779,0.201393346,0.371775876,0.398699
0.028106176,0.2013455,0.371793683,0.398754641
0.028080427,0.201297796,0.371812325,0.398809452
0.028054532,0.201250229,0.371831806,0.398863433
0.028028495,0.201202792,0.37185213,0.398916583
0.028002317,0.20115548,0.371873303,0.3989689
0.027976,0.201108291,0.371895327,0.399020382
0.027949546,0.201061218,0.371918207,0.39907103
0.027922956,0.201014258,0.371941946,0.399120841
0.027896232,0.200967405,0.371966547,0.399169816
0.027869376,0.200920656,0.371992012,0.399217955
0.02784239,0.200874007,0.372018343,0.39926526
0.027815276,0.200827453,0.372045538,0.399311733
0.027788034,0.20078099,0.372073597,0.399357379
0.027760666,0.200734615,0.372102515,0.399402204
0.027733173,0.200688322,0.372132291,0.399446214
0.027705557,0.200642109,0.372162921,0.399489413
0.027677819,0.200595973,0.372194401,0.399531807
0.027649961,0.20054991,0.372226728,0.399573401
0.027621983,0.200503919,0.372259899,0.399614198
0.027593888,0.200457999,0.37229391,0.399654203
0.027565676,0.200412147,0.372328758,0.399693419
0.027537348,0.200366363,0.372364439,0.399731849
0.027508908,0.200320644,0.372400949,0.399769499
0.027480354,0.200274989,0.372438284,0.399806372
0.02745169,0.200229395,0.37247644,0.399842475
0.027422917,0.200183859,0.372515411,0.399877813
0.027394035,0.200138379,0.372555194,0.399912392
0.027365048,0.200092951,0.372595781,0.399946219
0.027335956,0.200047572,0.372637167,0.399979305
0.027306761,0.200002239,0.372679342,0.400011658
0.027277465,0.199956947,0.372722299,0.400043289
0.027248071,0.199911695,0.372766027,0.400074208
0.027218579,0.199866478,0.372810517,0.400104426
0.027188992,0.199821296,0.37285576,0.400133952
0.027159311,0.199776146,0.372901747,0.400162796
0.027129539,0.199731026,0.372948468,0.400190967
0.027099677,0.199685934,0.372995913,0.400218476
0.027069726,0.199640868,0.373044073,0.400245333
0.027039689,0.199595824,0.373092939,0.400271547
0.027009568,0.199550802,0.373142502,0.400297128
0.026979363,0.199505798,0.373192753,0.400322087
0.026949077,0.19946081,0.373243681,0.400346433
0.026918711,0.199415835,0.373295277,0.400370177
0.026888268,0.19937087,0.373347532,0.40039333
0.026857748,0.199325914,0.373400435,0.400415904
0.026827154,0.199280963,0.373453975,0.400437908
0.026796487,0.199236016,0.373508143,0.400459354
0.026765749,0.199191072,0.373562928,0.40048025
0.026734942,0.19914613,0.373618323,0.400500604
0.026704068,0.199101192,0.37367432,0.40052042
0.026673127,0.199056258,0.373730911,0.400539703
0.026642123,0.199011331,0.373788092,0.400558455
0.026611055,0.198966412,0.373845859,0.400576674
0.026579926,0.198921503,0.373904208,0.400594363
0.026548737,0.198876604,0.373963137,0.400611522
0.026517489,0.198831718,0.374022642,0.400628151
0.026486185,0.198786844,0.374082721,0.40064425
0.026454825,0.198741984,0.37414337,0.400659821
0.02642341,0.198697139,0.374204586,0.400674864
0.026391944,0.19865231,0.374266366,0.40068938
0.026360425,0.198607498,0.374328706,0.40070337
0.026328857,0.198562706,0.374391602,0.400716835
0.02629724,0.198517935,0.37445505,0.400729775
0.026265575,0.198473189,0.374519045,0.40074219
0.026233864,0.198428468,0.374583585,0.400754082
0.026202109,0.198383776,0.374648665,0.40076545
0.026170309,0.198339115,0.374714278,0.400776297
0.026138468,0.198294486,0.374780422,0.400786624
0.026106585,0.198249893,0.37484709,0.400796432
0.026074664,0.198205337,0.374914277,0.400805722
0.026042705,0.198160821,0.374981979,0.400814495
0.02601071,0.198116347,0.375050192,0.400822751
0.02597868,0.198071919,0.37511891,0.400830491
0.025946618,0.198027537,0.37518813,0.400837715
0.025914525,0.197983206,0.375257844,0.400844424
0.025882403,0.197938927,0.375328048,0.400850622
0.025850252,0.197894704,0.375398735,0.400856309
0.025818076,0.197850537,0.375469897,0.40086149
0.025785874,0.197806428,0.375541528,0.40086617
0.025753649,0.19776238,0.375613619,0.400870352
0.025721402,0.197718391,0.375686165,0.400874043
0.025689134,0.197674462,0.375759158,0.400877246
0.025656847,0.197630595,0.375832591,0.400879967
0.025624542,0.197586789,0.375906459,0.400882211
0.025592221,0.197543043,0.375980756,0.40088398
0.025559885,0.19749936,0.376055477,0.400885279
0.025527535,0.197455737,0.376130619,0.400886109
0.025495173,0.197412176,0.376206177,0.400886474
0.0254628,0.197368676,0.376282148,0.400886376
0.025430418,0.197325236,0.376358529,0.400885818
0.025398027,0.197281856,0.376435316,0.400884801
0.02536563,0.197238534,0.376512508,0.400883327
0.025333228,0.197195271,0.376590102,0.400881399
0.025300822,0.197152066,0.376668096,0.400879016
0.025268413,0.197108918,0.376746487,0.400876182
0.025236004,0.197065827,0.376825273,0.400872896
0.025203595,0.197022792,0.376904452,0.400869161
0.025171188,0.196979815,0.376984018,0.400864978
0.025138785,0.196936898,0.377063968,0.400860349
0.025106386,0.196894041,0.377144298,0.400855275
0.025073992,0.196851248,0.377225002,0.400849758
0.025041605,0.196808519,0.377306076,0.4008438
