0.128974961,0.596658978,0.094470223,0.179895837
0.129008457,0.59665567,0.094449551,0.179886322
0.129042214,0.596651932,0.094428975,0.179876878
0.129076237,0.596647761,0.094408498,0.179867504
0.129110529,0.596643153,0.094388119,0.179858199
0.129145095,0.596638106,0.094367838,0.179848961
0.12917994,0.596632615,0.094347655,0.17983979
0.129215066,0.59662668,0.094327571,0.179830683
0.12925048,0.596620296,0.094307584,0.179821641
0.129286184,0.596613461,0.094287694,0.179812662
0.129322181,0.596606171,0.094267901,0.179803746
0.129358477,0.596598424,0.094248205,0.179794893
0.129395074,0.596590214,0.094228607,0.179786104
0.129431976,0.596581537,0.094209107,0.17977738
0.129469187,0.596572386,0.094189706,0.179768721
0.12950671,0.596562757,0.094170403,0.179760129
0.129544549,0.596552643,0.094151202,0.179751606
0.129582706,0.596542041,0.094132101,0.179743152
0.129621184,0.596530943,0.094113104,0.17973477
0.129659986,0.596519344,0.09409421,0.17972646
0.129699115,0.596507238,0.094075422,0.179718225
0.129738574,0.596494616,0.094056742,0.179710068
0.129778366,0.596481473,0.094038171,0.17970199
0.129818493,0.5964678,0.094019712,0.179693996
0.129858956,0.59645359,0.094001365,0.179686089
0.129899758,0.596438837,0.093983133,0.179678272
0.129940901,0.596423534,0.093965017,0.179670548
0.129982387,0.596407675,0.093947018,0.17966292
0.130024217,0.596391251,0.09392914,0.179655392
0.130066393,0.596374257,0.093911383,0.179647968
0.130108917,0.596356684,0.093893748,0.179640651
0.130151791,0.596338526,0.093876238,0.179633446
0.130195016,0.596319777,0.093858852,0.179626356
0.130238593,0.59630043,0.093841591,0.179619386
0.130282525,0.596280479,0.093824457,0.179612539
0.130326813,0.59625992,0.093807449,0.179605819
0.130371457,0.596238746,0.093790567,0.179599231
0.130416458,0.596216951,0.093773813,0.179592778
0.130461819,0.596194531,0.093757186,0.179586463
0.130507541,0.596171482,0.093740686,0.179580291
0.130553623,0.596147799,0.093724313,0.179574264
0.130600069,0.59612348,0.093708068,0.179568384
0.130646879,0.596098521,0.093691948,0.179562652
0.130694053,0.596072919,0.093675955,0.179557073
0.130741592,0.596046672,0.093660089,0.179551647
0.130789497,0.596019776,0.093644349,0.179546379
0.130837767,0.595992229,0.093628735,0.179541269
0.130886401,0.595964028,0.093613249,0.179536322
0.1309354,0.595935171,0.093597891,0.179531539
0.130984761,0.595905656,0.09358266,0.179526922
0.131034485,0.595875484,0.093567557,0.179522475
0.13108457,0.595844651,0.093552581,0.179518198
0.131135017,0.595813157,0.093537732,0.179514093
0.131185825,0.595781001,0.093523011,0.179510162
0.131236995,0.595748181,0.093508418,0.179506406
0.131288525,0.595714697,0.093493953,0.179502825
0.131340415,0.595680549,0.093479615,0.179499421
0.131392666,0.595645735,0.093465405,0.179496194
0.131445275,0.595610258,0.093451322,0.179493144
0.131498242,0.595574118,0.093437367,0.179490272
0.131551564,0.595537317,0.09342354,0.179487578
0.131605241,0.595499857,0.093409839,0.179485062
0.131659271,0.595461738,0.093396266,0.179482725
0.13171365,0.595422964,0.09338282,0.179480566
0.131768378,0.595383536,0.0933695,0.179478586
0.13182345,0.595343458,0.093356308,0.179476784
0.131878863,0.595302734,0.093343242,0.179475161
0.131934616,0.595261365,0.093330302,0.179473716
0.131990704,0.595219357,0.09331749,0.17947245
0.132047124,0.595176712,0.093304803,0.179471361
0.132103872,0.595133434,0.093292243,0.17947045
0.132160947,0.595089528,0.09327981,0.179469715
0.132218343,0.595044996,0.093267504,0.179469157
0.132276057,0.594999844,0.093255326,0.179468773
0.132334086,0.594954075,0.093243276,0.179468562
0.132392426,0.594907696,0.093231356,0.179468522
0.132451072,0.594860709,0.093219568,0.179468651
0.132510019,0.59481312,0.093207913,0.179468947
0.132569264,0.594764933,0.093196393,0.17946941
0.132628801,0.594716152,0.093185011,0.179470036
0.132688626,0.594666781,0.093173767,0.179470826
0.132748734,0.594616825,0.093162664,0.179471777
0.13280912,0.594566289,0.093151703,0.179472887
0.13286978,0.59451518,0.093140885,0.179474155
0.132930709,0.594463502,0.093130213,0.179475577
0.1329919,0.59441126,0.093119686,0.179477153
0.133053351,0.594358461,0.093109308,0.179478881
0.133115054,0.594305108,0.093099078,0.179480759
0.133177007,0.594251208,0.093088999,0.179482786
0.133239203,0.594196766,0.093079072,0.179484959
0.13330164,0.594141788,0.093069296,0.179487276
0.133364312,0.59408628,0.093059674,0.179489734
0.133427215,0.59403025,0.093050205,0.179492331
0.133490345,0.593973702,0.093040891,0.179495062
0.133553698,0.593916644,0.093031733,0.179497925
0.13361727,0.593859081,0.093022732,0.179500916
0.133681058,0.593801018,0.093013892,0.179504032
0.133745058,0.593742461,0.093005213,0.179507268
0.133809266,0.593683416,0.092996698,0.17951062
0.13387368,0.593623888,0.092988349,0.179514083
0.133938296,0.593563882,0.092980169,0.179517654
0.13400311,0.593503403,0.09297216,0.179521328
0.134068119,0.593442455,0.092964327,0.1795251
0.134133319,0.593381043,0.092956672,0.179528966
0.134198708,0.59331917,0.092949201,0.179532921
0.134264283,0.593256839,0.092941917,0.179536961
0.13433004,0.593194057,0.092934823,0.17954108
0.134395976,0.593130827,0.092927924,0.179545274
0.134462087,0.593067154,0.092921222,0.179549537
0.134528369,0.593003044,0.092914722,0.179553865
0.134594819,0.592938499,0.092908426,0.179558256
0.134661431,0.592873522,0.092902339,0.179562707
0.134728202,0.592808114,0.092896467,0.179567216
0.134795127,0.592742278,0.092890814,0.179571781
0.134862201,0.592676014,0.092885385,0.1795764
0.134929421,0.592609325,0.092880184,0.17958107
0.13499678,0.592542212,0.092875217,0.179585792
0.135064274,0.592474676,0.092870488,0.179590561
0.135131899,0.59240672,0.092866002,0.179595378
0.135199649,0.592338346,0.092861766,0.17960024
0.135267521,0.592269553,0.092857782,0.179605144
0.135335509,0.592200346,0.092854056,0.179610089
0.135403609,0.592130726,0.092850592,0.179615072
0.135471818,0.592060697,0.092847395,0.17962009
0.13554013,0.591990262,0.092844468,0.17962514
0.135608542,0.591919425,0.092841815,0.179630219
0.135677049,0.59184819,0.092839439,0.179635322
0.135745647,0.591776561,0.092837344,0.179640448
0.13581433,0.59170454,0.092835535,0.179645595
0.135883095,0.591632129,0.092834015,0.17965076
0.135951936,0.59155933,0.09283279,0.179655943
0.136020849,0.591486146,0.092831863,0.179661141
0.13608983,0.591412579,0.092831239,0.179666352
0.136158873,0.591338632,0.092830921,0.179671574
0.136227974,0.591264308,0.092830913,0.179676805
0.136297129,0.591189609,0.09283122,0.179682042
0.136366334,0.591114538,0.092831845,0.179687284
0.136435583,0.591039097,0.092832792,0.179692528
0.136504873,0.590963287,0.092834065,0.179697775
0.136574199,0.590887113,0.092835668,0.17970302
0.136643555,0.590810578,0.092837602,0.179708264
0.136712937,0.590733686,0.092839873,0.179713504
0.13678234,0.590656441,0.092842482,0.179718737
0.136851757,0.590578847,0.092845434,0.179723962
0.136921185,0.590500909,0.092848732,0.179729174
0.136990617,0.59042263,0.09285238,0.179734373
0.137060049,0.590344015,0.092856382,0.179739554
0.137129474,0.590265068,0.092860744,0.179744714
0.137198888,0.590185793,0.09286547,0.179749849
0.137268285,0.590106195,0.092870564,0.179754955
0.13733766,0.590026278,0.092876033,0.179760029
0.137407006,0.589946047,0.092881883,0.179765064
0.137476318,0.589865506,0.092888118,0.179770058
0.13754559,0.589784657,0.092894745,0.179775007
0.137614818,0.589703507,0.092901771,0.179779905
0.137683996,0.589622057,0.092909199,0.179784747
0.137753119,0.589540314,0.092917036,0.17978953
0.137822183,0.589458282,0.092925287,0.179794248
0.137891182,0.589375966,0.092933955,0.179798898
0.137960111,0.58929337,0.092943045,0.179803473
0.138028967,0.589210501,0.092952561,0.179807971
0.138097744,0.589127362,0.092962507,0.179812387
0.138166437,0.589043958,0.092972887,0.179816717
0.138235043,0.588960295,0.092983705,0.179820957
0.138303555,0.588876378,0.092994965,0.179825102
0.138371969,0.588792212,0.093006669,0.17982915
0.138440279,0.588707803,0.093018821,0.179833097
0.13850848,0.588623157,0.093031424,0.179836939
0.138576566,0.588538279,0.09304448,0.179840675
0.138644531,0.588453175,0.093057992,0.179844302
0.13871237,0.588367848,0.093071964,0.179847817
0.138780077,0.588282306,0.093086398,0.179851219
0.138847646,0.588196553,0.093101296,0.179854505
0.138915069,0.588110595,0.093116662,0.179857673
0.138982342,0.58802444,0.093132499,0.17986072
0.139049456,0.587938092,0.093148809,0.179863643
0.139116406,0.587851558,0.093165597,0.179866438
0.139183186,0.587764844,0.093182866,0.179869103
0.139249791,0.587677954,0.09320062,0.179871635
0.139316214,0.587590892,0.093218864,0.179874031
0.13938245,0.58750366,0.093237603,0.179876287
0.139448494,0.587416263,0.093256843,0.179878401
0.13951434,0.587328702,0.093276589,0.17988037
0.139579982,0.58724098,0.093296847,0.179882191
0.139645418,0.587153099,0.093317622,0.179883862
0.139710642,0.587065059,0.093338919,0.17988538
0.13977565,0.586976862,0.093360744,0.179886743
0.13984044,0.586888509,0.093383102,0.17988795
0.139905006,0.586799999,0.093405996,0.179889
0.139969345,0.586711333,0.093429432,0.179889891
0.140033453,0.586622512,0.093453413,0.179890622
0.140097327,0.586533535,0.093477944,0.179891194
0.140160962,0.586444404,0.093503028,0.179891606
0.140224355,0.586355119,0.09352867,0.179891856
0.140287503,0.58626568,0.093554872,0.179891946
0.140350401,0.586176087,0.093581638,0.179891874
0.140413046,0.58608634,0.093608973,0.179891641
0.140475435,0.58599644,0.093636878,0.179891248
0.140537563,0.585906388,0.093665356,0.179890693
0.140599428,0.585816185,0.093694411,0.179889976
0.140661026,0.585725833,0.093724045,0.179889096
0.140722353,0.585635335,0.093754259,0.179888053
0.140783405,0.585544693,0.093785055,0.179886847
0.140844179,0.585453907,0.093816436,0.179885478
0.140904672,0.58536298,0.093848403,0.179883945
0.140964879,0.585271914,0.093880956,0.17988225
0.141024799,0.58518071,0.093914098,0.179880393
0.141084428,0.585089372,0.093947827,0.179878372
0.141143763,0.584997902,0.093982145,0.179876191
0.141202799,0.584906301,0.094017051,0.179873849
0.141261534,0.584814571,0.094052545,0.17987135
0.141319964,0.584722716,0.094088627,0.179868694
0.141378086,0.584630735,0.094125295,0.179865884
0.141435896,0.584538633,0.094162549,0.179862921
0.141493393,0.584446412,0.094200389,0.179859807
0.141550572,0.584354074,0.094238811,0.179856542
0.141607432,0.584261624,0.094277817,0.179853127
0.141663969,0.584169066,0.094317403,0.179849563
0.14172018,0.584076401,0.094357568,0.17984585
0.141776064,0.583983634,0.094398312,0.17984199
0.141831618,0.583890766,0.094439633,0.179837983
0.141886839,0.5837978,0.094481531,0.17983383
0.141941726,0.583704736,0.094524006,0.179829532
0.141996276,0.583611576,0.094567059,0.179825089
0.142050487,0.583518321,0.09461069,0.179820502
0.142104358,0.583424971,0.094654901,0.17981577
0.142157886,0.583331529,0.094699694,0.179810891
0.142211069,0.583237993,0.094745074,0.179805864
0.142263905,0.583144362,0.094791047,0.179800687
0.14231639,0.583050634,0.094837618,0.179795358
0.142368524,0.582956807,0.094884795,0.179789874
0.142420304,0.582862882,0.094932581,0.179784233
0.142471728,0.582768855,0.094980984,0.179778432
0.142522795,0.582674728,0.095030008,0.179772469
0.142573502,0.5825805,0.095079658,0.179766341
0.142623847,0.582486169,0.09512994,0.179760044
0.142673828,0.582391736,0.095180858,0.179753577
0.142723444,0.5822972,0.095232419,0.179746937
0.142772692,0.582202561,0.095284626,0.179740121
0.14282157,0.582107818,0.095337485,0.179733127
0.142870077,0.582012972,0.095391,0.179725951
0.14291821,0.581918024,0.095445174,0.179718592
0.142965968,0.581822974,0.095500012,0.179711045
0.14301335,0.581727823,0.095555518,0.17970331
0.143060352,0.581632571,0.095611695,0.179695383
0.143106973,0.581537217,0.095668547,0.179687263
0.14315321,0.581441763,0.095726078,0.179678948
0.143199063,0.581346208,0.095784293,0.179670437
0.143244528,0.581250552,0.095843193,0.179661727
0.143289606,0.581154796,0.095902783,0.179652815
0.143334293,0.581058942,0.095963065,0.1796437
0.143378588,0.58096299,0.096024044,0.179634379
0.143422489,0.58086694,0.096085721,0.17962485
0.143465995,0.580770794,0.096148101,0.179615111
0.143509104,0.580674551,0.096211185,0.17960516
0.143551815,0.580578213,0.096274976,0.179594996
0.143594126,0.580481781,0.096339476,0.179584617
0.143636037,0.580385257,0.096404684,0.179574022
0.143677545,0.580288642,0.096470603,0.17956321
0.143718649,0.580191937,0.096537233,0.179552181
0.143759347,0.580095142,0.096604575,0.179540935
0.143799638,0.579998258,0.096672631,0.179529473
0.143839519,0.579901287,0.0967414,0.179517794
0.14387899,0.579804229,0.096810883,0.179505898
0.14391805,0.579707085,0.096881081,0.179493785
0.143956696,0.579609857,0.096951992,0.179481455
0.143994929,0.579512547,0.097023617,0.179468907
0.144032746,0.579415157,0.097095954,0.179456142
0.144070147,0.579317688,0.097169004,0.17944316
0.14410713,0.579220142,0.097242766,0.179429961
0.144143695,0.579122521,0.097317239,0.179416546
0.144179839,0.579024825,0.097392423,0.179402914
0.144215563,0.578927055,0.097468317,0.179389065
0.144250864,0.578829212,0.097544923,0.179375001
0.144285742,0.578731298,0.097622239,0.17936072
0.144320196,0.578633315,0.097700266,0.179346224
0.144354223,0.578535262,0.097779003,0.179331513
0.144387823,0.578437142,0.097858448,0.179316587
0.144420994,0.578338955,0.097938602,0.179301449
0.144453737,0.578240702,0.098019464,0.179286098
0.144486048,0.578142384,0.098101031,0.179270538
0.144517927,0.578044002,0.098183302,0.179254768
0.144549373,0.577945559,0.098266277,0.179238791
0.144580384,0.577847055,0.098349954,0.179222608
0.144610958,0.577748493,0.098434331,0.179206218
0.144641095,0.577649873,0.098519407,0.179189625
0.144670793,0.577551198,0.098605181,0.179172827
0.144700051,0.577452468,0.098691654,0.179155827
0.144728868,0.577353685,0.098778822,0.179138624
0.144757243,0.577254851,0.098866685,0.17912122
0.144785175,0.57715597,0.098955241,0.179103614
0.144812662,0.577057044,0.099044488,0.179085806
0.144839703,0.576958076,0.099134424,0.179067797
0.144866298,0.57685907,0.099225046,0.179049587
0.144892444,0.576760029,0.099316352,0.179031175
0.144918142,0.576660956,0.09940834,0.179012562
0.144943389,0.576561854,0.099501009,0.178993749
0.144968184,0.576462727,0.099594354,0.178974734
0.144992528,0.576363581,0.099688374,0.178955518
0.145016417,0.576264419,0.099783065,0.178936099
0.145039853,0.576165248,0.099878424,0.178916476
0.145062833,0.576066072,0.099974447,0.178896648
0.145085358,0.575966897,0.10007113,0.178876616
0.145107426,0.575867726,0.100168471,0.178856378
0.145129038,0.575768564,0.100266464,0.178835933
0.145150195,0.575669416,0.100365107,0.178815282
0.145170896,0.575570286,0.100464395,0.178794423
0.145191141,0.57547118,0.100564324,0.178773355
0.145210931,0.575372101,0.100664889,0.178752079
0.145230267,0.575273056,0.100766085,0.178730592
0.145249148,0.575174048,0.100867911,0.178708893
0.145267574,0.575075083,0.100970362,0.178686981
0.145285545,0.574976164,0.101073436,0.178664854
0.14530306,0.574877295,0.101177133,0.178642512
0.145320119,0.574778479,0.10128145,0.178619952
0.14533672,0.574679721,0.101386387,0.178597172
0.145352863,0.574581021,0.101491946,0.17857417
0.145368546,0.574482383,0.101598127,0.178550944
0.145383769,0.574383806,0.101704934,0.178527491
0.145398529,0.57428529,0.101812372,0.178503809
0.145412826,0.574186835,0.101920444,0.178479896
0.145426657,0.574088438,0.102029154,0.178455751
0.145440021,0.573990101,0.102138507,0.178431372
0.145452917,0.573891822,0.102248505,0.178406757
0.145465343,0.573793601,0.102359152,0.178381904
0.145477299,0.573695438,0.102470451,0.178356813
0.145488782,0.573597331,0.102582405,0.178331483
0.145499791,0.573499278,0.102695018,0.178305913
0.145510325,0.573401279,0.102808292,0.178280104
0.145520382,0.573303329,0.102922232,0.178254058
0.14552996,0.573205428,0.103036839,0.178227773
0.145539058,0.573107574,0.103152117,0.178201251
0.145547674,0.573009767,0.103268068,0.178174491
0.145555805,0.572912005,0.103384696,0.178147495
0.145563449,0.572814288,0.103502,0.178120262
0.145570605,0.572716615,0.103619985,0.178092795
0.145577271,0.572618985,0.103738651,0.178065093
0.145583445,0.572521397,0.103858,0.178037159
0.145589124,0.572423849,0.103978033,0.178008994
0.145594308,0.57232634,0.104098751,0.177980601
0.145598994,0.57222887,0.104220155,0.177951982
0.14560318,0.572131438,0.104342244,0.177923137
0.145606864,0.572034047,0.10446502,0.177894069
0.145610043,0.571936697,0.104588482,0.177864778
0.145612715,0.571839387,0.104712631,0.177835266
0.145614878,0.57174212,0.104837467,0.177805534
0.145616529,0.571644896,0.10496299,0.177775584
0.145617668,0.571547717,0.105089198,0.177745417
0.145618291,0.571450583,0.105216092,0.177715034
0.145618396,0.571353499,0.105343668,0.177684437
0.145617981,0.571256466,0.105471926,0.177653627
0.145617045,0.571159486,0.105600865,0.177622604
0.145615585,0.571062563,0.105730482,0.17759137
0.145613601,0.570965697,0.105860777,0.177559925
0.145611091,0.57086889,0.105991749,0.177528269
0.145608054,0.570772146,0.106123396,0.177496404
0.14560449,0.570675465,0.106255716,0.177464329
0.145600399,0.570578849,0.106388708,0.177432045
0.14559578,0.570482299,0.106522369,0.177399552
0.145590635,0.570385818,0.106656697,0.17736685
0.145584962,0.570289405,0.106791693,0.17733394
0.145578764,0.57019306,0.106927354,0.177300822
0.145572042,0.57009678,0.107063682,0.177267496
0.1455648,0.570000562,0.107200677,0.177233961
0.145557041,0.569904404,0.10733834,0.177200215
0.145548767,0.5698083,0.107476673,0.17716626
0.145539983,0.569712245,0.107615679,0.177132093
0.14553069,0.569616233,0.10775536,0.177097717
0.145520893,0.56952026,0.107895717,0.17706313
0.145510596,0.569424317,0.108036754,0.177028333
0.145499801,0.5693284,0.108178472,0.176993327
0.145488514,0.569232502,0.108320874,0.176958111
0.145476737,0.569136617,0.108463962,0.176922684
0.145464475,0.56904074,0.108607738,0.176887048
0.145451731,0.568944867,0.108752203,0.176851199
0.145438509,0.568848993,0.108897361,0.176815137
0.145424814,0.568753113,0.109043212,0.176778861
0.14541065,0.568657221,0.109189758,0.176742371
0.145396022,0.568561315,0.109336999,0.176705664
0.145380933,0.568465388,0.109484938,0.176668741
0.145365388,0.568369437,0.109633573,0.176631602
0.145349391,0.568273459,0.109782904,0.176594246
0.145332947,0.568177449,0.109932932,0.176556672
0.145316059,0.568081404,0.110083656,0.176518881
0.145298733,0.56798532,0.110235073,0.176480873
0.145280973,0.567889194,0.110387184,0.176442649
0.145262783,0.567793022,0.110539987,0.176404208
0.145244167,0.5676968,0.110693479,0.176365553
0.14522513,0.567600527,0.11084766,0.176326683
0.145205674,0.5675042,0.111002527,0.176287599
0.145185805,0.567407817,0.111158078,0.1762483
0.145165526,0.567311375,0.111314312,0.176208787
0.145144841,0.567214875,0.111471226,0.176169058
0.145123755,0.567118312,0.111628818,0.176129114
0.145102272,0.567021686,0.111787088,0.176088954
0.145080395,0.566924993,0.111946034,0.176048578
0.145058131,0.56682823,0.112105654,0.176007984
0.145035483,0.566731395,0.112265949,0.175967173
0.145012456,0.566634485,0.112426916,0.175926143
0.144989054,0.566537497,0.112588556,0.175884893
0.185250067,0.714652585,0.005624686,0.094472662
0.185267436,0.714642612,0.005614543,0.09447541
0.185284917,0.71463242,0.00560444,0.094478223
0.185302508,0.71462201,0.005594378,0.094481104
0.185320208,0.714611381,0.005584356,0.094484056
0.185338015,0.71460053,0.005574374,0.094487082
0.185355927,0.714589458,0.005564431,0.094490184
0.185373944,0.714578163,0.005554527,0.094493366
0.185392064,0.714566644,0.005544662,0.09449663
0.185410286,0.7145549,0.005534836,0.094499979
0.185428607,0.714542928,0.005525048,0.094503417
0.185447026,0.714530728,0.005515299,0.094506947
0.185465542,0.714518298,0.005505588,0.094510572
0.185484154,0.714505637,0.005495914,0.094514295
0.18550286,0.714492743,0.005486278,0.094518119
0.185521659,0.714479615,0.005476677,0.094522049
0.18554055,0.71446625,0.005467113,0.094526086
0.185559533,0.714452649,0.005457584,0.094530234
0.185578605,0.71443881,0.005448089,0.094534496
0.185597766,0.714424732,0.005438628,0.094538873
0.185617015,0.714410415,0.005429201,0.094543369
0.18563635,0.714395856,0.005419808,0.094547986
0.185655771,0.714381055,0.005410448,0.094552726
0.185675276,0.71436601,0.005401123,0.094557591
0.185694866,0.714350719,0.005391832,0.094562584
0.185714539,0.71433518,0.005382575,0.094567705
0.185734295,0.714319394,0.005373354,0.094572957
0.185754132,0.714303358,0.005364169,0.09457834
0.185774051,0.714287075,0.005355019,0.094583856
0.185794048,0.714270542,0.005345905,0.094589504
0.185814125,0.714253761,0.005336828,0.094595287
0.18583428,0.714236731,0.005327786,0.094601203
0.185854512,0.714219454,0.00531878,0.094607254
0.18587482,0.714201929,0.005309811,0.09461344
0.185895204,0.714184156,0.005300878,0.094619763
0.185915662,0.714166135,0.005291982,0.094626221
0.185936194,0.714147868,0.005283122,0.094632817
0.185956798,0.714129354,0.005274299,0.094639549
0.185977475,0.714110594,0.005265512,0.09464642
0.185998222,0.714091587,0.005256762,0.094653428
0.186019039,0.714072335,0.00524805,0.094660575
0.186039925,0.714052837,0.005239375,0.094667862
0.186060879,0.714033093,0.005230739,0.09467529
0.186081898,0.714013101,0.00522214,0.094682862
0.18610298,0.71399286,0.00521358,0.094690579
0.186124125,0.71397237,0.005205059,0.094698446
0.186145329,0.71395163,0.005196577,0.094706464
0.186166592,0.713930637,0.005188134,0.094714637
0.186187911,0.713909391,0.00517973,0.094722969
0.186209284,0.713887889,0.005171364,0.094731462
0.186230711,0.713866131,0.005163037,0.094740121
0.18625219,0.713844113,0.005154748,0.094748949
0.186273718,0.713821836,0.005146498,0.094757949
0.186295293,0.713799297,0.005138285,0.094767125
0.186316915,0.713776496,0.005130109,0.09477648
0.186338582,0.713753432,0.005121971,0.094786016
0.186360291,0.713730101,0.00511387,0.094795737
0.186382042,0.713706504,0.005105807,0.094805646
0.186403834,0.713682638,0.005097782,0.094815746
0.186425663,0.713658502,0.005089795,0.09482604
0.186447527,0.713634095,0.005081846,0.094836532
0.186469424,0.713609415,0.005073935,0.094847225
0.186491352,0.713584463,0.005066063,0.094858122
0.186513308,0.713559236,0.005058229,0.094869227
0.186535289,0.713533736,0.005050433,0.094880542
0.186557292,0.71350796,0.005042677,0.094892072
0.186579313,0.71348191,0.005034958,0.094903819
0.18660135,0.713455585,0.005027278,0.094915788
0.186623398,0.713428985,0.005019635,0.094927981
0.186645455,0.713402111,0.005012031,0.094940403
0.186667518,0.713374963,0.005004464,0.094953055
0.186689582,0.71334754,0.004996935,0.094965943
0.186711645,0.713319843,0.004989444,0.094979068
0.186733704,0.713291871,0.00498199,0.094992435
0.186755755,0.713263625,0.004974575,0.095006045
0.186777795,0.713235105,0.004967198,0.095019902
0.18679982,0.713206312,0.004959859,0.095034009
0.186821827,0.713177245,0.004952559,0.095048369
0.186843812,0.713147906,0.004945297,0.095062985
0.186865772,0.713118295,0.004938074,0.095077858
0.186887703,0.713088414,0.00493089,0.095092992
0.186909603,0.713058263,0.004923744,0.095108389
0.186931468,0.713027843,0.004916637,0.095124051
0.186953296,0.712997156,0.004909568,0.095139981
0.186975083,0.712966202,0.004902536,0.095156179
0.186996826,0.712934983,0.004895542,0.095172648
0.187018523,0.712903503,0.004888585,0.095189389
0.18704017,0.712871761,0.004881664,0.095206404
0.187061766,0.712839761,0.004874779,0.095223695
0.187083306,0.712807503,0.004867929,0.095241261
0.187104789,0.71277499,0.004861116,0.095259105
0.187126212,0.712742224,0.004854337,0.095277227
0.187147572,0.712709207,0.004847594,0.095295626
0.187168868,0.712675942,0.004840887,0.095314303
0.187190097,0.712642432,0.004834215,0.095333256
0.187211255,0.712608679,0.004827579,0.095352486
0.187232342,0.712574687,0.00482098,0.095371991
0.187253355,0.712540458,0.004814417,0.09539177
0.187274291,0.712505995,0.004807891,0.095411823
0.187295148,0.7124713,0.004801403,0.095432149
0.187315926,0.712436376,0.004794953,0.095452746
0.18733662,0.712401225,0.004788542,0.095473613
0.187357231,0.712365848,0.004782172,0.095494748
0.187377757,0.712330249,0.004775845,0.09551615
0.187398194,0.712294427,0.004769563,0.095537816
0.187418542,0.712258383,0.004763329,0.095559745
0.187438798,0.712222118,0.004757147,0.095581936
0.187458962,0.712185632,0.004751021,0.095604385
0.18747903,0.712148922,0.004744955,0.095627093
0.187499002,0.712111988,0.004738952,0.095650059
0.187518875,0.712074827,0.004733017,0.095673282
0.187538647,0.712037437,0.004727154,0.095696762
0.187558317,0.711999815,0.004721367,0.095720502
0.187577882,0.711961959,0.004715659,0.095744501
0.18759734,0.711923864,0.004710035,0.095768761
0.18761669,0.711885529,0.004704499,0.095793283
0.187635928,0.711846946,0.004699056,0.09581807
0.187655051,0.71180811,0.004693715,0.095843124
0.187674056,0.71176901,0.004688485,0.095868448
0.187692937,0.711729636,0.00468338,0.095894046
0.187711689,0.711689975,0.004678415,0.095919921
0.187730307,0.711650012,0.004673606,0.095946075
0.187748785,0.711609733,0.00466897,0.095972513
0.187767117,0.711569123,0.004664525,0.095999236
0.187785297,0.711528166,0.004660288,0.096026249
0.18780332,0.711486846,0.00465628,0.096053554
0.187821179,0.711445145,0.004652521,0.096081155
0.187838864,0.711403043,0.004649038,0.096109056
0.187856366,0.711360515,0.00464586,0.096137259
0.187873674,0.711317532,0.004643024,0.09616577
0.187890776,0.711274063,0.00464057,0.09619459
0.187907661,0.711230077,0.004638539,0.096223724
0.187924316,0.711185538,0.004636973,0.096253173
0.18794073,0.711140415,0.004635916,0.096282939
0.187956892,0.711094674,0.004635409,0.096313024
0.187972789,0.711048284,0.004635497,0.096343431
0.18798841,0.711001212,0.004636219,0.096374159
0.188003741,0.710953429,0.004637621,0.096405209
0.188018772,0.710904901,0.004639745,0.096436583
0.188033488,0.710855596,0.004642633,0.096468282
0.188047877,0.710805483,0.004646331,0.096500309
0.188061927,0.710754527,0.004650882,0.096532665
0.188075624,0.710702695,0.004656329,0.096565352
0.188088956,0.710649953,0.004662718,0.096598373
0.188101909,0.710596266,0.004670094,0.09663173
0.188114471,0.710541598,0.004678504,0.096665427
0.188126627,0.710485909,0.004687995,0.096699469
0.188138363,0.710429159,0.00469862,0.096733858
0.188149662,0.710371305,0.004710431,0.096768602
0.188160509,0.710312302,0.004723486,0.096803704
0.188170887,0.710252104,0.00473784,0.09683917
0.188180778,0.710190666,0.004753553,0.096875004
0.188190166,0.710127941,0.00477068,0.096911213
0.188199034,0.710063884,0.004789282,0.0969478
0.188207364,0.709998446,0.004809418,0.096984771
0.188215139,0.709931579,0.004831152,0.09702213
0.188222338,0.709863229,0.004854551,0.097059882
0.188228939,0.709793341,0.004879689,0.097098031
0.188234921,0.709721855,0.004906641,0.097136583
0.188240257,0.709648713,0.004935488,0.097175541
0.188244924,0.709573855,0.004966309,0.097214911
0.188248897,0.709497222,0.004999184,0.097254698
0.188252151,0.709418754,0.005034191,0.097294904
0.18825466,0.709338396,0.005071409,0.097335535
0.1882564,0.709256091,0.005110916,0.097376593
0.188257344,0.709171785,0.00515279,0.097418082
0.188257465,0.709085425,0.005197106,0.097460003
0.188256737,0.70899696,0.005243942,0.097502361
0.188255133,0.708906337,0.005293373,0.097545157
0.188252626,0.708813507,0.005345473,0.097588394
0.188249193,0.708718418,0.005400316,0.097632073
0.188244807,0.708621022,0.005457975,0.097676197
0.188239445,0.70852127,0.005518519,0.097720766
0.188233083,0.708419115,0.005582019,0.097765783
0.1882257,0.70831451,0.005648542,0.097811248
0.188217273,0.708207411,0.005718156,0.097857161
0.18820778,0.708097773,0.005790925,0.097903522
0.1881972,0.707985553,0.005866914,0.097950333
0.188185512,0.707870711,0.005946185,0.097997592
0.188172696,0.707753205,0.006028798,0.098045301
0.188158729,0.707632996,0.006114815,0.098093459
0.188143592,0.707510046,0.006204296,0.098142066
0.188127263,0.707384315,0.006297299,0.098191123
0.188109722,0.707255767,0.006393883,0.098240628
0.18809095,0.707124363,0.006494105,0.098290582
0.188070926,0.706990068,0.00659802,0.098340986
0.188049632,0.706852848,0.006705681,0.098391839
0.188027048,0.706712669,0.006817144,0.098443139
0.188003154,0.706569494,0.006932463,0.098494889
0.187977929,0.70642329,0.007051694,0.098547087
0.187951354,0.706274018,0.007174891,0.098599736
0.187923409,0.706121643,0.007302111,0.098652837
0.187894074,0.705966127,0.007433408,0.098706391
0.187863331,0.705807434,0.007568836,0.098760399
0.187831161,0.705645528,0.007708449,0.098814862
0.187797549,0.705480374,0.007852298,0.098869779
0.187762477,0.705311938,0.008000434,0.098925151
0.18772593,0.705140187,0.008152906,0.098980977
0.187687891,0.70496509,0.008309761,0.099037258
0.187648347,0.704786614,0.008471048,0.099093991
0.187607281,0.704604729,0.008636813,0.099151177
0.187564679,0.704419404,0.008807102,0.099208815
0.187520527,0.704230608,0.008981961,0.099266904
0.187474811,0.704038311,0.009161435,0.099325443
0.187427516,0.703842482,0.009345569,0.099384432
0.18737863,0.703643093,0.009534406,0.09944387
0.18732814,0.703440116,0.009727987,0.099503756
0.187276033,0.703233525,0.009926353,0.099564088
0.187222297,0.703023296,0.010129543,0.099624865
0.187166918,0.702809406,0.010337594,0.099686082
0.187109888,0.70259183,0.010550544,0.099747738
0.187051194,0.702370547,0.010768429,0.09980983
0.186990828,0.702145533,0.010991285,0.099872353
0.186928781,0.701916767,0.011219145,0.099935306
0.186865045,0.701684228,0.011452042,0.099998685
0.186799613,0.701447897,0.011690003,0.100062488
0.186732477,0.701207756,0.011933057,0.10012671
0.186663633,0.700963789,0.01218123,0.100191348
0.186593073,0.70071598,0.012434548,0.100256399
0.186520794,0.700464313,0.012693034,0.100321859
0.186446788,0.700208774,0.012956715,0.100387722
0.186371051,0.699949348,0.013225614,0.100453986
0.186293578,0.699686023,0.013499754,0.100520646
0.186214361,0.699418785,0.013779157,0.100587697
0.186133396,0.699147623,0.014063841,0.100655139
0.186050676,0.698872525,0.014353828,0.100722972
0.185966195,0.698593473,0.014649133,0.100791199
0.185879948,0.698310452,0.014949772,0.100859828
0.185791929,0.698023443,0.01525576,0.100928868
0.185702134,0.697732429,0.015567109,0.100998328
0.185610559,0.69743739,0.015883832,0.101068218
0.1855172,0.69713831,0.01620594,0.10113855
0.185422055,0.696835168,0.01653344,0.101209336
0.185325121,0.696527948,0.016866341,0.10128059
0.185226396,0.696216632,0.017204646,0.101352325
0.185125878,0.695901206,0.017548359,0.101424557
0.185023564,0.695581655,0.017897483,0.101497299
0.184919453,0.695257968,0.018252017,0.101570563
0.184813543,0.694930134,0.018611962,0.101644361
0.184705832,0.694598142,0.018977319,0.101718708
0.184596317,0.694261979,0.019348088,0.101793616
0.184484995,0.693921634,0.019724269,0.101869103
0.18437186,0.693577094,0.020105862,0.101945184
0.18425691,0.693228348,0.020492866,0.102021877
0.184140138,0.692875387,0.020885276,0.102099198
0.184021542,0.692518203,0.021283088,0.102177167
0.183901117,0.692156785,0.021686296,0.102255802
0.183778859,0.691791124,0.022094893,0.102335124
0.183654762,0.691421208,0.022508873,0.102415156
0.183528822,0.691047024,0.022928231,0.102495923
0.18340103,0.69066856,0.023352959,0.10257745
0.18327138,0.690285806,0.02378305,0.102659763
0.183139865,0.689898749,0.024218496,0.10274289
0.183006476,0.689507381,0.024659285,0.102826858
0.182871209,0.689111692,0.025105406,0.102911694
0.182734057,0.688711675,0.025556844,0.102997424
0.182595016,0.688307323,0.026013586,0.103084075
0.182454082,0.687898629,0.026475616,0.103171673
0.182311253,0.687485587,0.026942917,0.103260243
0.182166525,0.687068191,0.027415473,0.10334981
0.182019897,0.686646437,0.027893269,0.103440397
0.181871366,0.68622032,0.028376287,0.103532027
0.181720932,0.685789838,0.028864508,0.103624721
0.181568595,0.685354988,0.029357914,0.103718503
0.181414355,0.684915767,0.029856483,0.103813395
0.181258216,0.684472174,0.030360191,0.103909419
0.18110018,0.68402421,0.030869014,0.104006596
0.180940251,0.683571876,0.031382925,0.104104948
0.180778431,0.683115173,0.031901897,0.104204498
0.180614726,0.682654103,0.032425903,0.104305268
0.180449139,0.682188669,0.032954913,0.104407279
0.180281674,0.681718874,0.033488898,0.104510554
0.180112338,0.681244721,0.03402783,0.104615112
0.179941135,0.680766212,0.034571678,0.104720974
0.179768075,0.68028335,0.035120412,0.104828163
0.179593164,0.679796136,0.035673999,0.104936701
0.179416409,0.679304567,0.03623241,0.105046614
0.179237817,0.678808644,0.036795614,0.105157926
0.179057395,0.678308362,0.03736358,0.105270662
0.17887515,0.677803722,0.03793628,0.105384848
0.178691088,0.677294722,0.038513683,0.105500507
0.178505217,0.676781363,0.039095755,0.105617665
0.178317544,0.676263646,0.039682465,0.105736345
0.178128076,0.67574157,0.040273779,0.105856576
0.177936821,0.675215136,0.040869661,0.105978382
0.177743787,0.674684347,0.041470075,0.106101791
0.177548984,0.674149203,0.042074986,0.106226828
0.177352419,0.673609709,0.042684354,0.106353518
0.177154102,0.673065872,0.043298139,0.106481886
0.176954042,0.672517699,0.043916302,0.106611956
0.176752249,0.671965197,0.044538801,0.106743752
0.176548733,0.671408375,0.045165595,0.106877297
0.176343505,0.670847241,0.045796641,0.107012612
0.176136576,0.670281805,0.046431898,0.107149721
0.175927957,0.669712077,0.047071321,0.107288644
0.175717661,0.669138067,0.047714866,0.107429405
0.175505699,0.668559788,0.048362488,0.107572026
0.175292083,0.667977249,0.049014139,0.107716528
0.175076827,0.667390463,0.049669774,0.107862936
0.174859943,0.666799444,0.050329344,0.108011269
0.174641444,0.666204204,0.050992803,0.108161549
0.174421343,0.66560476,0.051660099,0.108313798
0.174199654,0.665001127,0.052331183,0.108468035
0.17397639,0.664393324,0.053006004,0.108624282
0.173751565,0.663781366,0.05368451,0.108782558
0.173525195,0.663165273,0.054366649,0.108942884
0.173297293,0.662545063,0.055052365,0.109105278
0.173067877,0.661920759,0.055741606,0.109269758
0.172836959,0.661292384,0.056434315,0.109436342
0.172604556,0.66065996,0.057130442,0.109605043
0.172370682,0.66002351,0.057829933,0.109775875
0.172135353,0.659383059,0.058532738,0.10994885
0.171898586,0.658738628,0.059238804,0.110123982
0.171660398,0.658090238,0.059948077,0.110301286
0.171420807,0.65743791,0.060660504,0.110480779
0.171179829,0.656781665,0.06137603,0.110662476
0.170937484,0.656121524,0.062094599,0.110846393
0.170693792,0.655457508,0.062816157,0.111032543
0.170448771,0.65478964,0.063540647,0.111220942
0.170202443,0.654117943,0.064268012,0.111411601
0.169954827,0.65344244,0.064998196,0.111604536
0.169705944,0.652763155,0.065731142,0.111799759
0.169455815,0.652080113,0.066466793,0.11199728
0.169204459,0.651393339,0.067205092,0.11219711
0.168951899,0.650702859,0.067945983,0.112399259
0.168698156,0.650008699,0.068689408,0.112603737
0.168443251,0.649310885,0.06943531,0.112810553
0.168187207,0.648609445,0.070183631,0.113019717
0.167930045,0.647904405,0.070934314,0.113231236
0.167671785,0.647195791,0.071687305,0.113445119
0.167412448,0.646483626,0.072442553,0.113661372
0.167152054,0.645767933,0.073200011,0.113880002
0.166890624,0.645048732,0.07395963,0.114101014
0.166628178,0.644326044,0.074721366,0.114324412
0.166364738,0.643599888,0.075485175,0.114550199
0.166100324,0.642870279,0.07625102,0.114778377
0.165834955,0.642137231,0.077018867,0.115008948
0.165568651,0.641400754,0.077788685,0.115241911
0.165301432,0.64066086,0.078560443,0.115477265
0.165033317,0.639917565,0.079334111,0.115715007
0.164764328,0.639170884,0.080109655,0.115955132
0.164494483,0.638420836,0.080887042,0.116197639
0.164223801,0.637667439,0.081666235,0.116442525
0.163952301,0.636910713,0.082447198,0.116689788
0.16368,0.636150675,0.083229897,0.116939428
0.163406918,0.635387344,0.084014295,0.117191442
0.163133073,0.634620739,0.084800357,0.117445831
0.162858482,0.633850879,0.085588045,0.117702593
0.162583163,0.633077784,0.086377324,0.117961729
0.162307133,0.632301476,0.087168155,0.118223236
0.162030409,0.63152198,0.087960501,0.11848711
0.161753005,0.63073932,0.088754329,0.118753346
0.161474937,0.629953522,0.089549606,0.119021936
0.161196218,0.629164609,0.090346299,0.119292874
0.160916864,0.628372608,0.09114438,0.119566148
0.160636888,0.627577544,0.091943817,0.119841751
0.160356309,0.626779441,0.09274458,0.12011967
0.160075143,0.625978329,0.093546634,0.120399893
0.159793411,0.625174235,0.094349947,0.120682407
0.159511132,0.624367192,0.095154482,0.120967194
0.159228327,0.623557233,0.095960203,0.121254238
0.158945015,0.622744391,0.096767076,0.121543518
0.158661217,0.621928696,0.097575071,0.121835015
0.158376953,0.621110177,0.098384164,0.122128706
0.158092243,0.620288859,0.099194332,0.122424566
0.157807107,0.619464769,0.100005551,0.122722573
0.157521567,0.618637932,0.100817799,0.123022702
0.157235646,0.617808379,0.101631048,0.123324928
0.156949364,0.61697614,0.102445271,0.123629226
0.156662744,0.616141245,0.10326044,0.123935571
0.156375808,0.615303727,0.104076526,0.124243938
0.156088577,0.61446362,0.104893501,0.124554301
0.155801072,0.613620956,0.105711337,0.124866634
0.155513314,0.612775769,0.106530006,0.125180911
0.155225326,0.611928092,0.107349479,0.125497104
0.154937128,0.61107796,0.108169726,0.125815187
0.154648742,0.610225411,0.108990715,0.126135131
0.154360193,0.609370483,0.109812414,0.12645691
0.154071501,0.608513215,0.110634791,0.126780493
0.153782689,0.607653645,0.111457813,0.127105853
0.153493779,0.606791814,0.112281449,0.127432958
0.153204789,0.60592776,0.113105672,0.127761779
0.152915737,0.60506152,0.113930458,0.128092284
0.15262664,0.604193131,0.114755785,0.128424444
0.152337512,0.603322628,0.115581634,0.128758225
0.15204837,0.602450046,0.116407988,0.129093596
0.151759228,0.601575413,0.117234836,0.129430523
0.151470099,0.600698757,0.118062171,0.129768974
0.151180998,0.599820102,0.118889987,0.130108913
0.150891937,0.598939474,0.11971828,0.130450308
0.150602931,0.5980569,0.120547046,0.130793123
0.150313995,0.597172405,0.121376276,0.131137324
0.150025143,0.596286019,0.122205963,0.131482875
0.149736391,0.595397768,0.123036099,0.131829743
0.149447755,0.594507681,0.123866672,0.132177893
0.149159249,0.593615785,0.124697674,0.132527292
0.148870888,0.592722108,0.125529095,0.132877909
0.148582688,0.591826678,0.126360922,0.133229712
0.148294662,0.590929524,0.127193144,0.133582671
0.148006824,0.590030675,0.128025745,0.133936756
0.164341788,0.732120158,0.014575436,0.088962617
0.164365508,0.732049664,0.014570591,0.089014238
0.164389388,0.73197886,0.014565739,0.089066014
0.164413429,0.731907749,0.014560878,0.089117944
0.164437632,0.731836332,0.014556011,0.089170025
0.164461997,0.731764611,0.014551136,0.089222256
0.164486526,0.731692587,0.014546254,0.089274633
0.164511217,0.731620263,0.014541365,0.089327155
0.164536071,0.73154764,0.01453647,0.089379819
0.164561087,0.731474722,0.014531568,0.089432623
0.164586265,0.731401512,0.014526659,0.089485564
0.164611605,0.731328012,0.014521744,0.08953864
0.164637105,0.731254226,0.014516821,0.089591848
0.164662765,0.731180158,0.014511891,0.089645185
0.164688584,0.731105813,0.014506954,0.08969865
0.16471456,0.731031194,0.014502008,0.089752239
0.164740692,0.730956305,0.014497054,0.089805949
0.164766978,0.730881152,0.01449209,0.089859779
0.164793417,0.73080574,0.014487118,0.089913725
0.164820007,0.730730071,0.014482137,0.089967785
0.164846747,0.730654151,0.014477147,0.090021956
0.164873633,0.730577984,0.014472148,0.090076235
0.164900665,0.730501573,0.014467142,0.09013062
0.16492784,0.730424922,0.014462128,0.09018511
0.164955156,0.730348036,0.014457107,0.090239702
0.164982612,0.730270916,0.014452078,0.090294394
0.165010205,0.730193568,0.014447043,0.090349184
0.165037935,0.730115993,0.014442001,0.090404071
0.1650658,0.730038195,0.014436952,0.090459053
0.165093798,0.729960175,0.014431896,0.090514131
0.165121928,0.729881937,0.014426833,0.090569302
0.165150188,0.729803483,0.014421763,0.090624565
0.165178578,0.729724817,0.014416686,0.09067992
0.165207096,0.72964594,0.0144116,0.090735364
0.165235741,0.729566855,0.014406506,0.090790898
0.165264511,0.729487565,0.014401404,0.09084652
0.165293405,0.729408071,0.014396294,0.09090223
0.165322424,0.729328374,0.014391176,0.090958027
0.165351565,0.729248475,0.01438605,0.09101391
0.165380828,0.729168375,0.014380918,0.091069879
0.165410212,0.729088077,0.014375778,0.091125933
0.165439715,0.729007581,0.014370633,0.091182072
0.165469335,0.728926889,0.014365481,0.091238295
0.165499072,0.728846003,0.014360324,0.091294601
0.165528923,0.728764927,0.014355161,0.091350989
0.165558887,0.728683661,0.014349992,0.091407459
0.165588963,0.728602209,0.014344818,0.09146401
0.165619151,0.728520573,0.014339638,0.091520639
0.165649448,0.728438754,0.014334451,0.091577347
0.165679854,0.728356757,0.014329258,0.091634131
0.165710368,0.728274584,0.014324058,0.091690991
0.165740987,0.728192238,0.01431885,0.091747924
0.165771711,0.728109725,0.014313635,0.09180493
0.165802537,0.728027046,0.014308412,0.091862005
0.165833466,0.727944205,0.014303181,0.091919148
0.165864496,0.727861204,0.014297943,0.091976357
0.165895626,0.727778047,0.014292698,0.092033629
0.165926854,0.727694735,0.014287446,0.092090964
0.165958181,0.727611273,0.014282188,0.092148358
0.165989603,0.727527662,0.014276924,0.092205811
0.166021121,0.727443906,0.014271654,0.09226332
0.166052732,0.727360007,0.014266377,0.092320883
0.166084436,0.727275969,0.014261095,0.092378499
0.166116233,0.727191794,0.014255807,0.092436166
0.166148121,0.727107485,0.014250513,0.092493881
0.1661801,0.727023045,0.014245213,0.092551643
0.166212169,0.726938477,0.014239905,0.092609448
0.166244327,0.726853785,0.014234591,0.092667297
0.166276573,0.726768973,0.01422927,0.092725184
0.166308906,0.726684042,0.014223941,0.09278311
0.166341326,0.726598997,0.014218606,0.092841072
0.16637383,0.726513838,0.014213264,0.092899067
0.16640642,0.726428569,0.014207916,0.092957095
0.166439092,0.726343192,0.014202563,0.093015153
0.166471847,0.726257709,0.014197203,0.093073241
0.166504683,0.726172122,0.014191839,0.093131356
0.1665376,0.726086433,0.014186469,0.093189498
0.166570596,0.726000646,0.014181095,0.093247664
0.16660367,0.725914761,0.014175715,0.093305853
0.166636822,0.725828782,0.014170331,0.093364065
0.166670052,0.72574271,0.014164941,0.093422297
0.166703358,0.725656549,0.014159545,0.093480548
0.16673674,0.725570299,0.014154143,0.093538818
0.166770198,0.725483965,0.014148734,0.093597103
0.16680373,0.725397548,0.014143318,0.093655404
0.166837336,0.725311051,0.014137894,0.093713719
0.166871016,0.725224476,0.014132463,0.093772046
0.166904768,0.725137824,0.014127023,0.093830385
0.166938593,0.725051097,0.014121576,0.093888734
0.16697249,0.724964297,0.014116121,0.093947093
0.167006457,0.724877426,0.014110658,0.094005459
0.167040495,0.724790485,0.014105188,0.094063831
0.167074601,0.72470348,0.014099711,0.094122208
0.167108775,0.724616411,0.014094227,0.094180586
0.167143016,0.724529284,0.014088735,0.094238966
0.167177321,0.7244421,0.014083235,0.094297344
0.16721169,0.724354864,0.014077727,0.094355719
0.167246121,0.72426758,0.014072211,0.094414088
0.167280612,0.724180253,0.014066686,0.09447245
0.167315162,0.724092886,0.01406115,0.094530801
0.16734977,0.724005485,0.014055605,0.09458914
0.167384434,0.723918055,0.014050048,0.094647464
0.167419151,0.723830599,0.01404448,0.09470577
0.167453921,0.723743122,0.014038899,0.094764058
0.167488742,0.723655628,0.014033306,0.094822324
0.167523612,0.723568121,0.0140277,0.094880567
0.16755853,0.723480604,0.014022081,0.094938785
0.167593494,0.72339308,0.014016449,0.094996976
0.167628502,0.723305555,0.014010804,0.095055139
0.167663553,0.723218031,0.014005144,0.095113271
0.167698646,0.723130514,0.01399947,0.095171371
0.167733777,0.723043006,0.013993781,0.095229436
0.167768948,0.722955511,0.013988077,0.095287465
0.167804155,0.722868032,0.013982356,0.095345456
0.167839398,0.722780573,0.013976619,0.09540341
0.167874677,0.722693136,0.013970864,0.095461323
0.167909988,0.722605725,0.013965091,0.095519196
0.167945331,0.722518344,0.013959299,0.095577026
0.167980704,0.722430997,0.013953487,0.095634812
0.168016105,0.722343686,0.013947655,0.095692554
0.168051533,0.722256414,0.013941803,0.09575025
0.168086985,0.722169185,0.01393593,0.0958079
0.16812246,0.722082001,0.013930037,0.095865501
0.168157956,0.721994866,0.013924123,0.095923054
0.168193471,0.721907782,0.013918188,0.095980559
0.168229003,0.721820753,0.013912231,0.096038013
0.16826455,0.721733781,0.013906252,0.096095417
0.168300109,0.721646869,0.013900251,0.096152771
0.168335679,0.721560021,0.013894226,0.096210073
0.168371259,0.72147324,0.013888178,0.096267323
0.168406845,0.721386529,0.013882106,0.09632452
0.168442438,0.721299892,0.013876008,0.096381663
0.168478035,0.721213332,0.013869883,0.09643875
0.168513634,0.721126853,0.013863731,0.096495782
0.168549233,0.72104046,0.013857551,0.096552756
0.16858483,0.720954157,0.013851342,0.096609671
0.168620424,0.720867949,0.013845103,0.096666525
0.16865601,0.720781839,0.013838833,0.096723317
0.168691587,0.720695834,0.013832533,0.096780046
0.168727152,0.720609936,0.013826201,0.09683671
0.168762702,0.720524152,0.013819838,0.096893307
0.168798234,0.720438487,0.013813443,0.096949836
0.168833744,0.720352947,0.013807015,0.097006294
0.16886923,0.720267537,0.013800554,0.097062679
0.168904688,0.720182265,0.013794058,0.097118989
0.168940115,0.720097136,0.013787528,0.097175221
0.168975508,0.720012157,0.013780963,0.097231372
0.169010865,0.719927334,0.013774361,0.09728744
0.169046182,0.719842675,0.013767721,0.097343422
0.169081457,0.719758187,0.013761043,0.097399313
0.169116687,0.719673877,0.013754325,0.097455112
0.169151869,0.719589751,0.013747567,0.097510813
0.169187002,0.719505816,0.013740768,0.097566414
0.169222082,0.71942208,0.013733927,0.097621911
0.169257108,0.719338548,0.013727044,0.097677299
0.169292079,0.719255227,0.013720119,0.097732576
0.169326992,0.719172122,0.013713151,0.097787736
0.169361846,0.719089238,0.01370614,0.097842776
0.169396639,0.719006583,0.013699085,0.097897693
0.169431369,0.718924161,0.013691986,0.097952483
0.169466036,0.718841979,0.013684842,0.098007143
0.169500637,0.718760041,0.013677652,0.098061669
0.169535171,0.718678354,0.013670417,0.098116058
0.169569638,0.718596922,0.013663134,0.098170306
0.169604036,0.71851575,0.013655803,0.098224411
0.169638365,0.718434844,0.013648423,0.098278368
0.169672624,0.718354208,0.013640993,0.098332176
0.169706811,0.718273848,0.013633512,0.098385829
0.169740927,0.718193769,0.013625979,0.098439325
0.16977497,0.718113976,0.013618394,0.09849266
0.169808941,0.718034472,0.013610756,0.098545831
0.169842837,0.717955263,0.013603066,0.098598834
0.169876659,0.717876353,0.013595323,0.098651665
0.169910406,0.717797746,0.013587526,0.098704321
0.169944078,0.717719448,0.013579676,0.098756798
0.169977673,0.717641463,0.013571772,0.098809091
0.170011191,0.717563797,0.013563814,0.098861198
0.170044632,0.717486453,0.013555801,0.098913115
0.170077994,0.717409436,0.013547732,0.098964837
0.170111278,0.717332751,0.013539608,0.099016362
0.170144484,0.717256403,0.013531427,0.099067686
0.17017761,0.717180396,0.01352319,0.099118804
0.170210657,0.717104735,0.013514895,0.099169713
0.170243624,0.717029424,0.013506542,0.099220409
0.170276511,0.716954469,0.013498131,0.09927089
0.170309316,0.716879872,0.013489661,0.099321152
0.170342038,0.716805637,0.013481131,0.099371193
0.170374679,0.716731768,0.013472543,0.099421011
0.170407236,0.716658268,0.013463895,0.099470602
0.170439708,0.716585139,0.013455188,0.099519964
0.170472096,0.716512386,0.013446422,0.099569095
0.170504399,0.716440011,0.013437597,0.099617993
0.170536615,0.716368018,0.013428712,0.099666655
0.170568743,0.71629641,0.013419768,0.099715079
0.170600783,0.716225191,0.013410764,0.099763263
0.170632733,0.716154365,0.013401699,0.099811204
0.170664591,0.716083936,0.013392574,0.099858899
0.170696358,0.71601391,0.013383387,0.099906345
0.17072803,0.715944291,0.013374139,0.09995354
0.170759606,0.715875085,0.013364829,0.10000048
0.170791083,0.715806299,0.013355456,0.100047162
0.170822462,0.715737936,0.01334602,0.100093583
0.170853738,0.715670001,0.01333652,0.10013974
0.170884911,0.7156025,0.013326957,0.100185632
0.170915978,0.715535438,0.013317331,0.100231254
0.170946938,0.715468818,0.013307641,0.100276603
0.170977788,0.715402645,0.013297888,0.100321678
0.171008526,0.715336925,0.013288074,0.100366475
0.171039151,0.715271661,0.013278196,0.100410992
0.171069659,0.715206858,0.013268258,0.100455225
0.171100049,0.715142521,0.013258257,0.100499173
0.171130318,0.715078654,0.013248195,0.100542833
0.171160465,0.715015262,0.013238072,0.100586201
0.171190487,0.71495235,0.013227888,0.100629275
0.171220382,0.714889923,0.013217642,0.100672053
0.171250149,0.714827985,0.013207335,0.100714531
0.171279786,0.714766542,0.013196966,0.100756706
0.171309291,0.714705598,0.013186536,0.100798576
0.171338662,0.714645157,0.013176044,0.100840137
0.171367897,0.714585224,0.013165491,0.100881388
0.171396994,0.714525804,0.013154878,0.100922324
0.171425952,0.7144669,0.013144204,0.100962943
0.171454769,0.714408517,0.013133471,0.101003243
0.171483443,0.714350657,0.01312268,0.101043219
0.171511975,0.714293323,0.01311183,0.101082872
0.171540361,0.714236518,0.013100923,0.101122198
0.171568602,0.714180243,0.01308996,0.101161195
0.171596696,0.714124501,0.013078941,0.101199862
0.171624644,0.714069293,0.013067866,0.101238197
0.171652444,0.714014621,0.013056737,0.101276198
0.171680096,0.713960486,0.013045553,0.101313865
0.171707601,0.713906888,0.013034315,0.101351196
0.171734959,0.713853828,0.013023023,0.10138819
0.171762168,0.713801306,0.013011678,0.101424848
0.17178923,0.713749323,0.013000279,0.101461167
0.171816144,0.713697879,0.012988829,0.101497148
0.17184291,0.713646975,0.012977326,0.101532789
0.171869529,0.71359661,0.012965773,0.101568089
0.171896001,0.713546783,0.012954169,0.101603047
0.171922326,0.713497494,0.012942516,0.101637664
0.171948504,0.713448743,0.012930815,0.101671938
0.171974536,0.713400529,0.012919065,0.101705869
0.172000422,0.713352853,0.012907268,0.101739458
0.172026161,0.713305713,0.012895424,0.101772703
0.172051753,0.713259109,0.012883534,0.101805605
0.172077198,0.713213041,0.012871597,0.101838164
0.172102497,0.713167508,0.012859615,0.10187038
0.17212765,0.71312251,0.012847587,0.101902253
0.172152658,0.713078045,0.012835513,0.101933784
0.172177519,0.713034116,0.012823394,0.101964972
0.172202234,0.712990721,0.012811229,0.101995817
0.172226802,0.712947861,0.012799018,0.102026318
0.172251224,0.712905537,0.012786763,0.102056476
0.172275499,0.712863747,0.012774463,0.10208629
0.172299627,0.712822492,0.01276212,0.102115761
0.172323608,0.712781771,0.012749734,0.102144887
0.172347441,0.712741583,0.012737305,0.10217367
0.172371127,0.712701929,0.012724835,0.102202108
0.172394665,0.712662808,0.012712324,0.102230203
0.172418055,0.712624219,0.012699773,0.102257954
0.172441295,0.712586162,0.012687181,0.102285362
0.172464387,0.712548637,0.012674549,0.102312427
0.17248733,0.712511644,0.012661877,0.102339148
0.172510125,0.712475181,0.012649166,0.102365528
0.17253277,0.71243925,0.012636415,0.102391565
0.172555267,0.712403849,0.012623624,0.10241726
0.172577615,0.712368978,0.012610794,0.102442613
0.172599815,0.712334639,0.012597923,0.102467624
0.172621865,0.712300829,0.012585013,0.102492293
0.172643767,0.71226755,0.012572063,0.10251662
0.172665519,0.712234801,0.012559075,0.102540605
0.172687123,0.71220258,0.012546048,0.102564249
0.172708577,0.712170888,0.012532985,0.102587551
0.172729882,0.712139723,0.012519885,0.10261051
0.172751037,0.712109086,0.012506749,0.102633128
0.172772042,0.712078976,0.012493578,0.102655404
0.172792895,0.712049393,0.012480374,0.102677338
0.172813596,0.712020338,0.012467136,0.102698929
0.172834144,0.71199181,0.012453867,0.102720178
0.172854538,0.71196381,0.012440567,0.102741085
0.172874777,0.711936338,0.012427236,0.102761649
0.172894861,0.711909393,0.012413876,0.10278187
0.172914789,0.711882975,0.012400486,0.102801749
0.172934561,0.711857087,0.012387068,0.102821284
0.172954174,0.711831727,0.012373623,0.102840476
0.17297363,0.711806895,0.012360151,0.102859324
0.172992926,0.711782593,0.012346652,0.102877829
0.173012064,0.711758817,0.012333129,0.102895991
0.173031041,0.711735568,0.012319581,0.102913809
0.173049859,0.711712846,0.012306011,0.102931285
0.173068514,0.711690649,0.012292418,0.102948419
0.173087007,0.711668978,0.012278805,0.102965211
0.173105335,0.711647834,0.012265171,0.10298166
0.173123497,0.711627217,0.012251518,0.102997768
0.17314149,0.711607129,0.012237847,0.103013534
0.173159314,0.711587571,0.012224157,0.103028958
0.173176966,0.711568544,0.012210451,0.10304404
0.173194445,0.711550048,0.012196727,0.10305878
0.173211748,0.711532087,0.012182988,0.103073178
0.173228874,0.71151466,0.012169233,0.103087233
0.173245822,0.711497769,0.012155462,0.103100947
0.173262588,0.711481417,0.012141677,0.103114317
0.173279173,0.711465603,0.012127879,0.103127345
0.173295573,0.71145033,0.012114068,0.103140029
0.173311787,0.711435596,0.012100247,0.10315237
0.173327813,0.711421404,0.012086416,0.103164367
0.173343651,0.711407752,0.012072577,0.10317602
0.173359298,0.711394641,0.012058732,0.10318733
0.173374753,0.711382071,0.012044882,0.103198295
0.173390015,0.711370042,0.012031028,0.103208915
0.173405083,0.711358555,0.012017172,0.10321919
0.173419955,0.71134761,0.012003315,0.10322912
0.17343463,0.711337207,0.011989458,0.103238704
0.173449109,0.711327348,0.011975603,0.10324794
0.173463389,0.711318032,0.01196175,0.103256829
0.173477471,0.711309261,0.011947899,0.103265369
0.173491353,0.711301037,0.011934052,0.103273558
0.173505035,0.711293359,0.01192021,0.103281396
0.173518517,0.711286228,0.011906373,0.103288882
0.173531796,0.711279646,0.011892542,0.103296016
0.173544874,0.71127361,0.011878719,0.103302797
0.173557748,0.711268122,0.011864906,0.103309224
0.173570419,0.71126318,0.011851104,0.103315298
0.173582884,0.711258784,0.011837314,0.103321017
0.173595144,0.711254936,0.01182354,0.10332638
0.173607197,0.711251634,0.011809782,0.103331386
0.173619043,0.711248881,0.011796041,0.103336035
0.173630682,0.711246675,0.01178232,0.103340324
0.173642111,0.711245016,0.011768618,0.103344254
0.173653332,0.711243906,0.011754939,0.103347823
0.173664345,0.711243344,0.011741281,0.10335103
0.173675148,0.711243331,0.011727647,0.103353875
0.173685742,0.711243866,0.011714036,0.103356355
0.173696127,0.711244951,0.011700451,0.103358471
0.173706301,0.711246587,0.011686891,0.103360221
0.173716265,0.711248773,0.011673358,0.103361604
0.173726018,0.711251511,0.011659852,0.103362619
0.17373556,0.7112548,0.011646375,0.103363264
0.173744892,0.711258639,0.011632928,0.10336354
0.173754013,0.711263029,0.011619513,0.103363446
0.173762923,0.711267968,0.01160613,0.10336298
0.173771623,0.711273454,0.01159278,0.103362143
0.173780112,0.711279488,0.011579466,0.103360934
0.17378839,0.711286069,0.011566188,0.103359353
0.173796459,0.711293195,0.011552946,0.1033574
0.173804317,0.711300867,0.011539743,0.103355074
0.173811965,0.711309082,0.011526578,0.103352375
0.173819405,0.71131784,0.011513452,0.103349303
0.173826635,0.711327141,0.011500367,0.103345857
0.173833657,0.711336984,0.011487322,0.103342038
0.17384047,0.711347368,0.011474318,0.103337845
0.173847075,0.711358293,0.011461356,0.103333277
0.173853472,0.711369757,0.011448436,0.103328335
0.173859661,0.711381761,0.01143556,0.103323018
0.173865641,0.711394304,0.011422729,0.103317326
0.173871412,0.711407386,0.011409945,0.103311257
0.173876973,0.711421008,0.011397207,0.103304812
0.173882323,0.71143517,0.011384518,0.10329799
0.173887461,0.711449871,0.011371878,0.103290789
0.173892387,0.711465114,0.01135929,0.10328321
0.173897099,0.711480898,0.011346753,0.10327525
0.173901598,0.711497224,0.011334268,0.10326691
0.173905882,0.711514092,0.011321836,0.103258189
0.173909952,0.711531505,0.011309458,0.103249085
0.173913807,0.711549461,0.011297134,0.103239598
0.173917445,0.711567963,0.011284864,0.103229728
0.173920868,0.711587012,0.011272648,0.103219472
0.173924074,0.71160661,0.011260487,0.10320883
0.173927063,0.711626757,0.01124838,0.1031978
0.173929833,0.711647455,0.011236329,0.103186384
0.173932385,0.711668703,0.011224333,0.103174578
0.173934718,0.711690503,0.011212394,0.103162385
0.173936832,0.711712856,0.011200511,0.103149801
0.173938724,0.711735762,0.011188686,0.103136828
0.173940395,0.711759222,0.01117692,0.103123463
0.173941844,0.711783238,0.011165213,0.103109705
0.17394307,0.71180781,0.011153565,0.103095555
0.173944072,0.71183294,0.011141977,0.103081011
0.173944851,0.711858627,0.011130449,0.103066072
0.173945406,0.711884873,0.011118983,0.103050738
0.173945737,0.711911679,0.011107577,0.103035007
0.173945843,0.711939046,0.011096231,0.10301888
0.173945724,0.711966974,0.011084947,0.103002355
0.173945379,0.711995465,0.011073723,0.102985432
0.173944809,0.712024521,0.01106256,0.10296811
0.173944012,0.712054143,0.011051458,0.102950387
0.173942988,0.71208433,0.011040418,0.102932264
0.173941738,0.712115083,0.011029439,0.102913739
0.173940261,0.712146403,0.011018523,0.102894813
0.173938557,0.71217829,0.011007669,0.102875483
0.173936625,0.712210744,0.010996879,0.102855752
0.173934465,0.712243765,0.010986152,0.102835618
0.173932075,0.712277352,0.01097549,0.102815083
0.173929456,0.712311506,0.010964891,0.102794146
0.173926607,0.712346226,0.010954357,0.10277281
0.173923527,0.712381513,0.010943887,0.102751073
0.173920216,0.712417364,0.010933482,0.102728938
0.173916673,0.71245378,0.010923141,0.102706406
0.173912897,0.71249076,0.010912864,0.102683479
0.173908889,0.712528301,0.010902652,0.102660159
0.152829335,0.305187803,0.434000363,0.107982498
0.152572367,0.303893948,0.434921635,0.10861205
0.152316503,0.302599572,0.435835356,0.109248569
0.152061747,0.301304847,0.436741528,0.109891878
0.151808103,0.300009942,0.437640158,0.110541797
0.151555575,0.298715022,0.438531254,0.111198149
0.151304167,0.297420252,0.439414827,0.111860755
0.151053881,0.296125793,0.440290889,0.112529437
0.150804722,0.294831805,0.441159454,0.113204019
0.150556694,0.293538448,0.442020535,0.113884323
0.150309802,0.292245879,0.442874148,0.114570171
0.150064049,0.290954255,0.443720311,0.115261385
0.149819437,0.289663732,0.444559039,0.115957791
0.149575968,0.288374465,0.445390351,0.116659216
0.149333641,0.287086605,0.446214262,0.117365492
0.149092456,0.285800302,0.447030788,0.118076454
0.14885241,0.284515703,0.447839944,0.118791942
0.148613503,0.283232955,0.448641744,0.119511798
0.148375733,0.281952199,0.449436204,0.120235864
0.148139103,0.280673574,0.450223341,0.120963982
0.147903616,0.279397212,0.451003177,0.121695995
0.147669275,0.278123243,0.451775735,0.122431747
0.147436085,0.276851792,0.45254104,0.123171083
0.147204049,0.275582979,0.45329912,0.123913852
0.146973171,0.27431692,0.454050007,0.124659902
0.14674346,0.273053724,0.454793735,0.125409081
0.146514925,0.271793495,0.455530341,0.12616124
0.146287575,0.270536332,0.456259862,0.126916231
0.146061424,0.269282336,0.456982333,0.127673907
0.145836481,0.268031602,0.457697792,0.128434124
0.145612759,0.266784228,0.458406276,0.129196738
0.145390266,0.265540307,0.459107824,0.129961604
0.14516901,0.264299933,0.459802475,0.130728582
0.144949,0.2630632,0.46049027,0.131497531
0.144730241,0.261830199,0.461171248,0.132268312
0.144512742,0.260601021,0.46184545,0.133040787
0.144296511,0.25937575,0.462512919,0.133814821
0.144081554,0.258154468,0.463173698,0.13459028
0.14386788,0.256937254,0.463827833,0.135367033
0.143655493,0.255724184,0.464475372,0.136144952
0.143444399,0.254515329,0.46511636,0.136923913
0.1432346,0.253310761,0.465750844,0.137703795
0.1430261,0.252110549,0.466378868,0.138484483
0.1428189,0.250914761,0.467000472,0.139265866
0.142613001,0.249723468,0.467615695,0.140047836
0.142408403,0.248536736,0.468224575,0.140830286
0.142205108,0.247354631,0.468827151,0.141613111
0.142003117,0.246177216,0.469423463,0.142396204
0.141802431,0.245004556,0.470013551,0.143179462
0.141603051,0.243836711,0.470597454,0.143962783
0.141404978,0.242673745,0.47117521,0.144746067
0.141208212,0.241515717,0.471746855,0.145529215
0.141012754,0.240362685,0.472312427,0.146312134
0.140818605,0.239214705,0.472871958,0.147094732
0.140625766,0.238071829,0.473425483,0.147876923
0.140434238,0.236934104,0.473973035,0.148658623
0.140244026,0.235801578,0.474514644,0.149439752
0.140055131,0.234674297,0.475050343,0.150220228
0.139867557,0.233552308,0.47558016,0.150999976
0.139681304,0.232435655,0.47610412,0.15177892
0.139496373,0.231324386,0.476622252,0.152556989
0.139312763,0.230218547,0.47713458,0.15333411
0.139130476,0.229118179,0.477641133,0.154110211
0.138949516,0.228023325,0.478141938,0.154885221
0.138769886,0.226934022,0.478637025,0.155659067
0.13859159,0.225850309,0.47912642,0.156431682
0.138414631,0.224772222,0.479610151,0.157202996
0.138239011,0.223699801,0.480088245,0.157972943
0.138064731,0.222633082,0.480560727,0.15874146
0.13789179,0.221572098,0.481027623,0.15950849
0.137720187,0.22051688,0.481488957,0.160273976
0.137549921,0.219467455,0.481944755,0.161037869
0.13738099,0.218423847,0.482395044,0.161800119
0.137213393,0.217386074,0.482839849,0.162560684
0.137047128,0.216354151,0.483279196,0.163319525
0.136882191,0.215328089,0.483713112,0.164076608
0.136718577,0.214307898,0.484141623,0.164831902
0.136556282,0.213293585,0.484564756,0.165585376
0.1363953,0.212285158,0.484982539,0.166337003
0.136235625,0.211282621,0.485394999,0.167086755
0.136077253,0.210285977,0.485802163,0.167834608
0.135920178,0.209295228,0.486204059,0.168580534
0.135764395,0.208310375,0.486600719,0.169324511
0.135609899,0.207331417,0.486992172,0.170066513
0.13545668,0.206358355,0.487378447,0.170806518
0.135304733,0.20539119,0.487759574,0.171544503
0.135154051,0.204429919,0.488135583,0.172280448
0.135004626,0.20347454,0.488506503,0.173014331
0.134856452,0.202525046,0.488872365,0.173746137
0.134709523,0.201581429,0.489233198,0.17447585
0.134563832,0.200643681,0.489589032,0.175203456
0.134419371,0.199711792,0.489939894,0.175928942
0.134276136,0.198785751,0.490285815,0.176652298
0.13413412,0.197865547,0.490626823,0.177373511
0.133993318,0.196951168,0.490962947,0.178092567
0.133853727,0.1960426,0.491294219,0.178809454
0.133715342,0.195139829,0.49162067,0.179524159
0.133578161,0.194242839,0.491942334,0.180236667
0.13344218,0.193351612,0.492259243,0.180946964
0.133307399,0.192466129,0.492571435,0.181655036
0.133173816,0.191586368,0.492878947,0.182360869
0.133041429,0.190712307,0.493181817,0.183064447
0.132910235,0.189843924,0.493480087,0.183765754
0.132780229,0.188981194,0.4937738,0.184464776
0.132651407,0.188124093,0.494062999,0.1851615
0.132523764,0.187272594,0.49434773,0.185855912
0.132397293,0.186426667,0.49462804,0.186548001
0.132271986,0.185586281,0.494903979,0.187237755
0.132147836,0.184751402,0.495175597,0.187925165
0.132024836,0.183921995,0.495442945,0.188610224
0.131902981,0.183098024,0.49570607,0.189292925
0.131782262,0.182279455,0.495965022,0.189973261
0.131662676,0.181466251,0.496219848,0.190651225
0.131544216,0.18065838,0.496470594,0.19132681
0.131426875,0.179855807,0.496717306,0.192000012
0.131310647,0.179058499,0.496960029,0.192670825
0.131195526,0.178266427,0.497198804,0.193339243
0.131081505,0.177479558,0.497433677,0.19400526
0.13096858,0.176697862,0.497664687,0.194668871
0.130856744,0.175921306,0.497891879,0.19533007
0.130745994,0.175149857,0.498115295,0.195988853
0.130636326,0.17438348,0.498334977,0.196645216
0.130527736,0.17362214,0.498550968,0.197299156
0.130420219,0.172865801,0.498763309,0.197950672
0.130313772,0.172114425,0.498972043,0.19859976
0.130208393,0.171367976,0.499177212,0.199246419
0.130104083,0.170626415,0.499378856,0.199890647
0.130000841,0.169889704,0.499577015,0.20053244
0.129898672,0.169157804,0.499771727,0.201171798
0.129797578,0.168430676,0.49996303,0.201808716
0.129697563,0.16770828,0.500150964,0.202443192
0.129598632,0.166990576,0.500335569,0.203075223
0.129500788,0.166277522,0.500516886,0.203704804
0.129404036,0.165569077,0.500694958,0.204331929
0.129308382,0.164865198,0.500869828,0.204956592
0.12921383,0.164165843,0.50104154,0.205578787
0.129120385,0.163470971,0.501210137,0.206198506
0.129028053,0.16278054,0.501375662,0.206815745
0.128936836,0.162094509,0.50153816,0.207430495
0.12884674,0.161412836,0.501697672,0.208042752
0.128757769,0.16073548,0.501854238,0.208652513
0.128669926,0.160062399,0.502007902,0.209259773
0.128583214,0.159393553,0.502158702,0.209864531
0.128497636,0.158728899,0.502306682,0.210466784
0.128413193,0.158068397,0.50245188,0.21106653
0.128329888,0.157412005,0.502594338,0.211663769
0.128247721,0.156759682,0.502734096,0.212258501
0.128166694,0.156111388,0.50287119,0.212850728
0.128086807,0.15546708,0.50300566,0.213440454
0.128008059,0.154826717,0.50313754,0.214027683
0.127930451,0.154190259,0.503266867,0.214612423
0.12785398,0.153557663,0.503393674,0.215194683
0.127778645,0.152928889,0.503517996,0.215774471
0.127704444,0.152303895,0.503639866,0.216351795
0.127631374,0.151682641,0.50375932,0.216926665
0.127559433,0.151065085,0.503876394,0.217499088
0.127488617,0.150451186,0.503991123,0.218069074
0.127418922,0.149840903,0.504103542,0.218636633
0.127350344,0.149234194,0.504213685,0.219201777
0.12728288,0.148631019,0.504321586,0.219764516
0.127216524,0.148031335,0.504427279,0.220324861
0.127151272,0.147435103,0.504530801,0.220882824
0.12708712,0.14684228,0.504632185,0.221438414
0.127024063,0.146252828,0.504731467,0.221991641
0.126962094,0.145666706,0.504828685,0.222542515
0.126901208,0.145083873,0.504923874,0.223091044
0.126841397,0.14450429,0.505017072,0.22363724
0.126782654,0.14392792,0.505108314,0.224181112
0.126724967,0.143354729,0.505197635,0.22472267
0.126668328,0.142784682,0.505285068,0.225261922
0.126612725,0.142217749,0.505370648,0.225798878
0.126558148,0.141653897,0.505454408,0.226333547
0.126504587,0.141093095,0.505536381,0.226865937
0.12645203,0.140535312,0.505616599,0.227396058
0.126400468,0.139980517,0.505695096,0.227923918
0.126349889,0.139428681,0.505771903,0.228449528
0.126300279,0.138879778,0.505847049,0.228972894
0.126251626,0.138333782,0.505920565,0.229494027
0.126203917,0.137790669,0.505992479,0.230012935
0.126157139,0.137250413,0.50606282,0.230529628
0.126111278,0.136712991,0.506131616,0.231044115
0.126066321,0.136178377,0.506198895,0.231556408
0.126022252,0.135646546,0.506264684,0.232066518
0.125979058,0.135117477,0.50632901,0.232574455
0.125936726,0.134591145,0.5063919,0.233080229
0.125895242,0.134067528,0.506453381,0.233583849
0.125854593,0.133546607,0.506513476,0.234085323
0.125814768,0.133028361,0.506572211,0.23458466
0.125775752,0.132512769,0.506629611,0.235081868
0.125737533,0.131999812,0.506685701,0.235576954
0.125700098,0.131489468,0.506740505,0.236069928
0.125663435,0.13098172,0.506794047,0.236560798
0.125627531,0.130476548,0.506846348,0.237049572
0.125592374,0.129973936,0.506897431,0.237536259
0.125557952,0.129473866,0.506947314,0.238020868
0.125524255,0.128976321,0.506996017,0.238503407
0.125491273,0.128481284,0.507043558,0.238983886
0.125458996,0.127988737,0.507089955,0.239462312
0.125427415,0.127498664,0.507135228,0.239938693
0.125396521,0.127011046,0.507179395,0.240413037
0.125366307,0.126525867,0.507222474,0.240885352
0.125336763,0.126043111,0.507264484,0.241355642
0.125307883,0.12556276,0.507305442,0.241823915
0.12527966,0.125084801,0.507345363,0.242290176
0.125252088,0.124609218,0.507384264,0.24275443
0.125225159,0.124135995,0.507422163,0.243216682
0.125198869,0.123665118,0.507459074,0.243676939
0.125173212,0.123196572,0.507495013,0.244135203
0.125148183,0.122730342,0.507529995,0.24459148
0.125123777,0.122266417,0.507564034,0.245045772
0.125099993,0.121804781,0.507597143,0.245498082
0.125076828,0.121345423,0.507629336,0.245948413
0.125054282,0.120888327,0.507660625,0.246396766
0.125032354,0.12043348,0.507691023,0.246843144
0.125011044,0.119980866,0.507720543,0.247287547
0.124990354,0.119530472,0.507749198,0.247729977
0.124970285,0.119082282,0.507776999,0.248170434
0.12495084,0.118636284,0.507803959,0.248608918
0.124932022,0.118192462,0.50783009,0.249045427
0.124913835,0.117750803,0.507855404,0.249479958
0.124896285,0.117311291,0.507879915,0.249912509
0.124879378,0.116873911,0.507903635,0.250343076
0.124863118,0.116438648,0.507926578,0.250771656
0.124847513,0.116005485,0.507948759,0.251198243
0.12483257,0.115574406,0.507970192,0.251622833
0.124818298,0.115145392,0.50799089,0.25204542
0.124804706,0.114718424,0.508010868,0.252466002
0.1247918,0.114293483,0.508030141,0.252884575
0.12477959,0.113870548,0.508048723,0.253301139
0.124768082,0.113449599,0.508066626,0.253715693
0.124757283,0.113030613,0.508083864,0.254128239
0.124747199,0.11261357,0.50810045,0.254538781
0.124737836,0.112198448,0.508116395,0.254947321
0.124729197,0.111785225,0.508131712,0.255353865
0.124721288,0.111373881,0.508146413,0.255758418
0.124714111,0.110964395,0.50816051,0.256160984
0.124707671,0.110556747,0.508174015,0.256561568
0.124701969,0.110150918,0.508186939,0.256960174
0.124697007,0.109746889,0.508199296,0.257356809
0.124692786,0.109344641,0.508211095,0.257751477
0.124689308,0.108944156,0.50822235,0.258144186
0.124686573,0.108545418,0.508233071,0.258534939
0.124684579,0.108148409,0.508243269,0.258923743
0.124683329,0.107753114,0.508252955,0.259310602
0.124682821,0.107359515,0.50826214,0.259695523
0.124683057,0.106967598,0.508270834,0.260078512
0.124684036,0.106577343,0.508279047,0.260459574
0.124685758,0.106188735,0.50828679,0.260838716
0.124688222,0.105801758,0.508294074,0.261215946
0.124691427,0.105416393,0.508300909,0.261591271
0.124695372,0.105032626,0.508307305,0.261964697
0.124700054,0.10465044,0.508313271,0.262336235
0.124705472,0.10426982,0.508318815,0.262705892
0.124711623,0.103890752,0.508323948,0.263073677
0.124718504,0.103513221,0.508328677,0.263439599
0.12472611,0.103137211,0.508333012,0.263803667
0.124734438,0.102762708,0.508336962,0.264165892
0.124743483,0.102389699,0.508340536,0.264526282
0.124753239,0.102018169,0.508343744,0.264884848
0.124763701,0.101648104,0.508346594,0.2652416
0.124774864,0.10127949,0.508349097,0.265596549
0.124786722,0.100912312,0.508351261,0.265949705
0.124799269,0.100546554,0.5083531,0.266301077
0.124812499,0.1001822,0.508354626,0.266650675
0.124826407,0.099819234,0.508355851,0.266998508
0.124840985,0.099457642,0.508356788,0.267344585
0.124856227,0.099097409,0.508357451,0.267688914
0.124872127,0.09873852,0.508357849,0.268031504
0.124888679,0.098380963,0.508357996,0.268372361
0.124905877,0.098024727,0.508357903,0.268711494
0.124923712,0.097669798,0.508357581,0.269048909
0.12494218,0.097316167,0.50835704,0.269384614
0.124961272,0.09696382,0.508356291,0.269718616
0.124980983,0.096612748,0.508355346,0.270050923
0.125001305,0.09626294,0.508354214,0.270381541
0.125022231,0.095914386,0.508352905,0.270710478
0.125043755,0.095567079,0.508351427,0.271037739
0.125065869,0.095221013,0.508349785,0.271363333
0.125088568,0.094876181,0.508347986,0.271687266
0.125111845,0.094532577,0.508346034,0.272009543
0.125135694,0.094190196,0.508343938,0.272330172
0.125160109,0.093849031,0.508341701,0.272649158
0.125185084,0.093509077,0.508339331,0.272966507
0.125210614,0.093170329,0.508336832,0.273282224
0.125236694,0.092832782,0.50833421,0.273596314
0.125263319,0.092496431,0.508331469,0.273908781
0.125290482,0.092161274,0.508328614,0.27421963
0.125318179,0.091827307,0.508325649,0.274528865
0.125346405,0.091494526,0.50832258,0.27483649
0.125375154,0.091162927,0.508319411,0.275142509
0.12540442,0.090832506,0.508316148,0.275446926
0.125434197,0.090503261,0.508312796,0.275749745
0.12546448,0.09017519,0.508309359,0.276050971
0.125495262,0.089848291,0.508305842,0.276350605
0.125526537,0.089522562,0.508302249,0.276648652
0.1255583,0.089198004,0.508298581,0.276945116
0.125590544,0.088874613,0.508294843,0.27724
0.125623263,0.088552391,0.508291037,0.277533309
0.125656452,0.088231335,0.508287167,0.277825046
0.125690103,0.087911447,0.508283233,0.278115217
0.125724209,0.087592726,0.50827924,0.278403825
0.125758763,0.087275174,0.508275187,0.278690876
0.125793758,0.086958792,0.508271076,0.278976373
0.125829187,0.086643581,0.508266909,0.279260324
0.125865041,0.08632954,0.508262685,0.279542734
0.125901314,0.086016671,0.508258407,0.279823609
0.125937997,0.085704972,0.508254076,0.280102956
0.125975083,0.085394443,0.508249693,0.280380781
0.126012563,0.085085084,0.50824526,0.280657093
0.126050431,0.084776895,0.508240776,0.280931898
0.126088679,0.084469875,0.508236243,0.281205203
0.1261273,0.084164024,0.508231662,0.281477013
0.126166287,0.083859342,0.508227033,0.281747338
0.126205634,0.083555827,0.508222357,0.282016182
0.126245335,0.083253477,0.508217635,0.282283553
0.126285386,0.08295229,0.508212866,0.282549458
0.126325782,0.082652264,0.508208052,0.282813902
0.126366518,0.082353397,0.508203194,0.283076891
0.126407593,0.082055687,0.50819829,0.28333843
0.126449001,0.081759132,0.508193341,0.283598526
0.126490739,0.08146373,0.508188349,0.283857182
0.126532803,0.081169479,0.508183312,0.284114406
0.12657519,0.080876376,0.508178233,0.284370201
0.126617895,0.08058442,0.508173111,0.284624573
0.126660914,0.080293609,0.50816795,0.284877528
0.126704242,0.080003941,0.508162749,0.285129069
0.126747876,0.079715413,0.50815751,0.285379201
0.126791812,0.079428024,0.508152236,0.285627927
0.126836048,0.07914177,0.50814693,0.285875252
0.12688058,0.078856648,0.508141594,0.286121178
0.126925406,0.078572653,0.508136232,0.286365709
0.126970522,0.078289784,0.508130845,0.286608849
0.127015925,0.078008038,0.508125436,0.286850601
0.127061613,0.077727411,0.508120008,0.287090968
0.127107581,0.077447901,0.508114563,0.287329955
0.127153828,0.077169504,0.508109103,0.287567565
0.127200349,0.076892216,0.508103631,0.287803804
0.127247143,0.076616034,0.508098149,0.288038674
0.127294206,0.076340951,0.50809266,0.288272182
0.127341536,0.076066964,0.508087166,0.288504334
0.12738913,0.075794067,0.508081669,0.288735134
0.127436985,0.075522254,0.508076171,0.288964589
0.127485099,0.075251519,0.508070676,0.289192707
0.127533467,0.074981856,0.508065185,0.289419492
0.127582089,0.07471326,0.5080597,0.289644951
0.127630961,0.074445725,0.508054224,0.28986909
0.127680082,0.074179243,0.508048759,0.290091916
0.127729449,0.073913808,0.508043307,0.290313436
0.12777906,0.073649413,0.508037872,0.290533656
0.127828911,0.073386051,0.508032456,0.290752581
0.127879001,0.073123715,0.508027064,0.29097022
0.127929327,0.0728624,0.508021696,0.291186576
0.127979886,0.072602099,0.508016357,0.291401657
0.128030676,0.072342807,0.508011048,0.291615469
0.128081692,0.072084519,0.508005771,0.291828017
0.128132933,0.071827229,0.508000529,0.292039309
0.128184395,0.071570931,0.507995323,0.292249351
0.128236075,0.071315618,0.507990157,0.29245815
0.128287969,0.071061286,0.507985033,0.292665712
0.128340076,0.070807928,0.507979953,0.292872043
0.128392391,0.07055554,0.507974919,0.29307715
0.128444912,0.070304118,0.507969932,0.293281039
0.128497636,0.070053655,0.507964994,0.293483715
0.128550561,0.069804147,0.507960107,0.293685186
0.128603683,0.069555587,0.507955273,0.293885457
0.128657001,0.069307971,0.507950494,0.294084534
0.128710511,0.069061291,0.507945772,0.294282426
0.128764211,0.068815542,0.507941109,0.294479139
0.128818097,0.068570718,0.507936505,0.294674679
0.128872168,0.068326815,0.507931963,0.294869054
0.128926421,0.068083826,0.507927483,0.29506227
0.128980853,0.067841747,0.507923066,0.295254334
0.129035461,0.067600572,0.507918715,0.295445252
0.129090242,0.067360296,0.50791443,0.295635032
0.129145194,0.067120912,0.507910215,0.295823679
0.129200312,0.066882418,0.507906069,0.296011201
0.129255593,0.066644809,0.507901995,0.296197603
0.129311034,0.066408082,0.507897994,0.29638289
0.129366632,0.066172233,0.507894066,0.296567069
0.129422384,0.065937259,0.507890212,0.296750145
0.129478286,0.065703157,0.507886433,0.296932124
0.129534336,0.065469923,0.507882729,0.297113011
0.129590531,0.065237555,0.507879103,0.297292811
0.129646866,0.06500605,0.507875553,0.297471531
0.12970334,0.064775406,0.507872081,0.297649173
0.12975995,0.06454562,0.507868686,0.297825744
0.129816692,0.064316692,0.507865369,0.298001248
0.129873563,0.06408862,0.507862129,0.298175688
0.129930562,0.063861401,0.507858968,0.298349069
0.129987685,0.063635033,0.507855885,0.298521397
0.130044931,0.063409513,0.507852881,0.298692675
0.130102296,0.063184839,0.507849957,0.298862908
0.130159779,0.062961009,0.507847112,0.2990321
0.130217376,0.06273802,0.507844348,0.299200256
0.130275085,0.062515871,0.507841665,0.299367379
0.130332903,0.062294559,0.507839064,0.299533473
0.130390827,0.062074084,0.507836546,0.299698543
0.130448853,0.061854442,0.507834112,0.299862594
0.130506977,0.06163563,0.507831763,0.30002563
0.130565197,0.061417647,0.5078295,0.300187655
0.199344396,0.334826865,0.23215822,0.233670519
0.198924716,0.334337652,0.233276606,0.233461027
0.198507952,0.333845506,0.234393871,0.233252671
0.198094115,0.333350459,0.235509971,0.233045455
0.19768321,0.332852546,0.236624863,0.232839381
0.197275242,0.332351802,0.237738505,0.232634451
0.196870214,0.33184826,0.238850859,0.232430667
0.196468126,0.331341951,0.239961894,0.232228029
0.196068979,0.330832905,0.241071575,0.232026541
0.195672772,0.330321153,0.242179872,0.231826203
0.195279502,0.329806729,0.243286751,0.231627018
0.194889167,0.329289665,0.244392179,0.231428988
0.19450176,0.328769999,0.245496125,0.231232116
0.19411727,0.328247764,0.24659856,0.231036406
0.193735685,0.327722993,0.247699455,0.230841867
0.193356989,0.327195718,0.248798785,0.230648508
0.192981167,0.326665969,0.249896522,0.230456341
0.192608203,0.326133779,0.250992639,0.230265379
0.19223808,0.325599177,0.252087111,0.230075633
0.191870781,0.325062194,0.25317991,0.229887116
0.191506288,0.324522864,0.25427101,0.229699839
0.191144582,0.323981219,0.255360386,0.229513813
0.190785644,0.323437292,0.256448013,0.22932905
0.190429455,0.322891118,0.257533865,0.229145562
0.190075993,0.322342728,0.258617918,0.22896336
0.189725241,0.321792155,0.259700145,0.228782459
0.189377177,0.321239431,0.260780519,0.228602873
0.189031781,0.32068459,0.261859013,0.228424616
0.188689031,0.320127665,0.2629356,0.228247704
0.188348905,0.31956869,0.264010251,0.228072154
0.188011382,0.319007701,0.265082934,0.227897982
0.187676442,0.318444731,0.26615362,0.227725207
0.187344065,0.317879811,0.267222277,0.227553847
0.187014232,0.317312972,0.268288876,0.227383919
0.186686926,0.316744241,0.26935339,0.227215443
0.186362128,0.316173644,0.270415792,0.227048436
0.186039817,0.315601208,0.271476058,0.226882916
0.185719973,0.315026962,0.272534162,0.226718904
0.185402574,0.314450934,0.273590075,0.226556416
0.1850876,0.313873159,0.27464377,0.226395471
0.184775028,0.313293669,0.275695217,0.226236086
0.184464839,0.312712498,0.276744388,0.226078276
0.184157012,0.31212968,0.277791253,0.225922054
0.18385153,0.311545251,0.278835784,0.225767435
0.183548372,0.310959249,0.27987795,0.22561443
0.183247518,0.310371711,0.280917721,0.22546305
0.182948947,0.309782678,0.281955068,0.225313307
0.18265264,0.309192193,0.282989957,0.225165209
0.182358577,0.308600299,0.284022359,0.225018766
0.182066735,0.308007036,0.285052244,0.224873984
0.181777096,0.307412448,0.286079585,0.224730872
0.181489636,0.306816576,0.287104355,0.224589433
0.181204337,0.30621946,0.28812653,0.224449673
0.180921174,0.305621144,0.289146086,0.224311596
0.180640128,0.305021667,0.290163,0.224175205
0.180361174,0.304421069,0.291177253,0.224040504
0.18008429,0.303819392,0.292188824,0.223907494
0.179809454,0.303216674,0.293197696,0.223776177
0.179536644,0.302612954,0.294203848,0.223646554
0.179265838,0.30200827,0.295207265,0.223518626
0.178997015,0.301402663,0.29620793,0.223392393
0.178730149,0.30079617,0.297205826,0.223267856
0.178465215,0.300188831,0.298200941,0.223145013
0.178202187,0.299580689,0.299193262,0.223023862
0.177941038,0.298971785,0.300182775,0.222904402
0.17768174,0.29836216,0.301169467,0.222786633
0.177424265,0.297751854,0.302153325,0.222670555
0.177168586,0.297140906,0.303134337,0.222556171
0.176914676,0.296529351,0.304112489,0.222443484
0.176662509,0.295917226,0.305087769,0.222332497
0.176412059,0.295304568,0.306060161,0.222223211
0.176163305,0.294691416,0.307029649,0.22211563
0.175916223,0.294077808,0.307996216,0.222009753
0.175670793,0.293463781,0.308959844,0.221905582
0.175426996,0.292849373,0.309920516,0.221803115
0.175184813,0.29223462,0.310878214,0.221702354
0.174944226,0.291619559,0.31183292,0.221603296
0.174705215,0.291004228,0.312784617,0.221505941
0.174467761,0.290388667,0.313733286,0.221410287
0.174231845,0.289772917,0.314678909,0.221316328
0.173997449,0.289157022,0.315621468,0.221224062
0.173764552,0.288541022,0.316560943,0.221133482
0.173533137,0.287924961,0.317497318,0.221044584
0.173303184,0.287308879,0.318430575,0.220957362
0.173074676,0.286692816,0.319360697,0.220871811
0.172847594,0.286076813,0.320287667,0.220787927
0.17262192,0.285460909,0.321211468,0.220705703
0.172397637,0.284845148,0.322132082,0.220625133
0.172174724,0.284229572,0.323049491,0.220546212
0.171953164,0.283614225,0.323963677,0.220468934
0.171732939,0.28299915,0.324874622,0.22039329
0.171514029,0.282384388,0.325782309,0.220319274
0.171296417,0.281769982,0.326686722,0.220246879
0.171080085,0.281155971,0.327587846,0.220176099
0.170865015,0.280542396,0.328485662,0.220106926
0.170651191,0.2799293,0.329380156,0.220039353
0.170438593,0.279316724,0.33027131,0.219973373
0.170227206,0.27870471,0.331159109,0.219908975
0.170017012,0.278093301,0.332043535,0.219846151
0.169807998,0.277482539,0.332924572,0.219784891
0.169600145,0.276872463,0.333802207,0.219725185
0.16939344,0.276263114,0.334676424,0.219667023
0.169187866,0.27565453,0.335547211,0.219610394
0.168983411,0.27504675,0.336414553,0.219555287
0.16878006,0.274439813,0.337278436,0.219501691
0.168577802,0.273833759,0.338138847,0.219449592
0.168376628,0.273228625,0.33899577,0.219398978
0.168176525,0.272624448,0.339849192,0.219349834
0.167977488,0.272021264,0.3406991,0.219302149
0.167779507,0.271419107,0.341545479,0.219255907
0.167582576,0.27081801,0.342388316,0.219211098
0.167386688,0.270218008,0.343227598,0.219167706
0.167191837,0.269619133,0.34406331,0.21912572
0.16699802,0.269021417,0.344895438,0.219085126
0.166805232,0.268424891,0.345723967,0.21904591
0.166613472,0.267829585,0.346548883,0.219008059
0.166422738,0.267235527,0.347370174,0.218971562
0.166233027,0.266642741,0.348187827,0.218936405
0.166044336,0.266051254,0.349001832,0.218902578
0.165856663,0.265461088,0.349812178,0.21887007
0.165670008,0.264872267,0.350618856,0.218838868
0.16548437,0.264284815,0.351421856,0.21880896
0.165299748,0.263698754,0.352221169,0.218780329
0.165116142,0.263114106,0.35301679,0.218752962
0.164933552,0.262530892,0.353808715,0.218726841
0.164751976,0.261949133,0.354596942,0.21870195
0.164571413,0.261368845,0.355381471,0.218678271
0.164391861,0.260790048,0.356162304,0.218655787
0.164213313,0.260212759,0.356939447,0.218634481
0.164035765,0.259636996,0.357712906,0.218614334
0.163859207,0.259062776,0.358482689,0.218595328
0.163683633,0.258490118,0.359248802,0.218577448
0.163509032,0.257919039,0.360011254,0.218560675
0.163335397,0.257349556,0.360770052,0.218544995
0.163162718,0.256781685,0.361525205,0.218530392
0.162990987,0.25621544,0.362276721,0.218516852
0.162820193,0.255650838,0.363024608,0.218504361
0.162650329,0.255087893,0.363768874,0.218492904
0.162481383,0.254526623,0.364509528,0.218482466
0.162313347,0.253967043,0.365246576,0.218473035
0.162146211,0.253409169,0.365980025,0.218464594
0.161979966,0.252853017,0.366709885,0.218457131
0.161814604,0.252298602,0.367436162,0.218450632
0.161650116,0.251745937,0.368158865,0.218445083
0.161486492,0.251195036,0.368878002,0.21844047
0.161323725,0.250645916,0.36959358,0.218436779
0.161161806,0.250098591,0.370305605,0.218433997
0.161000728,0.249553077,0.371014085,0.21843211
0.160840484,0.249009388,0.371719025,0.218431103
0.160681067,0.248467539,0.372420432,0.218430961
0.160522471,0.247927543,0.373118314,0.218431672
0.160364689,0.247389411,0.373812677,0.218433222
0.160207715,0.246853157,0.37450353,0.218435598
0.160051542,0.246318792,0.37519088,0.218438786
0.159896164,0.24578633,0.375874733,0.218442773
0.159741576,0.245255783,0.376555096,0.218447545
0.159587772,0.244727165,0.377231975,0.218453088
0.159434748,0.244200486,0.377905377,0.218459389
0.159282501,0.243675758,0.378575308,0.218466434
0.159131025,0.24315299,0.379241775,0.21847421
0.158980318,0.242632192,0.379904785,0.218482704
0.158830373,0.242113374,0.380564346,0.218491906
0.158681186,0.241596547,0.381220464,0.218501803
0.158532752,0.24108172,0.381873146,0.218512382
0.158385067,0.240568904,0.382522396,0.218523633
0.158238126,0.240058111,0.383168221,0.218535542
0.158091927,0.239549348,0.383810627,0.218548098
0.157946467,0.239042623,0.38444962,0.218561289
0.157801744,0.238537946,0.385085207,0.218575103
0.157657754,0.238035323,0.385717393,0.21858953
0.157514496,0.237534763,0.386346184,0.218604557
0.157371965,0.237036275,0.386971587,0.218620174
0.157230158,0.236539867,0.387593605,0.218636369
0.157089075,0.236045548,0.388212247,0.218653131
0.156948713,0.235553323,0.388827517,0.218670447
0.156809069,0.235063199,0.389439425,0.218688306
0.156670143,0.234575181,0.39004798,0.218706697
0.15653193,0.234089271,0.390653191,0.218725608
0.15639443,0.233605476,0.391255068,0.218745027
0.156257637,0.233123797,0.391853623,0.218764943
0.15612155,0.23264424,0.392448868,0.218785342
0.155986164,0.23216681,0.393040815,0.218806212
0.155851476,0.231691508,0.393629476,0.21882754
0.155717482,0.231218339,0.394214865,0.218849315
0.155584177,0.230747303,0.394796995,0.218871525
0.155451558,0.230278402,0.395375881,0.218894158
0.155319622,0.229811637,0.395951536,0.218917205
0.155188365,0.229347008,0.396523974,0.218940654
0.155057785,0.228884516,0.397093206,0.218964494
0.154927879,0.228424161,0.397659245,0.218988715
0.154798646,0.227965943,0.398222103,0.219013307
0.154670084,0.227509861,0.398781795,0.219038259
0.154542191,0.227055912,0.399338335,0.219063562
0.154414965,0.226604091,0.399891737,0.219089207
0.154288407,0.226154395,0.400442015,0.219115183
0.154162515,0.225706817,0.400989186,0.219141482
0.154037293,0.225261352,0.401533261,0.219168094
0.153912739,0.224817997,0.402074256,0.219195008
0.153788856,0.224376747,0.402612183,0.219222214
0.153665645,0.223937597,0.403147055,0.219249703
0.153543106,0.223500542,0.403678887,0.219277465
0.15342124,0.223065576,0.404207691,0.219305493
0.153300047,0.222632692,0.404733482,0.219333778
0.153179529,0.222201884,0.405256275,0.219362312
0.153059687,0.221773145,0.405776083,0.219391085
0.152940522,0.22134647,0.40629292,0.219420088
0.152822037,0.220921853,0.406806798,0.219449312
0.152704235,0.220499286,0.407317731,0.219478748
0.152587117,0.220078764,0.40782573,0.219508389
0.152470685,0.219660276,0.408330809,0.219538229
0.152354942,0.219243816,0.40883298,0.219568262
0.152239889,0.218829377,0.409332254,0.21959848
0.152125526,0.218416952,0.409828643,0.219628879
0.152011853,0.218006535,0.41032216,0.219659452
0.151898871,0.217598121,0.410812815,0.219690193
0.15178658,0.217191705,0.41130062,0.219721095
0.151674981,0.21678728,0.411785586,0.219752153
0.151564072,0.216384839,0.412267726,0.219783363
0.151453856,0.215984374,0.412747051,0.21981472
0.15134433,0.215585879,0.413223572,0.219846219
0.151235495,0.215189346,0.413697301,0.219877857
0.151127349,0.21479477,0.414168251,0.21990963
0.15101989,0.214402143,0.414636434,0.219941534
0.150913116,0.214011461,0.415101861,0.219973563
0.150807023,0.213622719,0.415564547,0.220005712
0.150701608,0.21323591,0.416024506,0.220037976
0.150596868,0.212851029,0.416481753,0.220070349
0.150492799,0.21246807,0.416936303,0.220102828
0.150389396,0.212087027,0.417388171,0.220135405
0.150286656,0.211707894,0.417837373,0.220168076
0.150184574,0.211330668,0.418283923,0.220200835
0.150083144,0.210955342,0.418727839,0.220233674
0.149982362,0.210581913,0.419169138,0.220266587
0.149882222,0.210210375,0.419607837,0.220299566
0.149782718,0.209840719,0.420043955,0.220332608
0.149683846,0.209472935,0.420477509,0.22036571
0.149585599,0.209107015,0.420908514,0.220398872
0.149487975,0.208742948,0.421336985,0.220432092
0.14939097,0.208380725,0.421762936,0.220465369
0.149294582,0.208020335,0.422186381,0.220498702
0.149198808,0.207661768,0.422607334,0.22053209
0.149103646,0.207305014,0.423025809,0.220565531
0.149009095,0.206950063,0.423441818,0.220599024
0.148915152,0.206596902,0.423855378,0.220632567
0.148821815,0.206245523,0.424266502,0.22066616
0.148729082,0.205895914,0.424675205,0.220699799
0.14863695,0.205548066,0.4250815,0.220733483
0.148545416,0.205201972,0.425485402,0.22076721
0.148454479,0.204857623,0.425886923,0.220800975
0.148364136,0.204515009,0.426286077,0.220834778
0.148274385,0.204174121,0.426682878,0.220868616
0.148185224,0.203834949,0.42707734,0.220902487
0.148096649,0.203497484,0.427469476,0.22093639
0.148008659,0.203161717,0.4278593,0.220970324
0.14792125,0.20282764,0.428246823,0.221004287
0.147834418,0.202495246,0.428632059,0.221038277
0.147748162,0.202164527,0.429015019,0.221072292
0.147662479,0.201835477,0.429395714,0.22110633
0.147577366,0.201508088,0.429774157,0.221140389
0.147492822,0.201182352,0.430150359,0.221174467
0.147408845,0.200858261,0.430524332,0.221208562
0.147325432,0.20053581,0.430896088,0.22124267
0.147242582,0.200214991,0.431265638,0.22127679
0.147160292,0.199895798,0.431632991,0.221310918
0.147078563,0.199578227,0.431998156,0.221345054
0.146997394,0.19926227,0.432361142,0.221379194
0.146916786,0.19894792,0.432721957,0.221413338
0.146836738,0.19863517,0.433080607,0.221447485
0.146757251,0.198324013,0.433437103,0.221481633
0.146678326,0.19801444,0.433791451,0.221515783
0.146599964,0.197706445,0.434143659,0.221549933
0.146522164,0.197400022,0.434493732,0.221584083
0.146444927,0.197095164,0.434841678,0.221618232
0.146368255,0.196791865,0.435187501,0.22165238
0.146292149,0.196490118,0.435531208,0.221686525
0.14621661,0.196189916,0.435872805,0.221720668
0.14614164,0.195891253,0.436212299,0.221754808
0.14606724,0.195594121,0.436549696,0.221788944
0.145993409,0.195298513,0.436885001,0.221823077
0.145920149,0.195004426,0.43721822,0.221857205
0.145847461,0.194711853,0.437549357,0.221891328
0.145775345,0.19442079,0.437878418,0.221925446
0.145703803,0.194131232,0.438205409,0.221959557
0.145632836,0.193843171,0.438530333,0.22199366
0.145562445,0.193556603,0.438853196,0.222027756
0.145492632,0.19327152,0.439174003,0.222061845
0.145423398,0.192987916,0.43949276,0.222095926
0.145354744,0.192705786,0.439809471,0.222129999
0.145286673,0.192425125,0.440124138,0.222164063
0.145219188,0.192145926,0.440436766,0.222198119
0.145152293,0.191868184,0.440747358,0.222232165
0.145085992,0.19159189,0.441055916,0.222266202
0.14502029,0.191317039,0.441362443,0.222300228
0.14495519,0.191043622,0.441666945,0.222334243
0.144890699,0.190771631,0.441969423,0.222368247
0.144826821,0.190501062,0.442269881,0.222402236
0.14476356,0.190231906,0.442568322,0.222436211
0.144700923,0.18996416,0.442864749,0.222470168
0.144638912,0.189697816,0.443159164,0.222504107
0.144577534,0.189432869,0.443451571,0.222538026
0.144516793,0.189169312,0.443741972,0.222571923
0.144456694,0.188907136,0.444030372,0.222605797
0.144397241,0.188646336,0.444316776,0.222639647
0.144338437,0.188386905,0.444601186,0.222673472
0.144280288,0.188128834,0.444883608,0.22270727
0.144222798,0.187872118,0.445164045,0.222741039
0.144165969,0.18761675,0.445442503,0.222774778
0.144109807,0.187362722,0.445718987,0.222808484
0.144054315,0.187110026,0.445993503,0.222842157
0.143999496,0.186858655,0.446266056,0.222875793
0.143945355,0.186608601,0.446536652,0.222909392
0.143891893,0.186359858,0.446805297,0.222942952
0.143839116,0.186112417,0.447071997,0.22297647
0.143787026,0.185866272,0.447336758,0.223009944
0.143735626,0.185621416,0.447599587,0.223043371
0.143684921,0.185377843,0.44786049,0.223076747
0.143634912,0.185135545,0.448119474,0.223110069
0.143585603,0.184894516,0.448376547,0.223143334
0.143536998,0.184654747,0.448631717,0.223176538
0.1434891,0.184416231,0.448884992,0.223209677
0.143441914,0.184178962,0.449136377,0.223242747
0.143395442,0.183942932,0.44938588,0.223275746
0.14334969,0.183708134,0.449633507,0.223308669
0.143304662,0.183474563,0.449879263,0.223341512
0.143260364,0.18324221,0.450123155,0.223374271
0.143216799,0.183011069,0.45036519,0.223406942
0.143173974,0.182781131,0.450605374,0.223439522
0.143131893,0.182552387,0.450843714,0.223472006
0.143090564,0.182324831,0.451080217,0.223504389
0.143049993,0.182098453,0.451314889,0.223536666
0.143010188,0.181873245,0.451547734,0.223568833
0.142971156,0.1816492,0.451778759,0.223600885
0.142932904,0.181426309,0.452007968,0.223632819
0.142895441,0.181204562,0.452235365,0.223664632
0.142858772,0.180983951,0.452460957,0.22369632
0.142822905,0.180764467,0.452684748,0.223727881
0.142787847,0.1805461,0.452906743,0.22375931
0.142753604,0.180328843,0.453126947,0.223790606
0.142720185,0.180112688,0.453345362,0.223821765
0.142687597,0.179897628,0.453561992,0.223852784
0.142655848,0.179683654,0.453776838,0.22388366
0.142624948,0.17947076,0.453989902,0.22391439
0.142594904,0.179258936,0.454201188,0.223944972
0.142565724,0.179048176,0.454410697,0.223975402
0.142537417,0.178838472,0.454618433,0.224005678
0.142509989,0.178629819,0.454824396,0.224035796
0.142483448,0.17842221,0.455028589,0.224065753
0.142457799,0.178215643,0.455231013,0.224095544
0.142433049,0.178010113,0.45543167,0.224125167
0.142409204,0.177805616,0.455630562,0.224154617
0.142386271,0.177602148,0.45582769,0.224183891
0.142364257,0.177399703,0.456023057,0.224212984
0.142343166,0.177198277,0.456216665,0.224241892
0.142323007,0.176997866,0.456408514,0.224270613
0.142303783,0.176798467,0.456598607,0.224299142
0.142285502,0.176600078,0.456786945,0.224327476
0.142268167,0.176402696,0.456973528,0.22435561
0.142251782,0.176206319,0.457158357,0.224383542
0.142236354,0.176010945,0.457341434,0.224411268
0.142221885,0.17581657,0.45752276,0.224438785
0.142208379,0.175623192,0.457702337,0.224466091
0.142195843,0.175430809,0.457880167,0.224493181
0.142184278,0.175239419,0.45805625,0.224520052
0.142173691,0.175049022,0.458230588,0.2245467
0.142164084,0.174859616,0.45840318,0.224573121
0.14215546,0.174671202,0.458574027,0.224599311
0.142147824,0.174483778,0.45874313,0.224625268
0.142141177,0.174297345,0.458910492,0.224650987
0.142135524,0.1741119,0.459076112,0.224676465
0.142130867,0.173927442,0.459239992,0.224701698
0.14212721,0.173743972,0.459402132,0.224726685
0.142124558,0.173561488,0.459562533,0.224751422
0.142122913,0.17337999,0.459721192,0.224775905
0.14212228,0.173199478,0.459878111,0.22480013
0.142122665,0.173019953,0.460033287,0.224824096
0.14212407,0.172841413,0.460186721,0.224847797
0.1421265,0.172663856,0.460338412,0.224871231
0.14212996,0.172487283,0.460488361,0.224894396
0.142134455,0.172311692,0.460636567,0.224917286
0.142139989,0.172137084,0.460783028,0.224939899
0.142146566,0.17196346,0.460927742,0.224962231
0.142154191,0.171790821,0.461070708,0.22498428
0.142162868,0.171619167,0.461211922,0.225006043
0.142172599,0.171448499,0.461351386,0.225027516
0.142183389,0.171278817,0.461489096,0.225048698
0.14219524,0.171110122,0.461625054,0.225069585
0.142208155,0.170942413,0.461759257,0.225090176
0.142222136,0.170775693,0.461891704,0.225110467
0.142237186,0.170609963,0.462022394,0.225130457
0.142253307,0.170445225,0.462151326,0.225150143
0.142270504,0.170281479,0.462278496,0.225169521
0.142288779,0.170118727,0.462403904,0.225188591
0.142308134,0.169956969,0.462527547,0.225207349
0.142328575,0.169796205,0.462649426,0.225225794
0.142350103,0.169636436,0.462769537,0.225243924
0.142372723,0.169477661,0.46288788,0.225261736
0.142396439,0.169319883,0.46300445,0.225279229
0.142421255,0.169163101,0.463119244,0.2252964
0.142447176,0.169007317,0.463232258,0.225313249
0.142474208,0.168852531,0.463343486,0.225329775
