0.012328444,0.638156633,0.130187072,0.219327851
0.012324154,0.638224801,0.130113212,0.219337833
0.012320351,0.638292721,0.130038662,0.219348266
0.012317032,0.63836044,0.129963418,0.21935911
0.012314192,0.638428015,0.129887474,0.219370319
0.012311828,0.638495508,0.129810821,0.219381843
0.012309935,0.638562984,0.129733453,0.219393628
0.01230851,0.638630504,0.129655366,0.219405621
0.012307548,0.638698131,0.129576556,0.219417765
0.012307046,0.638765928,0.129497022,0.219430003
0.012307001,0.638833959,0.129416768,0.219442272
0.01230741,0.638902292,0.129335793,0.219454504
0.012308271,0.638971013,0.129254095,0.219466621
0.012309584,0.639040229,0.129171661,0.219478526
0.012311348,0.639110081,0.129088466,0.219490105
0.012313566,0.639180732,0.129004476,0.219501226
0.01231624,0.639252354,0.128919652,0.219511754
0.012319373,0.639325128,0.128833953,0.219521545
0.012322968,0.639399259,0.128747332,0.219530442
0.012327026,0.639474985,0.12865973,0.219538259
0.01233155,0.639552584,0.12857108,0.219544787
0.012336543,0.639632355,0.128481306,0.219549795
0.012342015,0.6397146,0.128390333,0.219553052
0.012347975,0.639799613,0.128298085,0.219554326
0.012354438,0.639887681,0.128204495,0.219553386
0.012361415,0.639979083,0.128109502,0.219550001
0.012368917,0.640074095,0.128013051,0.219543936
0.012376957,0.640172995,0.127915092,0.219534956
0.012385543,0.640276064,0.127815574,0.219522819
0.012394688,0.640383582,0.127714447,0.219507284
0.012404402,0.64049583,0.12761166,0.219488108
0.012414697,0.640613087,0.127507165,0.219465051
0.012425586,0.640735625,0.127400916,0.219437873
0.012437078,0.640863713,0.127292868,0.21940634
0.012449185,0.64099761,0.127182982,0.219370222
0.012461917,0.641137567,0.127071222,0.219329294
0.012475283,0.641283825,0.126957554,0.219283338
0.012489292,0.641436617,0.126841947,0.219232145
0.012503952,0.641596166,0.126724373,0.219175509
0.01251927,0.641762685,0.126604809,0.219113235
0.012535255,0.641936376,0.126483236,0.219045133
0.012551913,0.642117428,0.126359638,0.21897102
0.012569254,0.642306022,0.126234004,0.21889072
0.012587284,0.64250233,0.126106323,0.218804063
0.01260601,0.642706516,0.12597659,0.218710884
0.012625439,0.64291874,0.125844797,0.218611025
0.012645574,0.643139154,0.125710939,0.218504333
0.012666421,0.643367912,0.125575007,0.21839066
0.012687983,0.643605172,0.12543699,0.218269856
0.012710261,0.643851102,0.12529687,0.218141766
0.012733258,0.644105877,0.125154628,0.218006237
0.012756973,0.644369673,0.125010243,0.217863111
0.012781406,0.644642668,0.124863695,0.217712231
0.012806556,0.644925049,0.124714963,0.217553432
0.012832422,0.645217019,0.124564018,0.217386542
0.012859,0.645518781,0.124410831,0.217211388
0.012886289,0.645830535,0.124255372,0.217027804
0.012914289,0.646152467,0.124097613,0.216835631
0.012942998,0.646484751,0.12393753,0.216634722
0.012972415,0.646827552,0.123775097,0.216424935
0.01300254,0.647181027,0.123610295,0.216206138
0.013033368,0.647545325,0.123443102,0.215978205
0.013064896,0.647920588,0.123273499,0.215741017
0.013097118,0.648306953,0.123101467,0.215494461
0.01313003,0.648704552,0.122926987,0.215238432
0.013163623,0.649113509,0.122750041,0.214972827
0.013197892,0.649533937,0.122570617,0.214697554
0.013232828,0.649965936,0.122388707,0.21441253
0.013268424,0.650409591,0.122204305,0.214117681
0.013304673,0.650864971,0.122017412,0.213812944
0.013341566,0.651332135,0.121828032,0.213498267
0.013379096,0.651811125,0.121636173,0.213173605
0.013417254,0.65230197,0.121441849,0.212838927
0.01345603,0.652804681,0.121245079,0.212494209
0.013495417,0.65331926,0.121045885,0.212139438
0.013535404,0.653845694,0.120844293,0.211774609
0.013575983,0.654383962,0.120640329,0.211399725
0.013617146,0.654934033,0.120434025,0.211014796
0.013658883,0.655495866,0.120225411,0.21061984
0.013701185,0.656069415,0.120014517,0.210214882
0.013744044,0.656654633,0.119801373,0.20979995
0.013787449,0.657251467,0.119586006,0.209375078
0.013831392,0.65785986,0.119368441,0.208940306
0.013875864,0.658479749,0.119148705,0.208495681
0.013920858,0.659111058,0.118926825,0.208041259
0.013966364,0.659753701,0.118702833,0.207577102
0.014012376,0.660407575,0.118476766,0.207103283
0.014058889,0.661072564,0.11824867,0.206619877
0.014105897,0.66174854,0.118018594,0.206126969
0.014153398,0.662435364,0.117786593,0.205624646
0.014201386,0.66313289,0.117552721,0.205113003
0.014249857,0.663840966,0.117317037,0.20459214
0.014298804,0.664559432,0.1170796,0.204062165
0.01434822,0.665288115,0.116840475,0.20352319
0.014398099,0.666026837,0.116599727,0.202975337
0.014448431,0.666775419,0.116357426,0.202418724
0.014499207,0.667533683,0.116113639,0.20185347
0.014550417,0.668301451,0.115868438,0.201279694
0.014602049,0.66907854,0.115621892,0.200697518
0.014654093,0.669864762,0.115374076,0.200107068
0.014706535,0.670659924,0.115125062,0.199508479
0.014759364,0.67146383,0.114874918,0.198901888
0.014812565,0.672276284,0.114623713,0.198287437
0.014866126,0.673097085,0.114371516,0.197665273
0.014920031,0.673926026,0.114118394,0.197035549
0.014974265,0.674762893,0.113864418,0.196398424
0.015028814,0.675607465,0.113609656,0.195754065
0.015083662,0.676459513,0.11335418,0.195102646
0.015138794,0.677318803,0.113098061,0.194444341
0.015194198,0.678185095,0.112841372,0.193779335
0.015249858,0.67905814,0.112584188,0.193107814
0.015305761,0.679937689,0.112326581,0.192429969
0.015361891,0.680823487,0.112068624,0.191745997
0.015418233,0.681715278,0.111810389,0.191056099
0.01547477,0.682612807,0.111551942,0.190360481
0.015531487,0.683515812,0.111293347,0.189659354
0.015588366,0.684424029,0.111034669,0.188952935
0.015645393,0.685337188,0.110775971,0.188241448
0.015702552,0.686255018,0.110517314,0.187525116
0.015759831,0.687177242,0.110258761,0.186804167
0.015817216,0.688103578,0.110000371,0.186078834
0.0158747,0.689033738,0.109742205,0.185349358
0.015932271,0.689967423,0.109484321,0.184615984
0.015989923,0.690904331,0.109226782,0.183878963
0.016047648,0.691844157,0.108969648,0.183138548
0.016105439,0.692786594,0.108712976,0.182394992
0.01616329,0.693731339,0.108456823,0.181648548
0.016221195,0.694678094,0.108201243,0.180899468
0.016279148,0.695626563,0.107946287,0.180148002
0.016337143,0.696576451,0.107692005,0.179394401
0.016395172,0.697527466,0.107438442,0.17863892
0.016453228,0.698479315,0.107185642,0.177881815
0.016511303,0.699431707,0.106933646,0.177123344
0.016569388,0.700384356,0.106682498,0.176363758
0.016627477,0.701336974,0.10643224,0.175603309
0.016685561,0.702289276,0.106182916,0.174842247
0.016743632,0.703240978,0.105934571,0.174080818
0.016801682,0.7041918,0.105687247,0.173319271
0.0168597,0.705141466,0.105440987,0.172557847
0.016917679,0.706089701,0.105195832,0.171796787
0.016975609,0.707036236,0.104951824,0.171036331
0.017033482,0.707980802,0.104709003,0.170276713
0.017091289,0.708923134,0.104467412,0.169518165
0.017149024,0.709862968,0.10422709,0.168760918
0.017206676,0.710800049,0.103988073,0.168005201
0.017264238,0.71173413,0.103750394,0.167251239
0.017321699,0.712664975,0.10351408,0.166499246
0.01737905,0.713592358,0.103279158,0.165749434
0.017436282,0.714516058,0.103045653,0.165002007
0.017493385,0.715435861,0.102813587,0.164257167
0.01755035,0.716351564,0.102582981,0.163515105
0.017607171,0.717262975,0.102353852,0.162776002
0.017663845,0.718169907,0.102126216,0.162040032
0.017720374,0.719072174,0.101900091,0.161307361
0.017776764,0.719969589,0.101675496,0.160578152
0.017833023,0.720861964,0.101452449,0.159852564
0.017889159,0.721749109,0.101230971,0.159130761
0.017945186,0.72263083,0.10101108,0.158412905
0.018001121,0.723506926,0.100792797,0.157699157
0.018056989,0.724377196,0.100576141,0.156989674
0.018112817,0.725241436,0.100361132,0.156284615
0.018168634,0.726099447,0.100147785,0.155584135
0.018224469,0.726951034,0.099936113,0.154888384
0.018280351,0.727796012,0.099726129,0.154197508
0.018336305,0.7286342,0.099517845,0.153511649
0.018392357,0.729465422,0.099311274,0.152830947
0.018448531,0.730289505,0.099106427,0.152155537
0.018504848,0.731106282,0.098903316,0.151485553
0.018561331,0.731915589,0.098701956,0.150821124
0.018617999,0.732717262,0.098502361,0.150162378
0.018674871,0.733511139,0.09830455,0.14950944
0.018731969,0.734297059,0.098108541,0.148862431
0.01878931,0.73507486,0.097914355,0.148221474
0.018846914,0.735844381,0.097722017,0.147586688
0.018904796,0.736605459,0.097531548,0.146958197
0.018962975,0.737357926,0.097342968,0.146336131
0.019021467,0.738101616,0.097156293,0.145720624
0.019080292,0.738836361,0.096971535,0.145111811
0.019139474,0.739561999,0.096788707,0.144509819
0.019199043,0.740278371,0.096607817,0.143914769
0.019259031,0.740985317,0.096428873,0.143326779
0.019319474,0.74168268,0.096251883,0.142745962
0.019380404,0.742370305,0.096076856,0.142172435
0.019441854,0.743048037,0.095903796,0.141606313
0.019503857,0.743715725,0.095732709,0.14104771
0.019566447,0.744373214,0.095563602,0.140496737
0.019629664,0.74502035,0.095396486,0.139953501
0.019693549,0.74565697,0.095231375,0.139418106
0.019758148,0.746282912,0.095068283,0.138890657
0.019823511,0.74689801,0.094907222,0.138371257
0.019889691,0.747502101,0.094748206,0.137860002
0.019956749,0.748095025,0.094591247,0.137356979
0.020024745,0.748676623,0.094436363,0.136862269
0.02009374,0.749246739,0.094283576,0.136375945
0.020163794,0.749805224,0.094132912,0.13589807
0.020234969,0.75035193,0.093984401,0.1354287
0.020307332,0.750886717,0.093838068,0.134967883
0.020380953,0.751409452,0.093693938,0.134515657
0.020455902,0.751920006,0.093552033,0.134072058
0.020532251,0.752418256,0.093412377,0.133637115
0.02061007,0.752904086,0.093274989,0.133210855
0.020689426,0.753377386,0.093139888,0.132793299
0.020770386,0.753838056,0.093007093,0.132384465
0.020853016,0.754285999,0.092876621,0.131984364
0.02093738,0.754721123,0.092748491,0.131593006
0.021023545,0.755143332,0.092622726,0.131210397
0.021111576,0.755552532,0.09249935,0.130836542
0.021201537,0.755948621,0.092378389,0.130471453
0.021293488,0.756331501,0.092259871,0.130115139
0.021387491,0.756701075,0.092143819,0.129767614
0.021483605,0.757057249,0.092030254,0.129428893
0.021581889,0.757399926,0.091919194,0.129098992
0.021682404,0.75772901,0.091810655,0.128777931
0.021785206,0.758044408,0.091704653,0.128465734
0.021890345,0.758346025,0.091601202,0.128162428
0.021997872,0.75863377,0.091500312,0.127868046
0.022107833,0.758907555,0.091401995,0.127582617
0.022220276,0.759167292,0.091306254,0.127306178
0.02233525,0.759412888,0.091213093,0.127038769
0.022452801,0.759644248,0.091122509,0.126780443
0.022572973,0.75986128,0.091034495,0.126531252
0.02269581,0.760063896,0.090949045,0.126291249
0.022821358,0.760252009,0.090866147,0.126060485
0.022949672,0.760425534,0.09078579,0.125839004
0.023080807,0.760584388,0.09070796,0.125626845
0.023214822,0.760728484,0.090632644,0.125424049
0.023351777,0.760857735,0.090559827,0.125230661
0.023491732,0.760972047,0.090489492,0.125046729
0.023634755,0.761071325,0.090421623,0.124872297
0.023780917,0.761155477,0.090356201,0.124707405
0.02393029,0.76122441,0.090293208,0.124552092
0.024082948,0.761278033,0.090232624,0.124406395
0.024238958,0.761316264,0.090174429,0.124270349
0.024398389,0.76133902,0.0901186,0.124143991
0.024561307,0.761346218,0.090065117,0.124027358
0.024727774,0.761337773,0.090013963,0.12392049
0.024897847,0.761313594,0.089965117,0.123823443
0.025071578,0.761273587,0.089918559,0.123736277
0.025249012,0.761217664,0.089874268,0.123659057
0.02543019,0.76114574,0.089832224,0.123591846
0.025615152,0.761057727,0.089792412,0.123534708
0.025803929,0.760953535,0.089754819,0.123487717
0.025996552,0.760833059,0.089719435,0.123450954
0.026193047,0.760696189,0.089686247,0.123424517
0.026393437,0.76054281,0.089655244,0.12340851
0.02659774,0.760372802,0.089626414,0.123403045
0.026805968,0.760186034,0.089599751,0.123408247
0.027018131,0.759982366,0.08957526,0.123424243
0.027234229,0.759761653,0.089552953,0.123451164
0.02745426,0.759523754,0.089532856,0.12348913
0.027678217,0.759268534,0.089514995,0.123538254
0.027906088,0.758995873,0.0894994,0.12359864
0.028137863,0.758705656,0.089486099,0.123670382
0.028373535,0.758397779,0.089475121,0.123753565
0.028613099,0.758072135,0.089466497,0.123848269
0.028856554,0.757728617,0.089460263,0.123954566
0.029103896,0.757367124,0.089456458,0.124072523
0.029355125,0.756987556,0.089455127,0.124202192
0.029610244,0.756589822,0.089456317,0.124343617
0.029869263,0.756173836,0.089460073,0.124496828
0.030132193,0.755739526,0.089466442,0.124661839
0.030399045,0.755286831,0.089475468,0.124838656
0.030669825,0.754815702,0.089487201,0.125027272
0.030944538,0.754326105,0.089501688,0.125227669
0.031223188,0.753818015,0.089518977,0.12543982
0.031505781,0.753291414,0.089539115,0.12566369
0.031792323,0.75274629,0.089562143,0.125899244
0.032082818,0.752182644,0.089588096,0.126146442
0.032377268,0.751600485,0.089617006,0.126405241
0.032675672,0.750999832,0.089648901,0.126675594
0.032978031,0.750380709,0.089683804,0.126957455
0.033284345,0.74974314,0.089721732,0.127250783
0.03359461,0.749087153,0.089762696,0.12755554
0.033908821,0.748412787,0.089806705,0.127871687
0.034226965,0.747720089,0.089853765,0.128199181
0.034549026,0.74700911,0.089903881,0.128537984
0.034874984,0.746279904,0.089957061,0.12888805
0.035204818,0.745532532,0.090013317,0.129249333
0.035538501,0.744767059,0.090072662,0.129621778
0.035876005,0.743983562,0.090135106,0.130005327
0.036217296,0.743182126,0.09020066,0.130399917
0.036562337,0.742362851,0.09026933,0.130805481
0.036911087,0.741525846,0.09034112,0.131221947
0.037263503,0.740671227,0.090416031,0.131649239
0.037619539,0.739799122,0.090494065,0.132087274
0.037979149,0.738909662,0.090575221,0.132535969
0.038342282,0.738002987,0.0906595,0.132995232
0.038708886,0.737079239,0.090746905,0.13346497
0.039078907,0.736138562,0.090837445,0.133945085
0.03945229,0.735181102,0.090931132,0.134435476
0.039828979,0.734207012,0.091027972,0.134936037
0.040208913,0.733216451,0.091127974,0.135446662
0.040592032,0.732209587,0.091231144,0.135967238
0.040978272,0.731186597,0.091337485,0.136497647
0.041367566,0.730147663,0.091447001,0.13703777
0.041759846,0.729092976,0.091559693,0.137587485
0.042155042,0.728022729,0.091675558,0.138146671
0.042553082,0.726937122,0.091794588,0.138715207
0.042953894,0.725836363,0.091916775,0.139292967
0.043357405,0.724720663,0.092042108,0.139879824
0.043763543,0.723590238,0.092170574,0.140475645
0.044172237,0.722445306,0.092302165,0.141080291
0.04458342,0.721286088,0.092436873,0.141693619
0.044997023,0.720112806,0.092574688,0.142315483
0.045412979,0.718925689,0.092715602,0.14294573
0.045831222,0.717724963,0.092859604,0.143584211
0.04625169,0.716510857,0.093006682,0.144230771
0.046674323,0.715283596,0.093156829,0.144885252
0.04709906,0.714043409,0.093310035,0.145547496
0.047525845,0.712790526,0.093466288,0.146217341
0.047954618,0.711525181,0.093625576,0.146894625
0.048385322,0.710247611,0.093787879,0.147579188
0.0488179,0.708958053,0.093953181,0.148270867
0.049252294,0.707656746,0.094121457,0.148969502
0.04968845,0.706343934,0.094292686,0.149674931
0.050126314,0.705019856,0.09446684,0.15038699
0.050565834,0.703684757,0.094643894,0.151105515
0.051006959,0.70233888,0.094823816,0.151830344
0.051449638,0.700982475,0.095006576,0.152561311
0.05189382,0.699615791,0.095192142,0.153298248
0.052339452,0.698239083,0.095380479,0.154040986
0.052786483,0.696852609,0.095571555,0.154789353
0.053234859,0.695456626,0.095765339,0.155543176
0.053684528,0.694051393,0.095961796,0.156302283
0.054135435,0.692637165,0.096160895,0.157066505
0.054587527,0.691214193,0.096362603,0.157835677
0.05504075,0.68978272,0.096566886,0.158609645
0.055495051,0.688342978,0.096773709,0.159388261
0.055950382,0.686895194,0.096983037,0.160171387
0.056406692,0.685439579,0.097194831,0.160958898
0.056863933,0.683976334,0.097409057,0.161750675
0.057322056,0.682505652,0.097625685,0.162546606
0.057781013,0.681027721,0.097844687,0.163346579
0.058240754,0.679542728,0.098066037,0.164150481
0.058701233,0.67805086,0.09828971,0.164958197
0.059162406,0.676552301,0.098515686,0.165769607
0.059624231,0.675047231,0.098743948,0.16658459
0.060086666,0.673535826,0.098974487,0.167403021
0.06054967,0.672018261,0.099207296,0.168224773
0.061013202,0.67049471,0.099442368,0.16904972
0.061477219,0.668965352,0.099679694,0.169877735
0.061941676,0.667430368,0.099919264,0.170708692
0.06240653,0.665889939,0.100161067,0.171542463
0.062871736,0.664344251,0.100405091,0.172378922
0.063337247,0.662793487,0.100651324,0.173217942
0.063803018,0.661237827,0.100899752,0.174059402
0.064269007,0.659677447,0.101150363,0.174903183
0.064735173,0.658112517,0.101403146,0.175749164
0.065201487,0.656543199,0.101658086,0.176597228
0.065667923,0.654969652,0.101915165,0.17744726
0.066134459,0.653392024,0.10217436,0.178299157
0.066601076,0.651810457,0.10243565,0.179152817
0.06706776,0.650225087,0.102699008,0.180008145
0.067534501,0.648636045,0.102964408,0.180865046
0.068001296,0.647043454,0.10323182,0.18172343
0.068468147,0.645447434,0.103501212,0.182583208
0.068935057,0.643848101,0.103772553,0.18344429
0.069402031,0.642245569,0.104045812,0.184306588
0.069869074,0.640639953,0.104320957,0.185170016
0.070336188,0.639031369,0.10459796,0.186034483
0.070803372,0.637419935,0.104876788,0.186899904
0.071270623,0.635805775,0.105157412,0.18776619
0.071737933,0.63418901,0.105439801,0.188633255
0.072205296,0.632569767,0.105723925,0.189501012
0.0726727,0.630948169,0.106009754,0.190369377
0.073140135,0.62932434,0.106297262,0.191238263
0.07360759,0.627698404,0.106586419,0.192107587
0.074075053,0.626070484,0.106877196,0.192977268
0.074542509,0.624440705,0.107169561,0.193847225
0.075009944,0.622809196,0.107463483,0.194717377
0.075477342,0.621176089,0.107758929,0.19558764
0.075944687,0.619541517,0.108055867,0.196457929
0.076411961,0.617905617,0.108354264,0.197328159
0.076879146,0.616268523,0.10865409,0.198198242
0.077346223,0.614630373,0.108955313,0.199068091
0.077813173,0.612991306,0.109257903,0.199937618
0.078279973,0.611351459,0.10956183,0.200806738
0.078746602,0.60971097,0.109867065,0.201675362
0.079213035,0.608069975,0.110173581,0.202543408
0.079679247,0.606428612,0.110481349,0.203410792
0.080145212,0.604787015,0.110790341,0.204277432
0.080610903,0.603145324,0.111100528,0.205143245
0.081076291,0.601503677,0.111411881,0.206008151
0.081541351,0.59986221,0.111724373,0.206872066
0.082006053,0.598221064,0.112037976,0.207734907
0.082470369,0.596580377,0.112352663,0.208596591
0.08293427,0.594940287,0.112668405,0.209457038
0.083397728,0.593300933,0.112985173,0.210316166
0.083860711,0.591662452,0.113302939,0.211173898
0.08432319,0.590024982,0.113621673,0.212030155
0.084785132,0.588388655,0.113941344,0.212884868
0.085246505,0.586753604,0.114261919,0.213737971
0.085707276,0.585119956,0.114583365,0.214589404
0.086167409,0.583487834,0.114905648,0.21543911
0.08662687,0.581857357,0.115228733,0.21628704
0.087085623,0.580228641,0.115552585,0.217133151
0.087543636,0.578601796,0.115877167,0.217977401
0.088000879,0.576976932,0.11620244,0.218819748
0.088457327,0.575354156,0.116528366,0.219660151
0.088912955,0.573733573,0.116854907,0.220498565
0.089367743,0.572115286,0.117182025,0.221334946
0.089821672,0.570499393,0.117509683,0.222169252
0.090274726,0.568885993,0.117837844,0.223001437
0.090726897,0.567275173,0.118166474,0.223831456
0.091178178,0.565667021,0.118495541,0.22465926
0.091628566,0.564061617,0.118825014,0.225484803
0.092078057,0.562459041,0.119154866,0.226308036
0.092526648,0.560859374,0.119485066,0.227128912
0.092974334,0.559262696,0.119815586,0.227947384
0.093421109,0.557669088,0.120146396,0.228763407
0.093866969,0.556078629,0.120477464,0.229576937
0.094311908,0.554491398,0.120808765,0.23038793
0.094755919,0.552907472,0.121140271,0.231196339
0.095198995,0.551326926,0.12147196,0.232002119
0.09564113,0.549749836,0.121803812,0.232805222
0.096082315,0.548176278,0.122135807,0.233605599
0.096522544,0.546606328,0.122467927,0.234403201
0.096961808,0.54504006,0.122800155,0.235197978
0.0974001,0.543477545,0.123132475,0.235989881
0.097837411,0.541918853,0.123464875,0.236778862
0.098273732,0.540364053,0.12379734,0.237564874
0.098709055,0.538813216,0.124129859,0.238347871
0.099143368,0.537266408,0.124462419,0.239127805
0.09957666,0.535723696,0.124795013,0.239904631
0.10000892,0.534185144,0.125127634,0.240678301
0.100440137,0.532650816,0.125460279,0.241448769
0.100870298,0.531120773,0.125792943,0.242215987
0.101299391,0.529595078,0.126125622,0.242979909
0.101727406,0.528073793,0.126458313,0.243740488
0.102154331,0.52655698,0.126791011,0.244497678
0.102580155,0.525044701,0.127123712,0.245251432
0.103004865,0.523537016,0.12745641,0.246001709
0.103428449,0.522033983,0.127789098,0.24674847
0.103850898,0.520535659,0.128121768,0.247491675
0.104272203,0.519042098,0.128454411,0.248231288
0.104692361,0.517553351,0.128787021,0.248967268
0.105111368,0.516069462,0.129119591,0.249699578
0.105529224,0.514590474,0.129452118,0.250428185
0.105945933,0.513116418,0.129784596,0.251153053
0.106361502,0.511647328,0.130117017,0.251874154
0.106775942,0.510183227,0.130449372,0.252591458
0.107189263,0.508724143,0.130781652,0.253304942
0.107601475,0.507270098,0.131113846,0.25401458
0.108012588,0.505821115,0.131445944,0.254720353
0.10842261,0.504377218,0.131777935,0.255422237
0.108831551,0.50293843,0.13210981,0.256120209
0.10923942,0.501504774,0.132441559,0.256814247
0.109646226,0.500076274,0.132773172,0.257504328
0.110051976,0.498652955,0.133104637,0.258190433
0.110456676,0.49723484,0.133435942,0.258872542
0.110860332,0.495821954,0.133767077,0.259550637
0.111262948,0.494414323,0.134098026,0.260224702
0.111664528,0.493011973,0.134428779,0.26089472
0.112065075,0.49161493,0.134759321,0.261560674
0.112464592,0.49022322,0.135089639,0.262222549
0.112863079,0.488836871,0.135419717,0.262880333
0.113260539,0.487455907,0.135749543,0.263534012
0.113656971,0.486080353,0.1360791,0.264183576
0.114052374,0.484710235,0.136408375,0.264829015
0.114446749,0.483345576,0.136737353,0.265470321
0.114840093,0.481986402,0.13706602,0.266107486
0.115232403,0.480632733,0.13739436,0.266740504
0.115623678,0.479284593,0.13772236,0.267369369
0.116013913,0.477942,0.138050006,0.26799408
0.116403105,0.476604972,0.138377287,0.268614637
0.116791247,0.475273522,0.13870419,0.269231041
0.117178334,0.473947664,0.139030705,0.269843297
0.117564362,0.472627412,0.139356821,0.270451405
0.117949322,0.471312781,0.139682526,0.27105537
0.118333208,0.470003785,0.14000781,0.271655197
0.118716011,0.468700433,0.140332663,0.272250892
0.119097722,0.467402737,0.140657076,0.272842465
0.119478331,0.466110707,0.140981038,0.273429924
0.119857829,0.464824351,0.14130454,0.27401328
0.120236205,0.46354368,0.141627572,0.274592543
0.12061345,0.462268702,0.141950125,0.275167723
0.120989554,0.460999426,0.142272187,0.275738832
0.121364509,0.459735858,0.142593747,0.276305885
0.121738308,0.458477999,0.142914794,0.276868899
0.122110941,0.457225849,0.143235315,0.277427895
0.122482402,0.455979405,0.1435553,0.277982893
0.122852686,0.454738662,0.143874736,0.278533916
0.123221786,0.453503618,0.144193613,0.279080983
0.1235897,0.452274266,0.144511917,0.279624117
0.123956427,0.4510506,0.144829636,0.280163338
0.124321966,0.449832614,0.145146755,0.280698665
0.124686319,0.448620301,0.14546326,0.281230121
0.125049484,0.447413655,0.145779137,0.281757724
0.125411464,0.446212669,0.146094373,0.282281494
0.12577226,0.445017338,0.146408951,0.28280145
0.126131873,0.443827653,0.14672286,0.283317613
0.126490306,0.442643607,0.147036087,0.28383
0.126847558,0.44146519,0.14734862,0.284338632
0.127203632,0.440292392,0.14766045,0.284843526
0.127558527,0.439125202,0.147971569,0.285344702
0.127912244,0.437963611,0.148281969,0.285842176
0.128264784,0.436807605,0.148591645,0.286335965
0.128616145,0.435657176,0.148900593,0.286826087
0.128966327,0.434512309,0.149208808,0.287312555
0.12931533,0.433372994,0.149516291,0.287795385
0.12966315,0.432239218,0.149823041,0.288274591
0.130009788,0.431110968,0.150129055,0.288750189
0.130355242,0.429988233,0.150434333,0.289222192
0.130699511,0.428870998,0.150738874,0.289690617
0.131042593,0.427759252,0.151042677,0.290155478
0.131384488,0.42665298,0.151345742,0.29061679
0.131725193,0.425552167,0.151648069,0.291074571
0.132064706,0.424456797,0.151949659,0.291528838
0.132403026,0.423366852,0.152250512,0.291979609
0.132740153,0.422282315,0.15255063,0.292426902
0.133076088,0.421203163,0.152850013,0.292870736
0.133410834,0.420129376,0.153148661,0.29331113
0.133744395,0.419060927,0.153446573,0.293748104
0.134076777,0.417997793,0.153743748,0.294181682
0.134407986,0.416939947,0.154040184,0.294611882
0.134738031,0.415887365,0.154335877,0.295038727
0.135066922,0.414840018,0.154630826,0.295462234
0.135394673,0.413797882,0.154925027,0.295882418
0.135721297,0.412760928,0.155218477,0.296299297
0.136046808,0.411729132,0.155511174,0.296712885
0.136371221,0.410702468,0.155803115,0.297123196
0.136694548,0.40968091,0.156094298,0.297530245
0.137016801,0.408664434,0.15638472,0.297934045
0.137337993,0.407653017,0.156674379,0.298334611
0.137658136,0.406646634,0.156963273,0.298731957
0.137977242,0.405645261,0.1572514,0.299126097
0.138295321,0.404648873,0.157538761,0.299517046
0.138612381,0.403657445,0.157825354,0.29990482
0.138928431,0.40267095,0.158111184,0.300289435
0.139243478,0.401689363,0.158396255,0.300670905
0.139557529,0.400712655,0.158680571,0.301049245
0.139870593,0.3997408,0.158964139,0.301424468
0.140182679,0.398773769,0.159246966,0.301796585
0.140493797,0.397811536,0.159529061,0.302165606
0.140803955,0.396854071,0.159810434,0.30253154
0.141113165,0.395901343,0.160091096,0.302894396
0.141421436,0.394953323,0.160371058,0.303254183
0.141728782,0.394009977,0.160650331,0.30361091
0.142035217,0.393071274,0.160928923,0.303964585
0.142340755,0.392137184,0.161206842,0.304315219
0.142645407,0.391207676,0.161484097,0.304662821
0.142949186,0.390282719,0.161760694,0.305007401
0.143252102,0.389362284,0.162036646,0.305348968
0.143554168,0.38844634,0.162311961,0.305687531
0.143855394,0.387534858,0.16258665,0.306023098
0.144155789,0.38662781,0.162860724,0.306355678
0.144455364,0.385725166,0.163134192,0.306685277
0.14475413,0.384826901,0.163407063,0.307011906
0.145052095,0.383932989,0.163679345,0.307335572
0.145349268,0.383043405,0.163951045,0.307656282
0.145645658,0.382158127,0.164222169,0.307974046
0.145941272,0.381277135,0.164492723,0.30828887
0.146236115,0.380400411,0.164762712,0.308600762
0.146530193,0.379527937,0.165032141,0.308909729
0.14682351,0.378659698,0.165301013,0.309215779
0.14711607,0.377795679,0.165569333,0.309518918
0.147407874,0.376935862,0.165837105,0.309819159
0.147698924,0.376080229,0.166104333,0.310116513
0.147989221,0.375228761,0.166371021,0.310410997
0.148278764,0.374381436,0.166637172,0.310702628
0.14856755,0.373538233,0.166902792,0.310991425
0.148855577,0.372699129,0.167167888,0.311277406
0.149142842,0.371864103,0.167432468,0.311560586
0.149429343,0.371033133,0.167696541,0.311840984
0.149715074,0.370206197,0.167960114,0.312118615
0.150000032,0.369383274,0.168223197,0.312393496
0.150284211,0.368564344,0.168485797,0.312665648
0.150567606,0.367749383,0.168747922,0.31293509
0.150850208,0.36693837,0.169009578,0.313201843
0.151132013,0.366131286,0.169270772,0.313465929
0.151413011,0.36532811,0.169531512,0.313727367
0.151693195,0.364528824,0.169791804,0.313986176
0.151972557,0.363733409,0.170051657,0.314242377
0.152251088,0.362941845,0.17031108,0.314495987
0.152528779,0.362154112,0.170570082,0.314747027
0.15280562,0.361370191,0.170828675,0.314995515
0.153081602,0.360590058,0.171086869,0.315241471
0.153356716,0.359813694,0.171344676,0.315484914
0.153630952,0.359041076,0.17160211,0.315725862
0.153904301,0.358272184,0.17185918,0.315964335
0.154176755,0.357506996,0.172115899,0.31620035
0.154448304,0.356745492,0.172372278,0.316433926
0.154718942,0.355987651,0.172628329,0.316665079
0.15498866,0.355233451,0.172884062,0.316893826
0.155257453,0.354482872,0.17313949,0.317120184
0.155525313,0.353735893,0.173394624,0.317344169
0.155792232,0.352992495,0.173649476,0.317565797
0.156058203,0.352252657,0.173904056,0.317785084
0.156323222,0.35151636,0.174158374,0.318002044
0.156587283,0.350783585,0.174412441,0.318216691
0.156850381,0.350054313,0.174666266,0.318429039
0.157112513,0.349328527,0.174919859,0.318639101
0.157373675,0.34860621,0.175173228,0.318846887
0.157633866,0.347887345,0.175426381,0.319052408
0.157893083,0.347171917,0.175679327,0.319255674
0.158151325,0.346459909,0.175932071,0.319456695
0.158408591,0.345751306,0.176184622,0.319655481
0.15866488,0.345046093,0.176436985,0.319852043
0.158920188,0.344344252,0.176689167,0.320046393
0.159174513,0.343645767,0.176941176,0.320238544
0.159427851,0.342950621,0.177193019,0.320428509
0.159680199,0.342258796,0.177444703,0.320616302
0.159931555,0.341570274,0.177696235,0.320801936
0.160181915,0.340885036,0.177947622,0.320985427
0.160431278,0.340203064,0.178198872,0.321166786
0.160679644,0.339524337,0.178449991,0.321346027
0.160927014,0.338848838,0.178700984,0.321523164
0.161173388,0.338176547,0.178951858,0.321698208
0.161418768,0.337507443,0.179202618,0.32187117
0.161663157,0.336841507,0.179453272,0.322042063
0.161906557,0.336178719,0.179703827,0.322210897
0.162148975,0.335519057,0.179954286,0.322377682
0.162390418,0.3348625,0.180204656,0.322542426
0.162630892,0.334209029,0.180454939,0.322705139
0.162870407,0.333558623,0.180705141,0.322865828
0.163108969,0.332911262,0.180955266,0.323024502
0.163346586,0.332266927,0.181205317,0.323181171
0.163583262,0.331625598,0.181455299,0.323335841
0.163819003,0.330987257,0.181705215,0.323488525
0.164053815,0.330351883,0.181955069,0.323639233
0.164287702,0.329719456,0.182204865,0.323787977
0.164520669,0.329089956,0.182454606,0.323934769
0.16475272,0.328463363,0.182704295,0.324079622
0.164983859,0.327839657,0.182953937,0.324222546
0.165214089,0.32721882,0.183203536,0.324363555
0.165443415,0.32660083,0.183453098,0.324502657
0.165671838,0.325985668,0.183702629,0.324639865
0.165899363,0.325373315,0.183952134,0.324775188
0.166125993,0.32476375,0.184201622,0.324908636
0.16635173,0.324156953,0.184451097,0.32504022
0.16657658,0.323552905,0.184700565,0.32516995
0.166800546,0.322951585,0.184950031,0.325297838
0.16702363,0.322352971,0.185199502,0.325423896
0.167245837,0.321757043,0.185448983,0.325548136
0.16746717,0.321163778,0.18569848,0.325670572
0.167687632,0.320573154,0.185947996,0.325791219
0.167907229,0.319985148,0.186197534,0.325910089
0.168125965,0.319399741,0.186447097,0.326027197
0.168343843,0.318816912,0.186696687,0.326142557
0.168560867,0.318236644,0.186946306,0.326256182
0.16877704,0.317658919,0.187195956,0.326368086
0.168992364,0.317083718,0.187445637,0.326478281
0.169206842,0.316511025,0.187695353,0.32658678
0.169420476,0.315940824,0.187945102,0.326693598
0.169633269,0.315373098,0.188194887,0.326798745
0.169845224,0.314807834,0.188444708,0.326902234
0.170056341,0.314245016,0.188694567,0.327004077
0.170266622,0.313684631,0.188944465,0.327104283
0.170476068,0.313126665,0.189194404,0.327202863
0.17068468,0.312571107,0.189444386,0.327299827
0.170892458,0.312017944,0.189694413,0.327395185
0.171099403,0.311467163,0.189944489,0.327488945
0.171305512,0.310918753,0.190194616,0.327581119
0.171510787,0.3103727,0.190444797,0.327671716
0.171715224,0.309828994,0.190695036,0.327760746
0.171918825,0.30928762,0.190945336,0.327848218
0.172121589,0.308748569,0.1911957,0.327934142
0.172323515,0.308211827,0.191446129,0.328018529
0.172524603,0.307677385,0.191696626,0.328101387
0.172724852,0.30714523,0.191947192,0.328182726
0.172924264,0.306615351,0.192197828,0.328262556
0.17312284,0.306087735,0.192448537,0.328340888
0.17332058,0.305562369,0.19269932,0.32841773
0.173517487,0.305039239,0.19295018,0.328493095
0.17371356,0.304518331,0.193201118,0.32856699
0.173908802,0.303999634,0.193452136,0.328639427
0.174103214,0.303483136,0.193703235,0.328710415
0.174296795,0.302968824,0.193954417,0.328779963
0.174489549,0.302456687,0.194205685,0.328848079
0.174681474,0.301946715,0.19445704,0.328914772
0.174872571,0.301438897,0.194708482,0.32898005
0.17506284,0.300933225,0.194960011,0.329043924
0.175252282,0.300429688,0.195211625,0.329106405
0.175440894,0.299928277,0.195463322,0.329167507
0.175628678,0.29942898,0.195715098,0.329227244
0.175815632,0.298931788,0.195966948,0.329285632
0.176001758,0.298436691,0.196218866,0.329342684
0.176187056,0.29794368,0.196470847,0.329398417
0.176371528,0.297452744,0.196722885,0.329452843
0.176555175,0.296963876,0.196974972,0.329505978
0.176738,0.296477065,0.197227102,0.329557834
0.176920006,0.295992301,0.197479267,0.329608425
0.177101197,0.295509577,0.197731461,0.329657766
0.177281575,0.295028881,0.197983673,0.32970587
0.177461144,0.294550207,0.198235898,0.329752752
0.177639905,0.294073543,0.198488126,0.329798426
0.177817863,0.293598882,0.198740348,0.329842908
0.17799502,0.293126213,0.198992558,0.32988621
0.178171379,0.292655526,0.199244746,0.329928348
0.178346945,0.292186813,0.199496906,0.329969336
0.178521719,0.291720062,0.199749031,0.330009188
0.178695705,0.291255266,0.200001113,0.330047916
0.178868906,0.290792413,0.200253145,0.330085537
0.179041325,0.290331494,0.200505119,0.330122062
0.179212965,0.289872499,0.20075703,0.330157506
0.179383831,0.289415417,0.201008871,0.330191881
0.179553925,0.28896024,0.201260636,0.330225199
0.17972325,0.288506957,0.201512321,0.330257472
0.179891809,0.288055559,0.20176392,0.330288712
0.180059605,0.287606037,0.202015428,0.33031893
0.180226641,0.28715838,0.202266841,0.330348138
0.180392919,0.286712579,0.202518155,0.330376347
0.180558442,0.286268625,0.202769367,0.330403566
0.180723214,0.28582651,0.203020471,0.330429805
0.180887236,0.285386226,0.203271466,0.330455072
0.181050513,0.284947766,0.203522346,0.330479374
0.181213047,0.284511123,0.203773109,0.330502721
0.181374841,0.284076293,0.204023748,0.330525117
0.1815359,0.28364327,0.204274259,0.330546571
0.181696226,0.283212049,0.204524635,0.33056709
0.181855824,0.282782625,0.204774871,0.33058668
0.182014697,0.282354992,0.205024961,0.33060535
0.182172848,0.281929145,0.205274898,0.330623109
0.182330279,0.281505077,0.205524678,0.330639966
0.182486992,0.281082783,0.205774296,0.330655929
0.18264299,0.280662257,0.206023746,0.330671006
0.182798275,0.280243493,0.206273025,0.330685207
0.182952848,0.279826485,0.206522127,0.33069854
0.183106712,0.279411225,0.206771051,0.330711012
0.183259868,0.278997708,0.20701979,0.330722634
0.183412317,0.278585927,0.207268343,0.330733414
0.183564061,0.278175876,0.207516705,0.330743359
0.1837151,0.277767548,0.207764874,0.330752478
0.183865435,0.277360939,0.208012847,0.330760779
0.184015065,0.276956041,0.208260621,0.330768272
0.184163991,0.27655285,0.208508193,0.330774966
0.184312212,0.27615136,0.208755559,0.330780869
0.184459728,0.275751566,0.209002714,0.330785992
0.184606537,0.275353463,0.209249655,0.330790345
0.184752639,0.274957047,0.209496377,0.330793937
0.184898032,0.274562315,0.209742875,0.330796777
0.185042715,0.274169265,0.209989145,0.330798874
0.185186686,0.273777896,0.210235183,0.330800236
0.185329941,0.273388204,0.210480982,0.330800873
0.18547248,0.27300019,0.210726537,0.330800794
0.1856143,0.27261385,0.210971843,0.330800007
0.1857554,0.272229184,0.211216895,0.330798521
0.185895776,0.271846189,0.211461689,0.330796346
0.186035428,0.271464865,0.211706219,0.330793488
0.186174354,0.271085209,0.211950481,0.330789956
0.186312551,0.270707221,0.212194471,0.330785757
0.186450019,0.2703309,0.212438183,0.330780899
0.186586756,0.269956243,0.212681613,0.330775388
0.186722763,0.269583251,0.212924756,0.330769231
0.186858039,0.26921192,0.213167604,0.330762436
0.186992586,0.268842251,0.213410151,0.330755012
0.187126402,0.268474242,0.21365239,0.330746965
0.187259489,0.268107893,0.213894313,0.330738306
0.187391848,0.267743202,0.21413591,0.33072904
0.18752348,0.267380169,0.214377176,0.330719176
0.187654388,0.267018793,0.214618102,0.330708717
0.187784574,0.266659076,0.21485868,0.330697671
0.187914039,0.266301016,0.215098903,0.330686041
0.188042786,0.265944615,0.215338763,0.330673836
0.188170815,0.265589873,0.215578251,0.330661062
0.188298128,0.265236788,0.21581736,0.330647724
0.188424727,0.264885361,0.216056082,0.33063383
0.188550614,0.264535592,0.216294408,0.330619386
0.188675789,0.264187479,0.216532331,0.330604401
0.188800255,0.263841023,0.216769842,0.33058888
0.188924013,0.263496222,0.217006934,0.330572831
0.189047064,0.263153077,0.217243597,0.330556262
0.18916941,0.262811586,0.217479825,0.330539179
0.189291053,0.262471749,0.217715609,0.330521588
0.189411995,0.262133565,0.217950944,0.330503497
0.189532236,0.261797032,0.21818582,0.330484911
0.18965178,0.261462151,0.218420233,0.330465836
0.189770626,0.261128921,0.218654175,0.330446279
0.189888777,0.26079734,0.218887638,0.330426246
0.190006233,0.260467408,0.219120617,0.330405742
0.190122996,0.260139125,0.219353104,0.330384775
0.190239068,0.259812488,0.219585094,0.33036335
0.190354448,0.259487499,0.219816579,0.330341474
0.19046914,0.259164156,0.220047554,0.33031915
0.190583143,0.258842459,0.220278014,0.330296385
0.190696458,0.258522408,0.220507952,0.330273183
0.190809086,0.258204003,0.220737362,0.330249549
0.190921028,0.257887244,0.220966239,0.330225489
0.191032284,0.257572129,0.221194578,0.330201009
0.191142854,0.257258659,0.221422375,0.330176112
0.191252739,0.256946833,0.221649623,0.330150805
0.191361939,0.256636651,0.221876317,0.330125093
0.191470452,0.256328111,0.222102453,0.330098983
0.19157828,0.256021215,0.222328024,0.330072482
0.191685419,0.255715962,0.222553022,0.330045597
0.191791869,0.255412353,0.222777441,0.330018337
0.191897626,0.255110389,0.223001274,0.329990711
0.192002688,0.254810071,0.223224515,0.329962727
0.192107053,0.254511398,0.223447157,0.329934392
0.192210719,0.254214373,0.223669196,0.329905713
0.192313682,0.253918994,0.223890627,0.329876697
0.192415941,0.253625262,0.224111447,0.329847349
0.192517494,0.253333178,0.224331653,0.329817675
0.192618338,0.253042743,0.224551241,0.329787678
0.192718472,0.252753957,0.224770208,0.329757363
0.192817894,0.25246682,0.224988552,0.329726734
0.192916603,0.252181333,0.22520627,0.329695794
0.193014599,0.251897495,0.225423359,0.329664547
0.193111883,0.251615304,0.225639816,0.329632996
0.193208456,0.25133476,0.22585564,0.329601144
0.193304316,0.251055861,0.226070825,0.329568997
0.193399465,0.250778605,0.226285371,0.329536559
0.193493902,0.25050299,0.226499273,0.329503835
0.193587628,0.250229015,0.226712529,0.329470828
0.193680641,0.249956678,0.226925137,0.329437543
0.193772943,0.249685978,0.227137095,0.329403984
0.193864533,0.249416913,0.227348402,0.329370152
0.193955413,0.249149479,0.227559056,0.329336052
0.194045582,0.248883675,0.227769057,0.329301686
0.194135043,0.248619498,0.227978404,0.329267055
0.194223795,0.248356944,0.228187098,0.329232162
0.19431184,0.24809601,0.228395139,0.32919701
0.194399179,0.247836693,0.228602528,0.329161601
0.194485812,0.247578987,0.228809265,0.329125936
0.194571743,0.247322889,0.229015351,0.329090017
0.194656972,0.247068395,0.229220786,0.329053847
0.194741503,0.2468155,0.229425571,0.329017426
0.194825338,0.246564199,0.229629707,0.328980756
0.194908478,0.246314489,0.229833193,0.32894384
0.194990926,0.246066365,0.23003603,0.32890668
0.195072683,0.24581982,0.230238218,0.328869278
0.195153752,0.245574852,0.230439758,0.328831639
0.195234136,0.245331452,0.230640647,0.328793765
0.195313836,0.245089617,0.230840886,0.328755661
0.195392856,0.244849339,0.231040474,0.328717331
0.195471197,0.244610613,0.23123941,0.32867878
0.195548862,0.244373432,0.231437691,0.328640014
0.195625854,0.24413779,0.231635318,0.328601038
0.195702174,0.243903679,0.231832288,0.328561858
0.195777826,0.243671093,0.232028601,0.32852248
0.19585281,0.243440025,0.232224255,0.328482909
0.195927131,0.243210469,0.23241925,0.328443151
0.196000789,0.242982416,0.232613586,0.32840321
0.196073786,0.242755861,0.232807262,0.328363091
0.196146126,0.242530798,0.233000278,0.328322799
0.196217809,0.242307218,0.233192635,0.328282338
0.196288839,0.242085117,0.233384332,0.328241712
0.196359217,0.241864488,0.233575371,0.328200925
0.196428945,0.241645325,0.23376575,0.32815998
0.196498026,0.241427623,0.23395547,0.328118881
0.196566462,0.241211377,0.234144531,0.328077631
0.196634255,0.24099658,0.234332933,0.328036232
0.196701408,0.240783227,0.234520676,0.327994689
0.196767923,0.240571313,0.234707762,0.327953003
0.196833801,0.240360831,0.234894191,0.327911177
0.196899045,0.240151779,0.235079962,0.327869214
0.196963657,0.239944149,0.235265077,0.327827116
0.19702764,0.239737938,0.235449536,0.327784886
0.197090993,0.239533142,0.23563334,0.327742525
0.197153721,0.239329755,0.235816487,0.327700037
0.197215824,0.239127772,0.23599898,0.327657423
0.197277304,0.23892719,0.236180819,0.327614687
0.197338162,0.238728003,0.236362003,0.327571832
0.197398399,0.238530206,0.236542534,0.32752886
0.197458018,0.238333795,0.236722412,0.327485775
0.197517018,0.238138764,0.236901638,0.32744258
0.197575402,0.237945107,0.237080211,0.327399279
0.197633171,0.237752821,0.237258133,0.327355875
0.197690324,0.237561899,0.237435404,0.327312373
0.197746863,0.237372336,0.237612025,0.327268776
0.197802789,0.237184127,0.237787997,0.327225088
0.197858103,0.236997267,0.237963319,0.327181311
0.197912804,0.236811751,0.238137995,0.32713745
0.197966893,0.236627574,0.238312026,0.327093507
0.198020371,0.236444731,0.238485413,0.327049485
0.198073236,0.23626322,0.23865816,0.327005385
0.198125489,0.236083034,0.238830267,0.326961209
0.19817713,0.235904171,0.239001738,0.326916961
0.198228157,0.235726625,0.239172575,0.326872642
0.198278569,0.235550394,0.239342782,0.326828254
0.198328365,0.235375473,0.239512363,0.326783798
0.198377544,0.235201859,0.23968132,0.326739277
0.198426102,0.235029548,0.23984966,0.326694691
0.198474037,0.234858535,0.240017385,0.326650042
0.198521349,0.234688817,0.240184501,0.326605333
0.198568034,0.23452039,0.240351011,0.326560565
0.198614089,0.23435325,0.24051692,0.32651574
0.198659513,0.234187395,0.240682231,0.32647086
0.198704301,0.234022821,0.240846949,0.326425929
0.19874845,0.233859524,0.241011077,0.326380949
0.198791958,0.233697501,0.241174618,0.326335923
0.198834821,0.233536749,0.241337576,0.326290854
0.198877037,0.233377263,0.241499954,0.326245745
0.198918604,0.233219043,0.241661755,0.326200599
0.198959518,0.233062084,0.241822982,0.326155416
0.198999777,0.232906383,0.241983639,0.326110201
0.199039379,0.232751938,0.242143729,0.326064954
0.199078321,0.232598746,0.242303255,0.326019678
0.199116603,0.232446803,0.242462221,0.325974373
0.199154222,0.232296106,0.24262063,0.325929041
0.199191177,0.232146653,0.242778485,0.325883685
0.199227466,0.231998439,0.24293579,0.325838304
0.199263089,0.231851461,0.243092549,0.325792902
0.199298043,0.231705714,0.243248764,0.325747479
0.199332327,0.231561197,0.243404438,0.325702038
0.199365941,0.231417904,0.243559576,0.325656579
0.199398883,0.231275832,0.24371418,0.325611105
0.199431152,0.231134978,0.243868253,0.325565616
0.199462748,0.230995338,0.244021799,0.325520115
0.19949367,0.230856908,0.24417482,0.325474602
0.199523918,0.230719684,0.244327319,0.325429079
0.19955349,0.230583664,0.244479298,0.325383548
0.199582386,0.230448844,0.244630761,0.325338009
0.199610605,0.23031522,0.24478171,0.325292465
0.199638146,0.230182789,0.244932147,0.325246917
0.199665009,0.230051546,0.245082077,0.325201367
0.199691193,0.229921489,0.245231502,0.325155816
0.199716697,0.229792612,0.245380426,0.325110265
0.199741519,0.229664913,0.245528851,0.325064717
0.19976566,0.229538386,0.245676783,0.325019171
0.199789118,0.229413028,0.245824226,0.324973629
0.199811892,0.229288834,0.245971183,0.324928091
0.199833984,0.2291658,0.246117659,0.324882557
0.199855391,0.229043922,0.246263659,0.324837028
0.199876115,0.228923194,0.246409188,0.324791503
0.199896155,0.228803613,0.246554252,0.324745981
0.199915511,0.228685175,0.246698854,0.32470046
0.199934184,0.228567875,0.246843001,0.32465494
0.199952174,0.228451709,0.246986698,0.324609418
0.199969482,0.228336675,0.247129951,0.324563893
0.199986108,0.228222767,0.247272764,0.324518361
0.200002053,0.228109982,0.247415144,0.324472821
0.200017317,0.227998316,0.247557095,0.324427271
0.200031903,0.227887765,0.247698623,0.32438171
0.200045811,0.227778322,0.247839733,0.324336134
0.200059042,0.227669985,0.247980429,0.324290544
0.200071598,0.227562747,0.248120716,0.324244939
0.200083481,0.227456605,0.2482606,0.324199315
0.200094691,0.227351553,0.248400083,0.324153673
0.20010523,0.227247588,0.248539171,0.324108011
0.2001151,0.227144705,0.248677867,0.324062328
0.200124303,0.227042899,0.248816176,0.324016622
0.200132839,0.226942165,0.248954101,0.323970895
0.200140711,0.226842497,0.249091646,0.323925146
0.200147918,0.22674389,0.249228815,0.323879377
0.200154464,0.226646338,0.249365609,0.32383359
0.200160348,0.226549834,0.249502031,0.323787788
0.200165571,0.226454372,0.249638085,0.323741973
0.200170134,0.226359945,0.249773771,0.32369615
0.200174038,0.226266548,0.249909093,0.32365032
0.200177286,0.226174174,0.250044052,0.323604488
0.200179877,0.226082818,0.25017865,0.323558655
0.200181814,0.225992474,0.250312888,0.323512824
0.200183097,0.225903136,0.250446769,0.323466999
0.200183727,0.225814799,0.250580293,0.323421181
0.200183704,0.22572746,0.250713462,0.323375373
0.200183031,0.225641114,0.250846278,0.323329577
0.200181707,0.225555758,0.25097874,0.323283795
0.200179733,0.225471388,0.251110849,0.323238029
0.200177109,0.225388003,0.251242607,0.323192282
0.200173836,0.225305598,0.251374013,0.323146554
0.200169914,0.22522417,0.251505068,0.323100849
0.200165343,0.225143715,0.251635773,0.323055169
0.200160125,0.22506423,0.251766128,0.323009516
0.200154259,0.224985711,0.251896135,0.322963895
0.200147747,0.224908153,0.252025793,0.322918306
0.200140589,0.224831553,0.252155104,0.322872754
0.200132784,0.224755907,0.252284066,0.322827242
0.200124335,0.224681211,0.252412682,0.322781772
0.200115241,0.224607461,0.252540951,0.322736346
0.200105504,0.224534657,0.252668872,0.322690967
0.200095122,0.224462797,0.252796445,0.322645636
0.200084095,0.224391881,0.25292367,0.322600353
0.200072425,0.224321911,0.253050544,0.322555119
0.200060109,0.224252889,0.253177068,0.322509934
0.200047148,0.224184818,0.253303238,0.322464796
0.20003354,0.224117703,0.253429053,0.322419705
0.200019284,0.224051548,0.25355451,0.322374658
0.20000438,0.223986358,0.253679607,0.322329655
0.199988826,0.22392214,0.253804341,0.322284692
0.199972622,0.223858899,0.25392871,0.322239769
0.199955766,0.22379664,0.25405271,0.322194884
0.199938257,0.223735371,0.25417634,0.322150032
0.199920095,0.223675098,0.254299595,0.322105213
0.199901277,0.223615828,0.254422472,0.322060423
0.199881803,0.223557569,0.254544968,0.322015659
0.199861673,0.223500329,0.254667079,0.321970919
0.199840883,0.223444116,0.254788802,0.321926198
0.199819434,0.223388938,0.254910133,0.321881494
0.199797324,0.223334804,0.255031069,0.321836804
0.199774552,0.223281721,0.255151605,0.321792123
0.199751117,0.223229697,0.255271737,0.321747449
0.199727018,0.223178742,0.255391462,0.321702778
0.199702254,0.223128862,0.255510777,0.321658106
0.199676825,0.223080066,0.255629678,0.321613432
0.199650729,0.223032361,0.25574816,0.321568751
0.199623965,0.222985755,0.25586622,0.321524059
0.199596534,0.222940257,0.255983855,0.321479354
0.199568434,0.222895874,0.25610106,0.321434632
0.199539666,0.222852612,0.256217833,0.32138989
0.199510227,0.22281048,0.256334168,0.321345125
0.199480118,0.222769484,0.256450064,0.321300333
0.199449339,0.222729633,0.256565516,0.321255512
0.199417889,0.222690934,0.25668052,0.321210658
0.199385767,0.222653392,0.256795073,0.321165768
0.199352973,0.222617016,0.256909171,0.32112084
0.199319507,0.222581811,0.257022811,0.32107587
0.199285369,0.222547785,0.257135989,0.321030857
0.199250559,0.222514942,0.257248702,0.320985797
0.199215076,0.222483289,0.257360947,0.320940688
0.12051812,0.262868138,0.310481434,0.306132307
0.120465394,0.263608623,0.31021175,0.305714232
0.120409751,0.264372727,0.309933116,0.305284406
0.120351127,0.265160748,0.309645403,0.304842722
0.120289462,0.265972975,0.309348486,0.304389077
0.120224694,0.266809685,0.309042246,0.303923375
0.120156763,0.26767115,0.308726566,0.30344552
0.120085611,0.268557634,0.308401333,0.302955422
0.120011177,0.269469395,0.308066436,0.302452991
0.119933403,0.270406683,0.307721769,0.301938145
0.119852231,0.27136974,0.307367227,0.301410802
0.119767605,0.272358799,0.30700271,0.300870885
0.11967947,0.273374084,0.306628122,0.300318325
0.119587772,0.2744158,0.306243372,0.299753057
0.11949246,0.275484139,0.305848376,0.299175025
0.119393487,0.276579276,0.305443056,0.298584181
0.119290806,0.277701369,0.305027342,0.297980484
0.119184372,0.278850562,0.304601166,0.2973639
0.119074145,0.280026981,0.304164471,0.296734403
0.118960084,0.281230738,0.303717204,0.296091973
0.118842155,0.282461925,0.30325932,0.295436601
0.118720321,0.283720616,0.302790781,0.294768281
0.118594554,0.285006872,0.302311557,0.294087018
0.118464823,0.286320735,0.301821621,0.29339282
0.118331103,0.287662234,0.301320957,0.292685706
0.118193371,0.289031379,0.300809551,0.291965699
0.118051604,0.29042817,0.300287397,0.291232829
0.117905782,0.291852593,0.299754491,0.290487135
0.11775589,0.293304617,0.299210836,0.289728657
0.117601911,0.294784203,0.298656442,0.288957445
0.117443833,0.296291293,0.29809132,0.288173554
0.117281646,0.297825817,0.297515491,0.287377045
0.117115341,0.299387693,0.296928978,0.286567987
0.116944915,0.300976821,0.296331811,0.285746454
0.116770363,0.302593087,0.295724024,0.284912525
0.116591687,0.304236365,0.295105659,0.284066289
0.116408887,0.305906515,0.294476759,0.283207838
0.116221968,0.307603389,0.293837375,0.282337268
0.116030935,0.309326824,0.29318756,0.281454682
0.115835795,0.311076647,0.292527371,0.280560187
0.115636558,0.312852674,0.291856871,0.279653897
0.115433237,0.314654704,0.291176128,0.278735931
0.115225848,0.316482524,0.290485214,0.277806414
0.115014406,0.31833591,0.289784207,0.276865478
0.11479893,0.320214625,0.289073185,0.275913259
0.114579443,0.322118421,0.288352235,0.274949902
0.114355966,0.324047036,0.287621445,0.273975553
0.114128524,0.326000201,0.28688091,0.272990364
0.113897144,0.327977637,0.286130726,0.271994493
0.113661853,0.329979053,0.285370994,0.270988099
0.113422682,0.332004153,0.284601818,0.269971347
0.11317966,0.334052631,0.283823305,0.268944404
0.112932818,0.336124186,0.283035561,0.267907435
0.112682187,0.338218519,0.282238689,0.266860605
0.112427795,0.340335332,0.281432795,0.265804078
0.112169674,0.342474321,0.280617982,0.264738022
0.111907856,0.344635175,0.279794361,0.263662608
0.111642375,0.34681757,0.278962046,0.262578009
0.111373267,0.349021177,0.278121152,0.261484404
0.111100568,0.35124566,0.277271799,0.260381973
0.110824318,0.353490675,0.276414108,0.259270899
0.110544556,0.355755869,0.275548206,0.258151369
0.110261324,0.35804088,0.274674221,0.257023574
0.109974665,0.360345345,0.273792284,0.255887706
0.109684623,0.362668893,0.272902526,0.254743958
0.109391243,0.365011153,0.27200508,0.253592524
0.10909457,0.367371749,0.271100081,0.2524336
0.108794651,0.369750299,0.270187665,0.251267384
0.108491535,0.372146421,0.269267969,0.250094075
0.108185269,0.374559729,0.268341129,0.248913873
0.107875903,0.376989835,0.267407285,0.247726977
0.107563487,0.379436348,0.266466575,0.246533589
0.107248071,0.381898873,0.265519143,0.245333914
0.106929708,0.384377005,0.264565131,0.244128156
0.106608452,0.386870337,0.263604687,0.242916524
0.106284358,0.389378453,0.262637962,0.241699228
0.105957482,0.391900936,0.261665105,0.240476477
0.10562788,0.394437367,0.26068627,0.239248484
0.105295609,0.396987323,0.25970161,0.238015458
0.104960727,0.399550378,0.258711282,0.236777614
0.104623293,0.4021261,0.257715442,0.235535164
0.104283368,0.404714053,0.256714253,0.234288326
0.103941012,0.407313797,0.255707876,0.233037315
0.103596287,0.409924892,0.254696474,0.231782347
0.103249257,0.412546892,0.253680212,0.230523639
0.102899984,0.415179351,0.252659258,0.229261408
0.102548532,0.417821816,0.25163378,0.227995872
0.102194967,0.420473833,0.250603948,0.226727251
0.101839354,0.423134948,0.249569934,0.225455763
0.101481758,0.425804705,0.248531911,0.224181626
0.101122245,0.428482647,0.247490051,0.222905057
0.10076088,0.431168321,0.246444527,0.221626273
0.100397728,0.433861273,0.245395511,0.220345488
0.100032855,0.436561052,0.244343177,0.219062916
0.099666328,0.439267206,0.243287697,0.21777877
0.099298212,0.441979282,0.242229245,0.216493261
0.098928573,0.44469683,0.241167996,0.2152066
0.098557479,0.447419401,0.240104122,0.213918998
0.098184995,0.450146551,0.239037795,0.212630659
0.097811187,0.45287784,0.237969184,0.211341789
0.09743612,0.455612832,0.236898457,0.210052591
0.097059859,0.458351097,0.23582578,0.208763264
0.096682468,0.461092205,0.234751319,0.207474007
0.096304013,0.463835727,0.233675241,0.20618502
0.095924557,0.466581235,0.232597711,0.204896497
0.095544166,0.469328305,0.231518895,0.203608634
0.095162902,0.472076513,0.230438959,0.202321625
0.094780831,0.474825438,0.229358068,0.201035663
0.094398016,0.477574664,0.228276385,0.199750935
0.094014519,0.480323779,0.227194072,0.19846763
0.093630404,0.483072378,0.226111288,0.19718593
0.093245731,0.485820062,0.225028193,0.195906014
0.092860563,0.488566437,0.223944941,0.194628059
0.092474959,0.491311114,0.222861689,0.193352238
0.092088979,0.494053705,0.221778593,0.192078723
0.091702684,0.496793826,0.220695807,0.190807683
0.091316131,0.499531098,0.219613485,0.189539286
0.090929381,0.50226514,0.218531783,0.188273696
0.09054249,0.504995578,0.217450855,0.187011077
0.090155518,0.507722038,0.216370854,0.18575159
0.089768522,0.510444154,0.21529193,0.184495394
0.089381558,0.513161564,0.214214232,0.183242645
0.088994684,0.51587391,0.213137909,0.181993498
0.088607954,0.518580839,0.212063104,0.180748103
0.088221425,0.521282005,0.210989962,0.179506608
0.087835152,0.523977071,0.20991862,0.178269157
0.087449188,0.526665713,0.208849211,0.177035888
0.087063582,0.529347619,0.207781865,0.175806933
0.086678385,0.532022489,0.206716706,0.17458242
0.086293645,0.534690029,0.205653856,0.173362471
0.085909408,0.537349955,0.204593432,0.172147205
0.08552572,0.540001995,0.203535549,0.170936736
0.085142625,0.542645887,0.202480315,0.169731173
0.084760166,0.545281376,0.201427836,0.168530622
0.084378385,0.547908211,0.200378217,0.167335186
0.083997323,0.55052615,0.199331561,0.166144966
0.083617021,0.553134955,0.198287967,0.164960058
0.083237518,0.555734393,0.197247533,0.163780556
0.082858853,0.558324236,0.196210358,0.162606553
0.082481064,0.560904264,0.195176536,0.161438136
0.082104189,0.56347426,0.194146161,0.16027539
0.081728262,0.566034016,0.193119323,0.159118398
0.08135332,0.568583335,0.192096109,0.157967237
0.080979395,0.571122022,0.191076603,0.15682198
0.080606522,0.57364989,0.190060888,0.1556827
0.080234732,0.576166753,0.189049047,0.154549467
0.079864059,0.578672435,0.188041158,0.153422348
0.079494532,0.581166765,0.187037297,0.152301407
0.07912618,0.583649578,0.186037536,0.151186706
0.078759033,0.586120717,0.185041946,0.150078303
0.078393119,0.588580027,0.184050596,0.148976257
0.078028465,0.591027361,0.183063552,0.147880622
0.077665096,0.593462578,0.182080876,0.146791451
0.077303036,0.595885544,0.18110263,0.14570879
0.07694231,0.598296135,0.18012887,0.144632685
0.076582938,0.600694233,0.179159651,0.143563178
0.076224943,0.603079722,0.178195027,0.142500309
0.075868343,0.605452492,0.177235049,0.141444116
0.075513158,0.607812442,0.176279766,0.140394634
0.075159406,0.610159472,0.175329226,0.139351896
0.074807104,0.612493489,0.174383474,0.138315933
0.074456269,0.614814402,0.173442557,0.137286772
0.074106917,0.617122122,0.17250652,0.136264441
0.073759063,0.619416568,0.171575408,0.135248961
0.073412722,0.621697659,0.170649265,0.134240354
0.073067908,0.623965321,0.16972813,0.133238641
0.072724634,0.62621948,0.168812045,0.132243841
0.072382915,0.628460066,0.167901047,0.131255973
0.072042762,0.630687013,0.166995175,0.130275051
0.071704187,0.632900257,0.166094466,0.129301091
0.071367201,0.635099738,0.165198957,0.128334104
0.071031816,0.637285399,0.164308684,0.127374102
0.07069804,0.639457186,0.163423682,0.126421091
0.070365884,0.641615052,0.162543985,0.125475079
0.070035357,0.64375895,0.161669621,0.124536072
0.069706466,0.645888837,0.160800623,0.123604074
0.069379222,0.648004673,0.159937017,0.122679088
0.069053631,0.650106419,0.159078833,0.121761117
0.068729702,0.652194038,0.158226098,0.120850161
0.068407444,0.654267498,0.15737884,0.119946219
0.068086863,0.656326768,0.156537082,0.119049286
0.067767966,0.658371825,0.155700849,0.118159359
0.06745076,0.660402651,0.15487016,0.117276429
0.067135249,0.66241923,0.154045033,0.116400487
0.066821439,0.664421555,0.153225485,0.115531522
0.066509333,0.66640962,0.152411528,0.11466952
0.066198933,0.668383431,0.151603172,0.113814464
0.065890241,0.670342999,0.150800424,0.112966335
0.065583259,0.672288338,0.150003288,0.112125115
0.065277987,0.674219464,0.149211767,0.111290782
0.064974428,0.676136395,0.148425863,0.110463314
0.064672581,0.67803915,0.147645578,0.109642691
0.064372447,0.679927752,0.146870911,0.10882889
0.064074028,0.681802224,0.146101862,0.108021886
0.063777323,0.68366259,0.14533843,0.107221657
0.063482334,0.685508875,0.144580612,0.106428179
0.063189062,0.687341107,0.143828404,0.105641426
0.062897507,0.689159314,0.143081804,0.104861375
0.06260767,0.690963527,0.142340804,0.104087999
0.062319551,0.692753779,0.141605398,0.103321272
0.062033151,0.694530104,0.140875579,0.102561166
0.061748469,0.69629254,0.140151336,0.101807654
0.061465505,0.698041125,0.139432662,0.101060708
0.06118426,0.699775899,0.138719544,0.100320298
0.060904731,0.701496903,0.138011972,0.099586394
0.060626919,0.70320418,0.137309934,0.098858967
0.060350824,0.704897775,0.136613416,0.098137985
0.060076442,0.706577736,0.135922406,0.097423416
0.059803774,0.708244108,0.13523689,0.096715228
0.059532817,0.709896941,0.134556853,0.096013389
0.05926357,0.711536285,0.13388228,0.095317865
0.05899603,0.713162192,0.133213155,0.094628624
0.058730194,0.714774714,0.132549461,0.093945631
0.05846606,0.716373907,0.131891182,0.093268851
0.058203626,0.717959823,0.131238299,0.092598252
0.057942889,0.719532517,0.130590796,0.091933797
0.057683848,0.721092045,0.129948654,0.091275453
0.0574265,0.722638463,0.129311852,0.090623185
0.057170843,0.724171826,0.128680373,0.089976958
0.056916875,0.725692192,0.128054196,0.089336736
0.056664595,0.727199618,0.127433301,0.088702486
0.056414001,0.72869416,0.126817668,0.088074171
0.056165092,0.730175877,0.126207275,0.087451756
0.055917865,0.731644827,0.1256021,0.086835207
0.05567232,0.733101069,0.125002123,0.086224488
0.055428453,0.734544665,0.124407321,0.085619562
0.055186262,0.735975675,0.12381767,0.085020394
0.054945745,0.737394162,0.123233147,0.084426946
0.0547069,0.738800188,0.122653729,0.083839182
0.054469723,0.740193818,0.122079393,0.083257066
0.054234212,0.741575117,0.121510112,0.082680559
0.054000362,0.74294415,0.120945863,0.082109624
0.053768172,0.744300985,0.12038662,0.081544224
0.053537637,0.745645688,0.119832356,0.080984319
0.053308754,0.746978329,0.119283045,0.080429872
0.05308152,0.748298978,0.118738658,0.079880844
0.052855931,0.749607705,0.118199168,0.079337196
0.052631983,0.750904582,0.117664546,0.078798889
0.052409671,0.752189682,0.117134763,0.078265884
0.052188991,0.753463078,0.116609789,0.077738142
0.05196994,0.754724842,0.116089593,0.077215625
0.051752512,0.755975046,0.115574147,0.076698295
0.051536704,0.757213762,0.11506342,0.076186115
0.051322511,0.758441062,0.114557381,0.075679046
0.051109928,0.75965702,0.114056002,0.07517705
0.050898952,0.760861707,0.11355925,0.074680091
0.050689577,0.762055194,0.113067097,0.074188131
0.050481798,0.763237555,0.112579513,0.073701134
0.05027561,0.76440886,0.112096466,0.073219064
0.050071009,0.76556918,0.111617926,0.072741884
0.04986799,0.766718588,0.111143864,0.072269559
0.049666546,0.767857154,0.110674248,0.071802052
0.049466672,0.768984951,0.110209048,0.071339328
0.049268363,0.77010205,0.109748235,0.070881351
0.049071613,0.771208524,0.109291778,0.070428086
0.048876415,0.772304443,0.108839647,0.069979496
0.048682762,0.773389879,0.108391811,0.069535548
0.048490648,0.774464905,0.107948242,0.069096205
0.048300067,0.77552959,0.107508908,0.068661434
0.048111013,0.776584007,0.107073781,0.0682312
0.047923477,0.777628224,0.10664283,0.067805468
0.047737455,0.778662315,0.106216026,0.067384203
0.04755294,0.779686351,0.105793337,0.066967371
0.047369925,0.780700404,0.105374734,0.066554937
0.047188403,0.781704546,0.104960185,0.066146866
0.047008367,0.782698849,0.10454966,0.065743124
0.046829811,0.783683387,0.104143127,0.065343675
0.046652727,0.784658231,0.103740555,0.064948486
0.046477108,0.785623455,0.103341914,0.064557522
0.046302947,0.786579131,0.102947173,0.064170749
0.046130236,0.78752533,0.102556301,0.063788133
0.045958967,0.788462123,0.102169269,0.063409642
0.045789132,0.789389582,0.101786044,0.063035241
0.045620723,0.790307779,0.101406598,0.0626649
0.045453732,0.791216786,0.101030898,0.062298583
0.045288151,0.792116674,0.100658915,0.06193626
0.04512397,0.793007514,0.100290619,0.061577897
0.044961181,0.793889376,0.099925982,0.061223461
0.044799776,0.79476233,0.099564974,0.060872921
0.044639745,0.795626446,0.099207566,0.060526244
0.044481079,0.796481793,0.09885373,0.060183398
0.044323771,0.79732844,0.098503437,0.059844351
0.044167812,0.798166454,0.098156661,0.059509073
0.044013193,0.798995902,0.097813375,0.059177531
0.043859906,0.799816848,0.097473552,0.058849694
0.043707943,0.800629359,0.097137166,0.058525532
0.043557296,0.801433498,0.096804192,0.058205014
0.043407957,0.802229331,0.096474604,0.057888107
0.043259918,0.803016923,0.096148377,0.057574782
0.043113171,0.803796338,0.095825485,0.057265007
0.042967708,0.80456764,0.095505902,0.05695875
0.042823522,0.805330893,0.095189603,0.056655982
0.042680606,0.80608616,0.094876563,0.056356671
0.042538951,0.806833507,0.094566756,0.056060787
0.04239855,0.807572996,0.094260155,0.0557683
0.042259395,0.80830469,0.093956734,0.05547918
0.042121479,0.809028654,0.093656468,0.055193399
0.041984795,0.809744949,0.093359331,0.054910926
0.041849335,0.810453638,0.093065295,0.054631733
0.041715091,0.811154782,0.092774336,0.054355791
0.041582058,0.811848444,0.092486427,0.054083071
0.041450226,0.812534684,0.092201544,0.053813546
0.041319588,0.813213564,0.09191966,0.053547187
0.041190138,0.813885144,0.091640751,0.053283967
0.041061868,0.814549485,0.091364791,0.053023856
0.040934771,0.815206646,0.091091756,0.052766828
0.040808838,0.815856688,0.09082162,0.052512854
0.040684064,0.816499669,0.090554358,0.052261909
0.040560441,0.817135648,0.090289946,0.052013964
0.040437963,0.817764682,0.09002836,0.051768994
0.040316623,0.818386827,0.089769577,0.051526973
0.040196414,0.819002137,0.089513574,0.051287875
0.04007733,0.819610667,0.08926033,0.051051673
0.039959364,0.82021247,0.089009823,0.050818342
0.039842511,0.8208076,0.088762031,0.050587858
0.039726764,0.821396109,0.088516933,0.050360193
0.039612117,0.82197805,0.088274509,0.050135324
0.039498563,0.822553476,0.088034737,0.049913225
0.039386096,0.823122439,0.087797594,0.04969387
0.039274709,0.823684994,0.087563061,0.049477236
0.039164396,0.824241195,0.087331114,0.049263295
0.039055149,0.824791095,0.087101732,0.049052025
0.03894696,0.825334749,0.086874892,0.048843399
0.038839823,0.825872212,0.086650571,0.048637393
0.03873373,0.826403537,0.086428749,0.048433984
0.038628674,0.826928778,0.086209401,0.048233147
0.038524647,0.827447986,0.085992508,0.04803486
0.038421642,0.827961213,0.085778046,0.047839099
0.038319651,0.828468512,0.085565996,0.047645841
0.038218668,0.828969934,0.085356336,0.047455063
0.038118684,0.82946553,0.085149044,0.047266743
0.038019692,0.829955351,0.0849441,0.047080857
0.037921686,0.830439448,0.084741483,0.046897383
0.037824657,0.83091787,0.084541172,0.0467163
0.0377286,0.831390666,0.084343148,0.046537586
0.037633507,0.831857885,0.084147389,0.046361219
0.037539371,0.832319576,0.083953876,0.046187177
0.037446185,0.832775786,0.083762589,0.04601544
0.037353943,0.833226564,0.083573507,0.045845986
0.037262638,0.833671956,0.083386612,0.045678794
0.037172263,0.83411201,0.083201883,0.045513845
0.037082811,0.834546772,0.083019301,0.045351116
0.036994277,0.834976289,0.082838847,0.045190588
0.036906652,0.835400606,0.0826605,0.045032241
0.036819932,0.835819769,0.082484243,0.044876056
0.036734109,0.836233823,0.082310055,0.044722013
0.036649176,0.836642812,0.082137917,0.044570094
0.036565128,0.83704678,0.081967811,0.044420281
0.036481957,0.83744577,0.081799718,0.044272554
0.036399658,0.837839826,0.081633619,0.044126897
0.036318225,0.838228989,0.081469496,0.04398329
0.03623765,0.838613303,0.081307331,0.043841717
0.036157928,0.838992808,0.081147106,0.043702159
0.036079053,0.839367545,0.080988803,0.043564599
0.036001019,0.839737557,0.080832405,0.04342902
0.035923819,0.840102881,0.080677894,0.043295405
0.03584745,0.84046356,0.080525252,0.043163738
0.035771903,0.840819632,0.080374462,0.043034002
0.035697175,0.841171137,0.080225507,0.042906181
0.035623258,0.841518114,0.080078371,0.042780257
0.035550147,0.841860602,0.079933036,0.042656214
0.035477836,0.842198641,0.079789486,0.042534037
0.035406319,0.842532269,0.079647705,0.042413708
0.035335589,0.842861526,0.079507674,0.042295211
0.035265641,0.84318645,0.079369378,0.04217853
0.03519647,0.843507081,0.079232801,0.042063648
0.035128068,0.843823458,0.079097924,0.04195055
0.035060429,0.844135618,0.078964733,0.04183922
0.034993548,0.844443601,0.07883321,0.04172964
0.03492742,0.844747445,0.078703339,0.041621796
0.034862037,0.845047188,0.078575104,0.041515671
0.034797394,0.845342868,0.078448488,0.041411251
0.034733486,0.845634521,0.078323476,0.041308518
0.034670306,0.845922184,0.078200052,0.041207458
0.03460785,0.846205894,0.078078202,0.041108055
0.034546111,0.846485687,0.077957909,0.041010293
0.034485083,0.846761602,0.07783916,0.040914156
0.034424762,0.847033673,0.077721938,0.040819628
0.034365141,0.847301936,0.07760623,0.040726694
0.034306214,0.847566427,0.077492021,0.040635338
0.034247977,0.847827179,0.077379298,0.040545545
0.034190424,0.848084228,0.077268048,0.0404573
0.034133549,0.848337607,0.077158256,0.040370589
0.034077347,0.848587348,0.077049909,0.040285396
0.034021812,0.848833486,0.076942996,0.040201707
0.033966938,0.849076051,0.076837502,0.040119509
0.033912722,0.849315076,0.076733415,0.040038787
0.033859156,0.849550594,0.076630723,0.039959528
0.033806235,0.849782636,0.076529412,0.039881718
0.033753954,0.850011233,0.076429471,0.039805343
0.033702307,0.850236417,0.076330887,0.03973039
0.033651288,0.850458219,0.076233648,0.039656845
0.033600893,0.85067667,0.076137742,0.039584695
0.033551115,0.850891801,0.076043156,0.039513928
0.033501949,0.851103641,0.07594988,0.03944453
0.03345339,0.851312221,0.075857901,0.039376488
0.033405433,0.851517569,0.075767207,0.039309791
0.033358072,0.851719715,0.075677786,0.039244426
0.033311302,0.851918689,0.075589628,0.039180381
0.033265119,0.852114518,0.07550272,0.039117643
0.033219517,0.852307231,0.075417051,0.039056201
0.033174491,0.852496855,0.075332611,0.038996042
0.033130037,0.852683418,0.075249389,0.038937156
0.03308615,0.852866947,0.075167373,0.038879529
0.033042825,0.853047469,0.075086554,0.038823152
0.033000057,0.853225011,0.07500692,0.038768011
0.032957842,0.8533996,0.074928461,0.038714097
0.032916175,0.853571262,0.074851166,0.038661397
0.032875052,0.853740022,0.074775025,0.038609902
0.032834469,0.853905903,0.074700028,0.0385596
0.032794419,0.854068931,0.074626166,0.038510484
0.032754901,0.854229128,0.07455343,0.038462541
0.032715908,0.854386516,0.074481813,0.038415764
0.032677437,0.854541119,0.074411304,0.03837014
0.032639484,0.854692958,0.074341896,0.038325662
0.032602046,0.854842056,0.074273581,0.038282318
0.032565117,0.854988435,0.074206348,0.0382401
0.032528694,0.855132118,0.07414019,0.038198998
0.032492773,0.855273126,0.074075098,0.038159003
0.032457351,0.855411481,0.074011063,0.038120105
0.032422422,0.855547204,0.073948076,0.038082297
0.032387983,0.855680318,0.07388613,0.038045569
0.032354031,0.855810843,0.073825214,0.038009912
0.03232056,0.855938801,0.07376532,0.037975318
0.032287568,0.856064212,0.073706441,0.037941779
0.032255051,0.856187097,0.073648567,0.037909285
0.032223004,0.856307477,0.07359169,0.037877828
0.032191425,0.856425371,0.073535803,0.037847401
0.03216031,0.8565408,0.073480897,0.037817993
0.032129655,0.856653782,0.073426964,0.037789598
0.032099457,0.856764339,0.073373996,0.037762208
0.032069715,0.856872487,0.073321984,0.037735814
0.032040423,0.856978247,0.073270921,0.037710409
0.03201158,0.857081636,0.0732208,0.037685985
0.031983181,0.857182672,0.073171612,0.037662534
0.031955226,0.857281374,0.07312335,0.03764005
0.031927709,0.857377759,0.073076007,0.037618524
0.03190063,0.857471845,0.073029576,0.03759795
0.031873984,0.857563648,0.072984049,0.037578319
0.031847769,0.857653187,0.07293942,0.037559624
0.031821984,0.857740477,0.072895681,0.037541858
0.031796625,0.857825535,0.072852827,0.037525013
0.03177169,0.857908377,0.07281085,0.037509083
0.031747178,0.857989018,0.072769744,0.03749406
0.031723086,0.858067472,0.072729503,0.037479938
0.031699414,0.858143754,0.072690122,0.03746671
0.031676158,0.85821788,0.072651592,0.03745437
0.031653319,0.858289862,0.072613909,0.03744291
0.031630893,0.858359716,0.072577067,0.037432324
0.031608879,0.858427456,0.072541059,0.037422606
0.031587276,0.858493095,0.072505879,0.037413749
0.031566083,0.858556647,0.072471521,0.037405748
0.031545297,0.858618126,0.07243798,0.037398597
0.031524918,0.858677545,0.072405247,0.037392289
0.031504943,0.858734917,0.072373318,0.037386821
0.031485371,0.858790256,0.072342186,0.037382186
0.031466201,0.858843576,0.072311843,0.03737838
0.031447429,0.858894891,0.072282284,0.037375396
0.031429055,0.858944214,0.0722535,0.037373231
0.031411076,0.85899156,0.072225485,0.037371879
0.031393491,0.859036942,0.072198232,0.037371335
0.031376298,0.859080374,0.072171733,0.037371594
0.031359495,0.859121871,0.072145983,0.037372652
0.031343079,0.859161446,0.072120973,0.037374503
0.031327048,0.859199112,0.072096696,0.037377143
0.031311402,0.859234884,0.072073147,0.037380567
0.031296137,0.859268774,0.072050319,0.037384769
0.031281253,0.859300796,0.072028206,0.037389745
0.031266747,0.859330961,0.072006803,0.037395489
0.031252617,0.859359283,0.071986104,0.037401997
0.031238861,0.859385774,0.071966103,0.037409262
0.031225478,0.859410445,0.071946796,0.037417281
0.031212465,0.85943331,0.071928177,0.037426048
0.031199821,0.859454381,0.07191024,0.037435558
0.031187544,0.859473668,0.071892981,0.037445807
0.031175631,0.859491184,0.071876395,0.03745679
0.031164082,0.85950694,0.071860476,0.037468502
0.031152893,0.859520948,0.071845221,0.037480939
0.031142063,0.859533218,0.071830623,0.037494096
0.03113159,0.859543763,0.071816679,0.037507968
0.031121472,0.859552592,0.071803385,0.037522551
0.031111707,0.859559717,0.071790735,0.037537841
0.031102292,0.859565148,0.071778725,0.037553834
0.031093227,0.859568896,0.071767351,0.037570526
0.031084508,0.859570971,0.071756608,0.037587913
0.031076134,0.859571384,0.071746492,0.03760599
0.031068102,0.859570143,0.071737,0.037624755
0.03106041,0.859567261,0.071728127,0.037644202
0.031053056,0.859562748,0.071719869,0.037664327
0.031046037,0.859556613,0.071712222,0.037685128
0.031039351,0.859548866,0.071705184,0.037706599
0.031032995,0.859539517,0.071698751,0.037728738
0.031026968,0.859528573,0.07169292,0.037751539
0.031021266,0.859516045,0.071687689,0.037775
0.031015887,0.85950194,0.071683056,0.037799117
0.03101083,0.859486268,0.071679017,0.037823885
0.031006092,0.859469035,0.071675571,0.037849302
0.031001672,0.859450251,0.071672715,0.037875362
0.030997566,0.859429922,0.071670447,0.037902065
0.030993774,0.859408057,0.071668764,0.037929405
0.030990293,0.859384663,0.071667665,0.037957379
0.030987121,0.859359747,0.071667146,0.037985986
0.030984257,0.859333316,0.071667206,0.038015221
0.030981697,0.859305378,0.071667843,0.038045082
0.030979441,0.859275939,0.071669054,0.038075565
0.030977487,0.859245007,0.071670838,0.038106669
0.030975831,0.859212586,0.071673192,0.038138391
0.030974473,0.859178685,0.071676115,0.038170727
0.030973411,0.859143309,0.071679605,0.038203675
0.030972642,0.859106464,0.07168366,0.038237234
0.030972166,0.859068158,0.071688276,0.038271399
0.030971981,0.859028396,0.071693454,0.038306169
0.030972085,0.858987184,0.071699189,0.038341542
0.030972477,0.858944529,0.07170548,0.038377514
0.030973154,0.858900438,0.071712325,0.038414082
0.030974116,0.858854917,0.071719722,0.038451246
0.030975361,0.858807971,0.071727667,0.038489001
0.030976888,0.858759609,0.071736158,0.038527346
0.030978695,0.858709834,0.071745194,0.038566277
0.030980781,0.858658655,0.071754771,0.038605793
0.030983144,0.858606076,0.071764888,0.038645892
0.030985783,0.858552105,0.071775542,0.03868657
0.030988698,0.858496747,0.071786731,0.038727825
0.030991885,0.858440008,0.071798451,0.038769656
0.030995346,0.858381895,0.071810701,0.038812058
0.030999077,0.858322413,0.071823479,0.038855031
0.031003078,0.858261569,0.071836781,0.038898571
0.031007349,0.858199369,0.071850605,0.038942677
0.031011887,0.858135819,0.07186495,0.038987344
0.031016691,0.858070925,0.071879812,0.039032572
0.031021761,0.858004694,0.071895189,0.039078356
0.031027096,0.85793713,0.071911079,0.039124695
0.031032694,0.857868241,0.071927479,0.039171585
0.031038555,0.857798034,0.071944387,0.039219024
0.031044677,0.857726515,0.071961799,0.039267009
0.031051059,0.857653691,0.071979714,0.039315537
0.0310577,0.857579568,0.071998127,0.039364605
0.031064599,0.857504153,0.072017037,0.039414211
0.031071755,0.857427452,0.07203644,0.039464354
0.031079165,0.857349471,0.072056333,0.039515031
0.03108683,0.857270216,0.072076712,0.039566242
0.031094747,0.857189694,0.072097576,0.039617984
0.031102914,0.85710791,0.07211892,0.039670256
0.031111332,0.857024872,0.072140741,0.039723055
0.031119997,0.856940585,0.072163036,0.039776382
0.03112891,0.856855054,0.072185802,0.039830234
0.031138069,0.856768285,0.072209036,0.039884609
0.031147473,0.856680284,0.072232735,0.039939508
0.031157121,0.856591057,0.072256895,0.039994927
0.031167011,0.85650061,0.072281513,0.040050865
0.031177143,0.85640895,0.072306586,0.040107322
0.031187515,0.856316082,0.072332109,0.040164294
0.031198127,0.856222012,0.07235808,0.040221782
0.031208977,0.856126747,0.072384494,0.040279782
0.031220064,0.856030294,0.072411349,0.040338293
0.031231387,0.855932659,0.07243864,0.040397314
0.031242944,0.855833849,0.072466365,0.040456843
0.031254734,0.85573387,0.072494519,0.040516877
0.031266755,0.855632729,0.072523101,0.040577415
0.031279006,0.855530434,0.072552105,0.040638455
0.031291485,0.85542699,0.07258153,0.040699995
0.031304191,0.855322405,0.072611372,0.040762032
0.031317121,0.855216685,0.072641628,0.040824566
0.031330274,0.855109837,0.072672295,0.040887593
0.031343648,0.855001868,0.072703371,0.040951112
0.031357242,0.854892784,0.072734852,0.041015122
0.031371053,0.854782592,0.072766735,0.04107962
0.031385081,0.854671297,0.072799017,0.041144606
0.031399323,0.854558905,0.072831695,0.041210077
0.031413779,0.854445424,0.072864766,0.041276032
0.031428446,0.854330857,0.072898226,0.04134247
0.031443324,0.854215212,0.072932074,0.041409391
0.03145841,0.854098492,0.072966305,0.041476792
0.031473705,0.853980704,0.073000918,0.041544673
0.031489207,0.853861851,0.073035909,0.041613034
0.031504914,0.853741937,0.073071276,0.041681872
0.031520826,0.853620969,0.073107018,0.041751188
0.031536941,0.853498949,0.073143131,0.04182098
0.031553259,0.853375882,0.073179612,0.041891247
0.031569777,0.853251773,0.073216461,0.041961988
0.031586496,0.853126627,0.073253674,0.042033203
0.031603414,0.853000447,0.073291248,0.04210489
0.03162053,0.852873239,0.073329182,0.042177049
0.031637843,0.852745006,0.073367473,0.042249678
0.031655351,0.852615754,0.073406119,0.042322776
0.031673054,0.852485486,0.073445116,0.042396343
0.031690951,0.852354208,0.073484463,0.042470377
0.031709041,0.852221925,0.073524157,0.042544877
0.031727322,0.852088641,0.073564195,0.042619842
0.031745793,0.851954362,0.073604575,0.042695269
0.031764454,0.851819094,0.073645294,0.042771158
0.031783302,0.851682843,0.073686348,0.042847506
0.031802336,0.851545617,0.073727735,0.042924312
0.031821555,0.851407423,0.073769449,0.043001573
0.031840957,0.851268269,0.073811488,0.043079286
0.031860541,0.851128162,0.073853846,0.043157451
0.031880304,0.850987112,0.073896521,0.043236063
0.031900246,0.850845125,0.073939508,0.043315121
0.031920365,0.85070221,0.073982803,0.043394622
0.03194066,0.850558374,0.074026401,0.043474565
0.031961129,0.850413626,0.0740703,0.043554945
0.031981771,0.850267972,0.074114495,0.043635763
0.032002584,0.850121421,0.074158981,0.043717014
0.032023566,0.84997398,0.074203756,0.043798698
0.032044718,0.849825657,0.074248814,0.043880812
0.032066036,0.849676459,0.074294152,0.043963353
0.032087519,0.849526394,0.074339767,0.04404632
0.032109167,0.84937547,0.074385653,0.04412971
0.032130977,0.849223693,0.074431807,0.044213522
0.032152949,0.849071072,0.074478226,0.044297754
0.032175081,0.848917612,0.074524904,0.044382403
0.032197373,0.848763322,0.074571838,0.044467466
0.032219823,0.848608209,0.074619025,0.044552943
0.03224243,0.848452279,0.07466646,0.04463883
0.032265194,0.848295541,0.074714139,0.044725126
0.032288112,0.848138,0.074762059,0.044811829
0.032311184,0.847979665,0.074810216,0.044898935
0.032334409,0.847820543,0.074858605,0.044986442
0.032357786,0.847660642,0.074907223,0.045074349
0.032381313,0.847499968,0.074956067,0.045162652
0.032404991,0.84733853,0.075005131,0.045251348
0.032428818,0.847176333,0.075054412,0.045340437
0.032452793,0.847013386,0.075103907,0.045429914
0.032476916,0.846849695,0.075153612,0.045519777
0.032501186,0.846685267,0.075203522,0.045610024
0.032525603,0.84652011,0.075253636,0.045700651
0.032550165,0.84635423,0.075303949,0.045791657
0.032574872,0.846187634,0.075354457,0.045883037
0.032599723,0.846020329,0.075405157,0.04597479
0.032624718,0.845852323,0.075456047,0.046066912
0.032649856,0.845683621,0.075507123,0.0461594
0.032675136,0.84551423,0.075558382,0.046252252
0.032700557,0.845344157,0.075609823,0.046345464
0.032726118,0.845173407,0.075661442,0.046439033
0.03275182,0.845001985,0.075713239,0.046532956
0.03277766,0.844829898,0.075765212,0.04662723
0.032803638,0.844657152,0.075817359,0.046721852
0.032829753,0.844483751,0.075869678,0.046816818
0.032856004,0.844309703,0.075922168,0.046912126
0.032882389,0.844135014,0.075974826,0.047007771
0.032908909,0.84395969,0.07602765,0.047103751
0.032935562,0.843783738,0.076080639,0.047200062
0.032962345,0.843607164,0.076133791,0.0472967
0.032989259,0.843429976,0.076187103,0.047393661
0.033016302,0.84325218,0.076240575,0.047490943
0.033043472,0.843073782,0.076294204,0.047588542
0.033070769,0.84289479,0.076347988,0.047686453
0.03309819,0.84271521,0.076401926,0.047784674
0.033125735,0.842535048,0.076456016,0.0478832
0.033153402,0.842354313,0.076510256,0.047982029
0.03318119,0.842173011,0.076564643,0.048081156
0.033209098,0.841991149,0.076619176,0.048180577
0.033237123,0.841808734,0.076673852,0.04828029
0.033265266,0.841625774,0.07672867,0.048380291
0.033293524,0.841442274,0.076783626,0.048480576
0.033321896,0.841258242,0.07683872,0.048581141
0.033350381,0.841073686,0.07689395,0.048681984
0.033378977,0.840888611,0.076949312,0.048783101
0.033407683,0.840703024,0.077004805,0.048884488
0.033436498,0.840516933,0.077060427,0.048986142
0.033465421,0.840330343,0.077116176,0.04908806
0.033494449,0.840143263,0.07717205,0.049190238
0.033523581,0.839955699,0.077228047,0.049292672
0.033552817,0.839767658,0.077284165,0.04939536
0.033582154,0.839579148,0.077340401,0.049498297
0.033611591,0.839390174,0.077396754,0.04960148
0.033641127,0.839200746,0.077453221,0.049704906
0.03367076,0.839010869,0.0775098,0.04980857
0.033700488,0.838820552,0.07756649,0.04991247
0.033730311,0.8386298,0.077623287,0.050016602
0.033760226,0.838438621,0.077680191,0.050120962
0.033790232,0.838247022,0.077737198,0.050225547
0.033820328,0.83805501,0.077794308,0.050330353
0.033850512,0.837862593,0.077851517,0.050435378
0.033880783,0.837669775,0.077908825,0.050540617
0.03391114,0.837476565,0.077966228,0.050646067
0.033941581,0.837282969,0.078023726,0.050751725
0.033972105,0.837088992,0.078081315,0.050857587
0.034002712,0.836894642,0.078138995,0.050963651
0.034033399,0.836699926,0.078196763,0.051069913
0.034064166,0.836504848,0.078254616,0.051176369
0.034095013,0.836309416,0.078312554,0.051283017
0.034125937,0.836113636,0.078370574,0.051389853
0.034156939,0.835917514,0.078428673,0.051496874
0.034188017,0.835721055,0.078486851,0.051604076
0.034219171,0.835524267,0.078545104,0.051711457
0.0342504,0.835327155,0.078603432,0.051819013
0.034281703,0.835129724,0.078661832,0.051926741
0.034313079,0.834931982,0.078720302,0.052034637
0.034344527,0.834733933,0.078778841,0.052142699
0.034376048,0.834535584,0.078837446,0.052250922
0.034407639,0.834336939,0.078896117,0.052359305
0.034439301,0.834138005,0.07895485,0.052467843
0.034471033,0.833938788,0.079013645,0.052576535
0.034502833,0.833739292,0.0790725,0.052685375
0.034534703,0.833539523,0.079131413,0.052794361
0.03456664,0.833339487,0.079190381,0.052903491
0.034598645,0.83313919,0.079249404,0.05301276
0.034630717,0.832938637,0.07930848,0.053122166
0.034662855,0.832737833,0.079367607,0.053231705
0.034695059,0.832536785,0.079426782,0.053341374
0.034727329,0.832335497,0.079486005,0.053451169
0.034759663,0.832133975,0.079545273,0.053561089
0.034792062,0.831932224,0.079604585,0.053671129
0.034824525,0.831730251,0.079663938,0.053781286
0.034857053,0.831528059,0.079723332,0.053891557
0.034889644,0.831325654,0.079782763,0.054001939
0.034922298,0.831123041,0.079842231,0.05411243
0.034955017,0.830920224,0.079901733,0.054223025
0.034987799,0.830717209,0.079961269,0.054333723
0.035020645,0.830514,0.080020835,0.05444452
0.035053554,0.830310602,0.08008043,0.054555413
0.035086527,0.83010702,0.080140053,0.054666399
0.035119563,0.829903259,0.080199701,0.054777476
0.035152663,0.829699322,0.080259374,0.054888641
0.035185826,0.829495215,0.080319068,0.054999891
0.035219052,0.829290943,0.080378782,0.055111223
0.035252341,0.829086509,0.080438515,0.055222635
0.035285693,0.828881918,0.080498264,0.055334124
0.035319108,0.828677175,0.080558029,0.055445688
0.035352587,0.828472284,0.080617806,0.055557323
0.035386128,0.828267249,0.080677596,0.055669027
0.035419732,0.828062074,0.080737395,0.055780798
0.0354534,0.827856764,0.080797203,0.055892633
0.035487132,0.827651321,0.080857018,0.056004529
0.035520928,0.827445749,0.080916839,0.056116485
0.035554787,0.827240053,0.080976663,0.056228496
0.035588711,0.827034237,0.08103649,0.056340562
0.0356227,0.826828303,0.081096319,0.056452678
0.035656754,0.826622256,0.081156147,0.056564844
0.035690872,0.826416099,0.081215973,0.056677056
0.035725056,0.826209836,0.081275797,0.056789312
0.035759305,0.826003471,0.081335616,0.056901609
0.035793619,0.825797008,0.081395428,0.057013945
0.035827998,0.825590451,0.081455234,0.057126317
0.035862443,0.825383803,0.081515031,0.057238723
0.035896954,0.825177069,0.081574817,0.05735116
0.03593153,0.824970253,0.081634592,0.057463625
0.035966171,0.824763359,0.081694354,0.057576116
0.036000878,0.82455639,0.081754102,0.05768863
0.036035651,0.82434935,0.081813834,0.057801165
0.036070489,0.824142243,0.081873548,0.057913719
0.036105393,0.823935074,0.081933245,0.058026288
0.036140362,0.823727845,0.081992922,0.058138871
0.036175396,0.823520561,0.082052578,0.058251465
0.036210496,0.823313224,0.082112213,0.058364067
0.036245661,0.82310584,0.082171824,0.058476676
0.03628089,0.822898411,0.08223141,0.058589288
0.036316185,0.822690941,0.082290971,0.058701903
0.036351544,0.822483434,0.082350505,0.058814516
0.036386968,0.822275894,0.082410011,0.058927127
0.036422456,0.822068325,0.082469486,0.059039733
0.036458008,0.821860729,0.082528931,0.059152331
0.036493625,0.821653112,0.082588343,0.05926492
0.036529305,0.821445476,0.082647721,0.059377498
0.036565048,0.821237825,0.082707065,0.059490062
0.036600855,0.821030163,0.082766372,0.05960261
0.036636725,0.820822492,0.082825642,0.059715141
0.036672658,0.820614816,0.082884873,0.059827652
0.036708654,0.820407139,0.082944065,0.059940142
0.036744711,0.820199464,0.083003216,0.060052609
0.036780831,0.819991793,0.083062325,0.060165051
0.036817013,0.819784131,0.08312139,0.060277466
0.036853256,0.81957648,0.083180411,0.060389853
0.036889561,0.819368843,0.083239387,0.060502209
0.036925926,0.819161224,0.083298316,0.060614534
0.036962352,0.818953626,0.083357197,0.060726825
0.036998839,0.818746051,0.083416029,0.060839081
0.037035385,0.818538502,0.083474812,0.060951301
0.037071991,0.818330983,0.083533543,0.061063482
0.037108657,0.818123497,0.083592223,0.061175624
0.037145381,0.817916045,0.08365085,0.061287724
0.037182165,0.817708631,0.083709423,0.061399781
0.037219007,0.817501258,0.083767941,0.061511794
0.037255907,0.817293928,0.083826403,0.061623762
0.037292865,0.817086643,0.083884809,0.061735683
0.037329881,0.816879407,0.083943157,0.061847556
0.037366954,0.816672222,0.084001446,0.061959379
0.037404083,0.816465089,0.084059675,0.062071152
0.03744127,0.816258012,0.084117845,0.062182873
0.037478512,0.816050993,0.084175952,0.062294542
0.037515811,0.815844034,0.084233998,0.062406157
0.037553165,0.815637138,0.084291981,0.062517717
0.037590574,0.815430306,0.084349899,0.062629221
0.037628038,0.815223541,0.084407753,0.062740668
0.037665557,0.815016845,0.08446554,0.062852058
0.03770313,0.81481022,0.084523262,0.062963388
0.037740757,0.814603668,0.084580916,0.06307466
0.037778438,0.81439719,0.084638502,0.063185871
0.037816173,0.814190788,0.084696019,0.063297021
0.037853961,0.813984463,0.084753467,0.063408108
0.037891804,0.813778218,0.084810845,0.063519134
0.037929699,0.813572052,0.084868153,0.063630096
0.037967649,0.813365968,0.08492539,0.063740993
0.038005653,0.813159966,0.084982555,0.063851826
0.03804371,0.812954048,0.085039649,0.063962594
0.038081822,0.812748214,0.085096669,0.064073295
0.038119989,0.812542466,0.085153617,0.064183929
0.03815821,0.812336804,0.08521049,0.064294495
0.038196487,0.81213123,0.085267289,0.064404993
0.03823482,0.811925744,0.085324014,0.064515422
0.038273208,0.811720347,0.085380663,0.064625781
0.038311653,0.81151504,0.085437236,0.06473607
0.038350155,0.811309823,0.085493733,0.064846289
0.038388714,0.811104698,0.085550153,0.064956435
0.038427331,0.810899664,0.085606496,0.065066509
0.038466005,0.810694722,0.085662762,0.065176511
0.038504739,0.810489872,0.08571895,0.06528644
0.038543532,0.810285114,0.085775059,0.065396295
0.038582384,0.81008045,0.085831091,0.065506076
0.038621296,0.809875878,0.085887043,0.065615782
0.038660269,0.8096714,0.085942917,0.065725414
0.038699303,0.809467015,0.085998712,0.06583497
0.038738398,0.809262724,0.086054428,0.06594445
0.038777555,0.809058526,0.086110064,0.066053855
0.038816774,0.808854422,0.08616562,0.066163184
0.038856056,0.808650411,0.086221096,0.066272436
0.038895402,0.808446494,0.086276492,0.066381612
0.038934811,0.80824267,0.086331808,0.066490711
0.038974284,0.808038939,0.086387044,0.066599734
0.039013821,0.807835302,0.086442199,0.066708679
0.039053423,0.807631757,0.086497273,0.066817547
0.039093091,0.807428304,0.086552267,0.066926338
0.039132825,0.807224944,0.08660718,0.067035051
0.039172624,0.807021675,0.086662013,0.067143688
0.039212491,0.806818497,0.086716766,0.067252247
0.039252425,0.806615409,0.086771437,0.067360729
0.039292426,0.806412412,0.086826029,0.067469133
0.039332496,0.806209504,0.08688054,0.06757746
0.039372633,0.806006685,0.086934971,0.067685711
0.03941284,0.805803955,0.086989321,0.067793884
0.039453116,0.805601313,0.087043591,0.06790198
0.039493462,0.805398758,0.08709778,0.068009999
0.039533878,0.805196291,0.087151889,0.068117942
0.039574364,0.804993909,0.087205918,0.068225808
0.039614922,0.804791614,0.087259866,0.068333598
0.039655551,0.804589403,0.087313734,0.068441312
0.039696252,0.804387277,0.087367521,0.06854895
0.039737025,0.804185235,0.087421228,0.068656512
0.039777871,0.803983276,0.087474854,0.068763999
0.03981879,0.803781399,0.087528401,0.068871411
0.039859782,0.803579603,0.087581867,0.068978747
0.039900849,0.803377888,0.087635254,0.069086009
0.03994199,0.803176253,0.087688561,0.069193196
0.039983206,0.802974696,0.087741789,0.069300309
0.040024497,0.802773218,0.087794937,0.069407348
0.040065864,0.802571816,0.087848007,0.069514313
0.040107306,0.802370491,0.087900998,0.069621205
0.040148825,0.80216924,0.08795391,0.069728024
0.040190421,0.801968064,0.088006744,0.069834771
0.040232094,0.801766961,0.088059499,0.069941446
0.040273844,0.80156593,0.088112177,0.070048049
0.040315672,0.801364971,0.088164776,0.070154581
0.040357577,0.801164081,0.088217299,0.070261043
0.040399562,0.80096326,0.088269744,0.070367434
0.040441625,0.800762507,0.088322113,0.070473755
0.040483767,0.800561821,0.088374405,0.070580007
0.040525989,0.800361199,0.088426621,0.07068619
0.040568291,0.800160642,0.088478762,0.070792305
0.040610673,0.799960147,0.088530827,0.070898352
0.040653136,0.799759713,0.088582818,0.071004333
0.04069568,0.799559339,0.088634735,0.071110246
0.040738306,0.799359024,0.088686577,0.071216093
0.040781013,0.799158766,0.088738346,0.071321875
0.040823802,0.798958564,0.088790042,0.071427592
0.040866674,0.798758417,0.088841665,0.071533244
0.040909629,0.798558323,0.088893215,0.071638833
0.040952667,0.798358281,0.088944693,0.071744359
0.040995788,0.798158289,0.0889961,0.071849823
0.041038993,0.797958346,0.089047436,0.071955226
0.041082282,0.797758451,0.0890987,0.072060567
0.041125656,0.797558601,0.089149895,0.072165848
0.041169114,0.797358795,0.089201021,0.07227107
0.041212658,0.797159032,0.089252078,0.072376233
0.041256287,0.796959309,0.089303068,0.072481337
0.041300002,0.796759624,0.08935399,0.072586384
0.041343803,0.796559977,0.089404846,0.072691374
0.04138769,0.796360365,0.089455638,0.072796308
0.041431665,0.796160785,0.089506364,0.072901185
0.041475726,0.795961238,0.089557028,0.073006008
0.041519875,0.795761719,0.089607629,0.073110777
0.041564111,0.795562227,0.08965817,0.073215492
0.041608436,0.79536276,0.08970865,0.073320154
0.041652848,0.795163316,0.089759071,0.073424764
0.04169735,0.794963893,0.089809435,0.073529323
0.04174194,0.794764488,0.089859742,0.073633831
0.04178662,0.794565099,0.089909993,0.073738289
0.041831389,0.794365725,0.089960189,0.073842697
0.041876247,0.794166362,0.090010333,0.073947058
0.041921197,0.793967008,0.090060424,0.074051371
0.041966236,0.793767661,0.090110466,0.074155637
0.042011367,0.793568318,0.090160458,0.074259857
0.042056589,0.793368977,0.090210402,0.074364032
0.042101903,0.793169635,0.090260299,0.074468163
0.042147309,0.792970289,0.090310152,0.07457225
0.042192807,0.792770937,0.090359961,0.074676295
0.042238398,0.792571577,0.090409727,0.074780298
0.042284082,0.792372206,0.090459452,0.07488426
0.04232986,0.792172822,0.090509137,0.074988182
0.042375731,0.791973422,0.090558782,0.075092065
0.042421696,0.791774003,0.09060839,0.07519591
0.042467756,0.791574564,0.090657962,0.075299718
0.04251391,0.791375101,0.090707498,0.07540349
0.04256016,0.791175613,0.090757,0.075507227
0.042606506,0.790976096,0.09080647,0.075610929
0.042652947,0.790776548,0.090855907,0.075714598
0.042699484,0.790576968,0.090905314,0.075818234
0.042746118,0.790377352,0.090954692,0.075921838
0.042792849,0.790177699,0.091004041,0.076025411
0.042839677,0.789978007,0.091053362,0.076128954
0.042886603,0.789778274,0.091102657,0.076232466
0.042933626,0.789578498,0.091151927,0.076335949
0.042980747,0.789378678,0.091201171,0.076439404
0.043027966,0.789178813,0.091250391,0.07654283
0.043075283,0.7889789,0.091299588,0.076646229
0.043122699,0.788778939,0.091348761,0.076749601
0.043170214,0.788578927,0.091397913,0.076852946
0.043217827,0.788378864,0.091447043,0.076956266
0.043265539,0.788178747,0.091496152,0.077059561
0.043313351,0.787978576,0.091545242,0.077162831
0.043361263,0.787778348,0.091594311,0.077266078
0.043409275,0.787578061,0.091643362,0.077369302
0.043457387,0.787377714,0.091692395,0.077472504
0.0435056,0.787177305,0.09174141,0.077575685
0.043553915,0.786976832,0.091790408,0.077678845
0.043602331,0.786776294,0.091839391,0.077781985
0.043650849,0.786575687,0.091888358,0.077885107
0.043699469,0.78637501,0.09193731,0.077988211
0.043748193,0.786174261,0.091986248,0.078091297
0.04379702,0.785973439,0.092035174,0.078194367
0.043845951,0.785772541,0.092084086,0.078297421
0.043894987,0.785571566,0.092132986,0.078400461
0.043944128,0.785370512,0.092181875,0.078503486
0.043993374,0.785169376,0.092230752,0.078606497
0.044042727,0.784968158,0.092279619,0.078709497
0.044092186,0.784766854,0.092328476,0.078812484
0.044141752,0.784565463,0.092377324,0.078915461
0.044191427,0.784363983,0.092426163,0.079018427
0.04424121,0.784162412,0.092474995,0.079121384
0.044291101,0.783960747,0.092523819,0.079224332
0.044341103,0.783758987,0.092572638,0.079327272
0.044391216,0.783557128,0.09262145,0.079430206
0.044441439,0.783355169,0.092670258,0.079533134
0.044491775,0.783153107,0.092719062,0.079636056
0.044542223,0.78295094,0.092767862,0.079738975
0.044592785,0.782748665,0.092816661,0.07984189
0.044643461,0.782546279,0.092865457,0.079944803
0.044694251,0.78234378,0.092914253,0.080047715
0.044745156,0.782141166,0.09296305,0.080150628
0.044796178,0.781938433,0.093011847,0.080253542
0.044847316,0.781735579,0.093060647,0.080356458
0.044898571,0.781532601,0.093109449,0.080459379
0.044949945,0.781329495,0.093158256,0.080562304
0.045001437,0.781126258,0.093207069,0.080665237
0.045053048,0.780922888,0.093255887,0.080768177
0.045104779,0.780719381,0.093304712,0.080871127
0.045156631,0.780515735,0.093353546,0.080974088
0.045208604,0.780311945,0.093402389,0.081077062
0.045260699,0.780108008,0.093451243,0.081180049
0.045312918,0.779903923,0.093500108,0.081283052
0.045365259,0.779699684,0.093548986,0.081386071
0.045417725,0.779495289,0.093597877,0.081489109
0.045470316,0.779290735,0.093646782,0.081592166
0.045523032,0.779086019,0.093695703,0.081695245
0.045575875,0.778881136,0.093744641,0.081798347
0.045628846,0.778676085,0.093793596,0.081901473
0.045681944,0.778470861,0.09384257,0.082004625
0.045735171,0.778265462,0.093891563,0.082107804
0.045788528,0.778059885,0.093940577,0.082211011
0.045842015,0.777854125,0.093989612,0.082314248
0.045895634,0.77764818,0.094038669,0.082417517
0.045949384,0.777442046,0.09408775,0.082520819
0.046003268,0.77723572,0.094136857,0.082624156
0.046057286,0.777029197,0.094185989,0.082727528
0.046111438,0.776822476,0.094235148,0.082830938
0.046165726,0.776615551,0.094284334,0.082934388
0.046220151,0.776408421,0.09433355,0.083037878
0.046274714,0.776201081,0.094382795,0.08314141
0.046329416,0.775993528,0.09443207,0.083244987
0.046384258,0.775785758,0.094481376,0.083348608
0.04643924,0.775577769,0.094530713,0.083452277
0.046494365,0.775369558,0.094580083,0.083555994
0.046549633,0.775161119,0.094629486,0.083659762
0.046605046,0.774952451,0.094678922,0.08376358
0.046660604,0.774743551,0.094728393,0.083867452
0.046716309,0.774534413,0.094777899,0.083971378
0.046772162,0.774325036,0.094827442,0.08407536
0.046828164,0.774115416,0.094877021,0.084179399
0.046884316,0.773905549,0.094926639,0.084283497
0.04694062,0.77369543,0.094976295,0.084387655
0.046997076,0.773485057,0.095025992,0.084491875
0.047053686,0.773274425,0.095075731,0.084596158
0.04711045,0.773063531,0.095125513,0.084700506
0.047167372,0.77285237,0.095175339,0.08480492
0.04722445,0.772640938,0.09522521,0.084909401
0.047281687,0.772429234,0.095275127,0.085013952
0.047339083,0.772217253,0.095325091,0.085118573
0.04739664,0.772004993,0.095375101,0.085223266
0.047454358,0.771792452,0.095425159,0.085328031
0.047512238,0.771579627,0.095475265,0.08543287
0.165262482,0.386348606,0.194137759,0.254251152
0.165381971,0.386100365,0.194150935,0.254366728
0.165502015,0.385850359,0.194165073,0.254482553
0.165622605,0.385598605,0.194180169,0.254598621
0.165743732,0.385345124,0.194196217,0.254714927
0.165865388,0.385089937,0.194213212,0.254831463
0.165987563,0.384833067,0.194231147,0.254948223
0.166110248,0.384574535,0.194250018,0.255065199
0.166233435,0.384314363,0.194269818,0.255182383
0.166357116,0.384052572,0.194290544,0.255299768
0.166481282,0.383789183,0.194312189,0.255417345
0.166605926,0.383524221,0.194334748,0.255535105
0.166731038,0.383257706,0.194358216,0.255653039
0.166856611,0.382989663,0.194382588,0.255771138
0.166982636,0.382720111,0.194407861,0.255889392
0.167109105,0.382449069,0.194434034,0.256007791
0.16723601,0.382176556,0.194461108,0.256126325
0.167363344,0.381902586,0.194489086,0.256244984
0.167491098,0.381627176,0.194517971,0.256363755
0.167619265,0.38135034,0.194547768,0.256482626
0.167747836,0.381072095,0.194578483,0.256601586
0.167876801,0.380792457,0.194610122,0.256720619
0.168006152,0.38051144,0.194642695,0.256839713
0.168135876,0.380229058,0.194676215,0.256958851
0.168265965,0.379945319,0.194710696,0.25707802
0.16839641,0.37966023,0.194746156,0.257197204
0.1685272,0.379373796,0.194782612,0.257316392
0.168658327,0.379086019,0.194820086,0.257435568
0.168789783,0.378796898,0.194858598,0.257554721
0.168921558,0.378506433,0.194898173,0.257673836
0.169053642,0.378214622,0.194938835,0.257792901
0.169186024,0.377921463,0.19498061,0.257911902
0.169318696,0.377626954,0.195023522,0.258030828
0.169451644,0.37733109,0.195067595,0.258149671
0.169584858,0.37703387,0.195112853,0.258268419
0.169718323,0.376735292,0.195159319,0.258387066
0.169852026,0.376435356,0.195207018,0.2585056
0.169985954,0.376134063,0.195255973,0.25862401
0.170120093,0.375831416,0.195306207,0.258742284
0.17025443,0.375527417,0.195357741,0.258860412
0.170388954,0.375222065,0.195410595,0.258978386
0.17052365,0.374915361,0.195464788,0.2590962
0.170658507,0.374607301,0.19552034,0.259213852
0.170793511,0.37429788,0.195577272,0.259331336
0.170928651,0.373987096,0.195635604,0.259448649
0.171063911,0.373674945,0.19569536,0.259565784
0.17119928,0.373361424,0.195756561,0.259682735
0.171334742,0.373046533,0.195819232,0.259799493
0.171470283,0.372730269,0.195883398,0.259916049
0.17160589,0.372412629,0.195949084,0.260032396
0.171741549,0.372093609,0.196016315,0.260148528
0.171877244,0.371773205,0.196085113,0.260264438
0.172012959,0.371451415,0.196155504,0.260380121
0.172148678,0.37112824,0.196227511,0.26049557
0.172284382,0.370803683,0.196301158,0.260610777
0.172420052,0.370477751,0.196376465,0.260725732
0.172555669,0.370150453,0.196453454,0.260840425
0.172691212,0.3698218,0.196532144,0.260954844
0.172826661,0.369491806,0.196612556,0.261068977
0.172961997,0.369160484,0.196694706,0.261182813
0.173097198,0.368827848,0.196778613,0.261296341
0.173232244,0.368493917,0.196864291,0.261409548
0.173367114,0.368158708,0.196951757,0.261522422
0.173501786,0.367822239,0.197041025,0.26163495
0.173636239,0.367484528,0.197132112,0.261747121
0.17377045,0.367145593,0.197225036,0.261858922
0.173904398,0.366805451,0.197319812,0.261970339
0.174038063,0.36646412,0.197416458,0.262081359
0.174171422,0.36612162,0.197514989,0.262191969
0.174304454,0.365777969,0.19761542,0.262302157
0.174437137,0.36543319,0.197717764,0.262411909
0.17456945,0.365087305,0.197822035,0.26252121
0.17470137,0.364740339,0.197928245,0.262630046
0.174832875,0.364392313,0.198036407,0.262738405
0.174963941,0.364043252,0.198146534,0.262846274
0.175094548,0.363693176,0.198258636,0.262953641
0.175224672,0.363342106,0.198372725,0.263060497
0.175354296,0.362990064,0.198488811,0.26316683
0.1754834,0.362637066,0.198606903,0.263272631
0.175611967,0.362283133,0.198727011,0.263377889
0.175739982,0.361928281,0.198849143,0.263482595
0.175867427,0.361572526,0.198973307,0.263586739
0.175994289,0.361215883,0.199099512,0.263690316
0.176120554,0.360858365,0.199227764,0.263793316
0.176246209,0.360499984,0.19935807,0.263895737
0.176371242,0.36014075,0.199490435,0.263997573
0.176495641,0.359780671,0.199624865,0.264098822
0.176619392,0.359419758,0.199761365,0.264199485
0.176742481,0.35905802,0.199899936,0.264299563
0.176864893,0.358695465,0.200040582,0.26439906
0.176986612,0.358332102,0.200183302,0.264497984
0.177107622,0.357967936,0.200328098,0.264596343
0.17722791,0.357602975,0.200474971,0.264694145
0.177347458,0.357237222,0.20062392,0.2647914
0.177466253,0.356870682,0.200774944,0.26488812
0.177584278,0.356503357,0.200928043,0.264984322
0.177701517,0.356135246,0.201083213,0.265080025
0.177817952,0.355766349,0.20124045,0.265175249
0.177933567,0.355396663,0.201399752,0.265270018
0.178048345,0.355026184,0.201561114,0.265364357
0.178162266,0.354654907,0.201724529,0.265458299
0.178275311,0.354282824,0.201889991,0.265551874
0.178387462,0.353909932,0.202057492,0.265645114
0.178498699,0.353536224,0.202227025,0.265738052
0.178609001,0.3531617,0.202398583,0.265830716
0.17871835,0.352786357,0.202572157,0.265923137
0.178826724,0.352410197,0.202747737,0.266015341
0.178934105,0.352033221,0.202925315,0.266107358
0.179040474,0.35165543,0.203104881,0.266199215
0.179145811,0.351276822,0.203286424,0.266290943
0.179250098,0.350897398,0.203469934,0.26638257
0.179353317,0.350517157,0.203655399,0.266474128
0.179455448,0.350136095,0.203842808,0.266565649
0.179556474,0.349754208,0.204032152,0.266657166
0.179656373,0.349371492,0.204223422,0.266748713
0.179755124,0.34898794,0.204416614,0.266840322
0.179852706,0.348603545,0.204611721,0.266932027
0.179949095,0.348218302,0.204808741,0.267023862
0.180044268,0.347832203,0.205007668,0.267115861
0.180138197,0.347445245,0.205208502,0.267208056
0.180230854,0.347057424,0.205411242,0.26730048
0.180322209,0.34666874,0.205615887,0.267393164
0.18041223,0.346279192,0.20582244,0.267486137
0.180500889,0.345888781,0.206030904,0.267579426
0.180588155,0.345497503,0.206241283,0.267673059
0.180673997,0.345105358,0.206453586,0.267767059
0.180758385,0.344712342,0.206667822,0.267861451
0.180841289,0.344318449,0.206884002,0.26795626
0.180922677,0.343923676,0.207102133,0.268051514
0.181002521,0.343528014,0.207322224,0.268147241
0.181080789,0.343131456,0.207544282,0.268243473
0.181157455,0.342733992,0.207768314,0.268340239
0.181232489,0.342335613,0.207994326,0.268437572
0.181305865,0.341936309,0.208222324,0.268535503
0.181377556,0.341536072,0.208452312,0.268634061
0.181447539,0.341134895,0.208684292,0.268733275
0.181515789,0.340732773,0.208918266,0.268833173
0.181582282,0.340329703,0.209154235,0.26893378
0.181646997,0.339925684,0.2093922,0.269035119
0.181709912,0.339520717,0.209632157,0.269137214
0.181771006,0.339114802,0.209874107,0.269240085
0.18183026,0.338707941,0.210118046,0.269343753
0.181887656,0.338300136,0.210363973,0.269448236
0.181943175,0.33789139,0.210611883,0.269553553
0.1819968,0.337481708,0.210861771,0.26965972
0.182048513,0.337071099,0.211113632,0.269766755
0.182098298,0.336659569,0.211367459,0.269874674
0.18214614,0.336247127,0.211623243,0.26998349
0.182192023,0.335833782,0.211880977,0.270093219
0.182235935,0.335419542,0.212140654,0.270203869
0.182277865,0.335004419,0.212402265,0.270315451
0.182317805,0.334588424,0.2126658,0.270427971
0.182355745,0.334171571,0.212931251,0.270541434
0.18239168,0.333753874,0.213198604,0.270655843
0.182425604,0.333335347,0.213467848,0.270771202
0.182457517,0.332916003,0.213738967,0.270887513
0.182487419,0.332495859,0.214011945,0.271004778
0.182515313,0.332074931,0.214286762,0.271122994
0.182541204,0.33165324,0.214563397,0.271242158
0.182565095,0.331230808,0.21484183,0.271362268
0.182586987,0.330807652,0.21512204,0.271483322
0.182606881,0.33038379,0.215404011,0.271605318
0.182624779,0.329959241,0.215687728,0.271728252
0.182640678,0.329534023,0.215973177,0.271852121
0.182654579,0.329108156,0.216260343,0.271976922
0.182666479,0.328681658,0.216549209,0.272102654
0.182676378,0.328254546,0.216839757,0.272229319
0.182684273,0.32782684,0.217131969,0.272356918
0.182690161,0.327398557,0.217425829,0.272485453
0.182694037,0.326969714,0.217721319,0.272614931
0.182695894,0.326540325,0.218018422,0.272745358
0.182695728,0.326110406,0.21831712,0.272876746
0.182693531,0.325679972,0.218617392,0.273009105
0.182689297,0.325249036,0.218919217,0.27314245
0.182683018,0.324817613,0.219222572,0.273276797
0.182674688,0.324385718,0.219527435,0.27341216
0.182664299,0.323953365,0.219833784,0.273548551
0.182651846,0.323520567,0.220141603,0.273685985
0.182637319,0.323087336,0.220450874,0.27382447
0.182620713,0.322653681,0.220761587,0.273964019
0.182602016,0.322219609,0.221073732,0.274104642
0.182581222,0.321785126,0.221387302,0.27424635
0.182558323,0.321350235,0.221702289,0.274389152
0.182533313,0.320914941,0.222018687,0.27453306
0.182506182,0.320479246,0.222336492,0.27467808
0.182476923,0.320043148,0.22265571,0.27482422
0.182445526,0.31960664,0.222976352,0.274971483
0.182411979,0.319169715,0.223298434,0.275119872
0.182376272,0.318732361,0.223621977,0.27526939
0.182338393,0.318294569,0.223946998,0.27542004
0.182298332,0.317856331,0.224273515,0.275571822
0.182256079,0.31741764,0.224601544,0.275724737
0.182211622,0.316978487,0.224931101,0.275878789
0.182164951,0.316538867,0.225262202,0.27603398
0.182116053,0.316098769,0.225594862,0.276190316
0.182064918,0.315658183,0.225929096,0.276347803
0.18201153,0.315217098,0.226264925,0.276506448
0.181955876,0.314775501,0.226602369,0.276666253
0.181897943,0.314333381,0.226941452,0.276827224
0.181837715,0.313890725,0.227282196,0.276989364
0.181775176,0.313447518,0.227624622,0.277152684
0.181710309,0.313003744,0.227968751,0.277317196
0.181643094,0.312559384,0.228314608,0.277482914
0.181573512,0.312114422,0.228662215,0.277649852
0.181501542,0.311668839,0.229011595,0.277818024
0.181427164,0.311222622,0.22936277,0.277987444
0.181350359,0.310775758,0.229715759,0.278158124
0.181271107,0.310328237,0.230070579,0.278330077
0.181189392,0.309880051,0.230427244,0.278503313
0.181105195,0.309431193,0.230785768,0.278677843
0.181018501,0.308981658,0.231146167,0.278853674
0.180929294,0.308531441,0.231508455,0.27903081
0.180837556,0.308080536,0.231872656,0.279209252
0.180743271,0.307628938,0.232238794,0.279388997
0.180646423,0.307176641,0.232606895,0.279570041
0.180546997,0.30672364,0.232976986,0.279752376
0.180444979,0.306269929,0.233349098,0.279935993
0.180340354,0.305815502,0.233723265,0.280120879
0.180233106,0.305360352,0.234099523,0.280307019
0.180123221,0.304904471,0.234477911,0.280494397
0.180010684,0.304447853,0.234858467,0.280682995
0.179895484,0.303990494,0.235241226,0.280872796
0.179777606,0.303532388,0.235626221,0.281063785
0.179657038,0.303073535,0.23601348,0.281255947
0.17953377,0.302613935,0.23640303,0.281449266
0.179407791,0.302153588,0.236794894,0.281643727
0.179279093,0.301692497,0.237189093,0.281839317
0.17914767,0.301230662,0.237585644,0.282036025
0.179013514,0.300768082,0.237984563,0.282233841
0.178876619,0.300304753,0.238385868,0.282432759
0.178736981,0.299840672,0.238789577,0.282632771
0.178594592,0.299375831,0.239195708,0.28283387
0.178449447,0.298910225,0.239604282,0.283036046
0.178301542,0.298443847,0.240015318,0.283239293
0.178150872,0.297976689,0.240428839,0.283443599
0.177997435,0.297508743,0.240844869,0.283648954
0.177841225,0.297039995,0.241263435,0.283855346
0.177682238,0.296570429,0.241684572,0.284062761
0.177520471,0.296100031,0.242108311,0.284271188
0.177355919,0.295628782,0.242534686,0.284480614
0.177188578,0.295156666,0.242963731,0.284691026
0.177018445,0.294683665,0.243395479,0.284902411
0.176845517,0.294209764,0.243829964,0.285114755
0.176669792,0.293734946,0.244267216,0.285328045
0.17649127,0.293259199,0.244707265,0.285542266
0.176309951,0.292782511,0.245150133,0.285757405
0.176125839,0.29230487,0.245595842,0.285973448
0.175938938,0.291826269,0.246044408,0.286190385
0.175749256,0.291346698,0.246495844,0.286408202
0.175556801,0.290866151,0.246950157,0.286626891
0.175361584,0.290384623,0.247407352,0.286846441
0.175163615,0.289902114,0.24786743,0.287066841
0.174962908,0.289418624,0.248330387,0.287288081
0.174759479,0.288934158,0.248796218,0.287510146
0.174553346,0.288448718,0.249264913,0.287733023
0.174344532,0.287962309,0.249736462,0.287956697
0.174133058,0.287474939,0.250210854,0.28818115
0.173918948,0.286986612,0.250688076,0.288406364
0.173702227,0.286497337,0.251168117,0.288632319
0.17348292,0.286007123,0.251650963,0.288858994
0.173261055,0.285515978,0.252136598,0.289086369
0.173036658,0.285023911,0.252625005,0.289314426
0.172809759,0.284530932,0.253116164,0.289543144
0.172580387,0.284037051,0.253610057,0.289772505
0.17234857,0.283542279,0.254106663,0.290002488
0.172114339,0.283046628,0.254605961,0.290233072
0.171877723,0.282550113,0.255107931,0.290464233
0.171638754,0.282052748,0.255612548,0.29069595
0.171397464,0.28155455,0.256119786,0.2909282
0.171153884,0.281055539,0.256629617,0.29116096
0.170908046,0.280555733,0.257142017,0.291394204
0.170659984,0.280055152,0.257656958,0.291627907
0.17040973,0.279553816,0.258174415,0.291862039
0.170157316,0.279051751,0.258694359,0.292096574
0.169902776,0.278548979,0.259216765,0.292331481
0.169646139,0.278045526,0.259741604,0.29256673
0.169387438,0.277541415,0.260268854,0.292802292
0.169126702,0.277036671,0.26079849,0.293038137
0.16886396,0.276531316,0.261330485,0.293274239
0.168599242,0.276025374,0.261864812,0.293510573
0.168332573,0.275518865,0.262401447,0.293747114
0.168063981,0.275011812,0.26294037,0.293983837
0.167793489,0.274504232,0.263481564,0.294220716
0.167521118,0.273996145,0.264025014,0.294457723
0.167246891,0.273487572,0.264570703,0.294694835
0.166970826,0.272978537,0.265118614,0.294932024
0.166692942,0.272469069,0.265668725,0.295169264
0.166413255,0.271959199,0.266221018,0.295406528
0.166131782,0.271448962,0.26677547,0.295643786
0.16584854,0.270938392,0.267332061,0.295881007
0.165563545,0.270427524,0.267890769,0.296118162
0.165276814,0.269916394,0.268451571,0.296355221
0.164988364,0.269405038,0.269014445,0.296592154
0.164698212,0.268893491,0.269579367,0.29682893
0.164406378,0.268381791,0.270146313,0.297065518
0.164112877,0.267869975,0.270715259,0.297301889
0.163817729,0.267358079,0.271286178,0.297538013
0.163520953,0.266846142,0.271859042,0.297773863
0.163222568,0.266334199,0.272433821,0.298009411
0.162922594,0.265822287,0.273010484,0.298244636
0.162621052,0.265310438,0.273588997,0.298479513
0.162317963,0.264798686,0.274169329,0.298714022
0.162013347,0.264287062,0.274751449,0.298948142
0.161707225,0.263775596,0.275335324,0.299181854
0.161399618,0.26326432,0.275920923,0.299415139
0.161090545,0.262753264,0.27650821,0.299647982
0.160780025,0.26224246,0.277097149,0.299880366
0.16046808,0.261731942,0.277687704,0.300112274
0.160154726,0.261221745,0.278279838,0.300343691
0.159839984,0.2607119,0.278873516,0.3005746
0.159523872,0.26020244,0.279468704,0.300804985
0.15920641,0.259693396,0.280065364,0.301034829
0.158887618,0.259184801,0.280663463,0.301264117
0.158567516,0.258676685,0.281262966,0.301492833
0.158246124,0.258169078,0.281863838,0.30172096
0.157923461,0.257662011,0.282466046,0.301948483
0.157599546,0.257155512,0.283069557,0.302175385
0.157274399,0.256649612,0.283674339,0.30240165
0.156948035,0.256144342,0.284280366,0.302627257
0.156620474,0.255639731,0.28488761,0.302852185
0.156291731,0.255135811,0.285496048,0.30307641
0.155961824,0.254632612,0.286105656,0.303299908
0.155630767,0.254130165,0.286716413,0.303522654
0.155298577,0.253628503,0.287328298,0.303744622
0.154965267,0.253127655,0.287941295,0.303965783
0.154630851,0.25262765,0.288555393,0.304186106
0.154295342,0.252128515,0.28917058,0.304405563
0.153958753,0.25163028,0.289786842,0.304624125
0.153621098,0.251132971,0.290404164,0.304841767
0.153282389,0.250636616,0.291022531,0.305058464
0.15294264,0.250141241,0.291641925,0.305274194
0.152601864,0.249646875,0.292262326,0.305488935
0.152260075,0.249153541,0.292883713,0.305702671
0.151917286,0.248661265,0.293506062,0.305915387
0.151573511,0.248170071,0.294129347,0.306127071
0.151228763,0.247679982,0.29475354,0.306337716
0.150883054,0.247191019,0.295378615,0.306547312
0.150536399,0.246703208,0.296004542,0.306755851
0.150188809,0.246216579,0.296631289,0.306963323
0.149840298,0.245731165,0.297258822,0.307169715
0.149490879,0.245247002,0.297887103,0.307375016
0.149140565,0.244764125,0.298516097,0.307579213
0.148789372,0.24428257,0.299145765,0.307782294
0.148437313,0.243802369,0.299776072,0.307984245
0.148084404,0.243323554,0.300406989,0.308185053
0.14773066,0.242846156,0.301038485,0.3083847
0.147376095,0.242370202,0.301670534,0.30858317
0.147020725,0.241895721,0.302303107,0.308780447
0.146664566,0.241422741,0.30293618,0.308976514
0.146307633,0.240951291,0.303569725,0.309171352
0.145949939,0.240481399,0.304203719,0.309364943
0.145591501,0.240013092,0.304838138,0.309557269
0.145232332,0.239546401,0.305472953,0.309748314
0.144872447,0.239081352,0.306108137,0.309938064
0.144511859,0.238617974,0.306743659,0.310126507
0.144150582,0.238156295,0.307379492,0.310313631
0.143788629,0.237696343,0.308015606,0.310499423
0.143426011,0.237238146,0.308651971,0.310683871
0.143062741,0.236781738,0.309288556,0.310866965
0.14269883,0.236327154,0.309925322,0.311048694
0.142334287,0.235874436,0.310562229,0.311229049
0.141969122,0.235423624,0.311199231,0.311408024
0.141603343,0.234974759,0.311836279,0.311585619
0.14123696,0.234527883,0.312473323,0.311761835
0.140869979,0.234083037,0.313110313,0.311936672
0.140502408,0.233640264,0.313747202,0.312110127
0.140134254,0.233199605,0.314383945,0.312282196
0.139765526,0.2327611,0.315020499,0.312452875
0.139396232,0.232324789,0.315656821,0.312622158
0.139026378,0.231890711,0.316292867,0.312790044
0.138655974,0.231458902,0.316928592,0.312956532
0.138285026,0.231029396,0.31756395,0.313121628
0.137913542,0.230602225,0.31819889,0.313285342
0.137541531,0.230177424,0.318833359,0.313447686
0.137168999,0.229755023,0.319467303,0.313608675
0.136795951,0.229335056,0.320100663,0.31376833
0.136422392,0.228917558,0.320733377,0.313926673
0.136048323,0.228502564,0.321365385,0.314083728
0.135673748,0.22809011,0.321996624,0.314239518
0.135298668,0.227680238,0.322627031,0.314394063
0.134923085,0.22727299,0.323256542,0.314547383
0.134546999,0.22686841,0.323885097,0.314699494
0.13417041,0.226466543,0.324512635,0.314850412
0.133793316,0.226067434,0.325139101,0.315000149
0.133415717,0.225671129,0.325764439,0.315148715
0.133037613,0.225277677,0.326388593,0.315296117
0.132659005,0.224887124,0.327011506,0.315442365
0.132279894,0.224499517,0.327633122,0.315587467
0.13190028,0.224114899,0.32825339,0.315731431
0.131520166,0.223733315,0.32887226,0.31587426
0.13113955,0.223354807,0.329489689,0.316015954
0.130758434,0.22297942,0.330105638,0.316156508
0.130376817,0.222607199,0.330720072,0.316295913
0.129994697,0.222238191,0.331332954,0.316434158
0.129612075,0.221872446,0.331944249,0.31657123
0.129228949,0.221510012,0.332553924,0.316707115
0.12884532,0.221150942,0.333161939,0.316841799
0.128461185,0.220795292,0.333768254,0.31697527
0.128076543,0.220443121,0.334372825,0.317107512
0.12769139,0.220094489,0.334975611,0.31723851
0.127305725,0.219749452,0.335576575,0.317368248
0.126919543,0.219408066,0.336175676,0.317496715
0.12653284,0.21907038,0.336772875,0.317623905
0.126145611,0.218736442,0.337368131,0.317749816
0.125757854,0.218406297,0.337961402,0.317874447
0.125369567,0.218079988,0.338552645,0.3179978
0.124980749,0.217757556,0.339141821,0.318119874
0.124591399,0.217439037,0.339728892,0.318240672
0.124201518,0.217124465,0.340313825,0.318360193
0.123811105,0.216813867,0.340896589,0.318478439
0.123420162,0.216507266,0.341477159,0.318595412
0.12302869,0.216204683,0.342055515,0.318711112
0.122636687,0.215906135,0.342631638,0.318825541
0.122244154,0.215611637,0.343205513,0.318938695
0.121851092,0.215321205,0.34377713,0.319050574
0.121457499,0.215034847,0.344346482,0.319161172
0.121063374,0.214752569,0.344913575,0.319270482
0.120668716,0.214474371,0.34547842,0.319378493
0.120273524,0.214200252,0.346041029,0.319485195
0.119877799,0.213930208,0.346601416,0.319590577
0.119481541,0.213664237,0.34715959,0.319694632
0.119084752,0.213402334,0.347715561,0.319797352
0.118687434,0.213144493,0.348269343,0.31989873
0.118289589,0.212890703,0.348820951,0.319998757
0.117891218,0.212640953,0.349370407,0.320097423
0.117492324,0.212395228,0.349917732,0.320194716
0.117092909,0.212153514,0.350462952,0.320290626
0.116692976,0.211915797,0.351006089,0.320385138
0.116292529,0.211682065,0.351547169,0.320478237
0.115891569,0.211452304,0.352086219,0.320569907
0.115490099,0.211226505,0.352623262,0.320660133
0.11508812,0.211004659,0.353158319,0.320748902
0.114685636,0.210786758,0.353691405,0.320836201
0.11428265,0.210572793,0.354222534,0.320922022
0.113879166,0.210362758,0.354751717,0.321006358
0.113475189,0.210156645,0.355278963,0.321089203
0.113070725,0.209954449,0.355804277,0.321170549
0.112665779,0.209756164,0.356327664,0.321250393
0.11226036,0.209561784,0.356849128,0.321328728
0.111854476,0.2093713,0.357368673,0.321405551
0.111448136,0.2091847,0.357886303,0.321480862
0.11104135,0.209001971,0.358402017,0.321554661
0.110634132,0.208823099,0.358915815,0.321626954
0.110226492,0.208648068,0.359427695,0.321697746
0.109818444,0.20847686,0.359937654,0.321767042
0.109410004,0.208309458,0.360445688,0.32183485
0.109001185,0.208145843,0.360951792,0.321901181
0.108592003,0.207985994,0.361455956,0.321966047
0.108182473,0.207829891,0.361958172,0.322029464
0.107772613,0.207677513,0.362458432,0.322091442
0.107362436,0.207528846,0.362956732,0.322151986
0.10695196,0.207383873,0.363453066,0.322211101
0.106541201,0.207242583,0.363947427,0.322268789
0.106130175,0.207104969,0.36443981,0.322325046
0.105718897,0.206971027,0.364930206,0.32237987
0.105307383,0.206840755,0.365418607,0.322433256
0.104895647,0.206714149,0.365905,0.322485205
0.104483705,0.206591206,0.366389373,0.322535716
0.104071572,0.206471922,0.366871714,0.322584792
0.103659265,0.20635629,0.367352004,0.322632441
0.1032468,0.206244303,0.367830226,0.322678671
0.102834194,0.206135955,0.368306358,0.322723493
0.102421465,0.206031236,0.368780381,0.322766918
0.102008632,0.205930137,0.369252274,0.322808957
0.101595714,0.205832649,0.369722017,0.32284962
0.101182731,0.205738761,0.370189587,0.322888921
0.100769705,0.205648461,0.370654961,0.322926873
0.100356657,0.205561735,0.371118115,0.322963493
0.099943609,0.205478569,0.371579025,0.322998797
0.099530584,0.205398947,0.372037668,0.323032802
0.099117606,0.205322849,0.372494021,0.323065524
0.098704698,0.205250259,0.372948059,0.323096984
0.098291884,0.205181158,0.37339976,0.323127199
0.097879189,0.205115528,0.373849098,0.323156186
0.097466636,0.205053351,0.374296052,0.323183961
0.097054252,0.204994611,0.374740599,0.323210537
0.09664206,0.204939294,0.37518272,0.323235927
0.096230083,0.204887385,0.375622393,0.32326014
0.095818343,0.204838873,0.376059598,0.323283185
0.095406863,0.20479375,0.376494316,0.323305072
0.094995662,0.204752007,0.376926523,0.323325808
0.094584763,0.204713633,0.377356199,0.323345405
0.094174185,0.204678616,0.377783327,0.323363872
0.093763948,0.204646941,0.378207896,0.323381216
0.093354071,0.204618591,0.378629899,0.323397439
0.092944575,0.204593548,0.379049335,0.323412542
0.092535478,0.204571795,0.379466203,0.323426525
0.0921268,0.204553312,0.379880502,0.323439386
0.091718563,0.204538081,0.380292231,0.323451124
0.091310786,0.204526084,0.38070139,0.323461741
0.090903488,0.204517296,0.381107976,0.32347124
0.090496691,0.204511692,0.381511988,0.32347963
0.090090413,0.204509244,0.381913423,0.32348692
0.089684674,0.204509919,0.382312282,0.323493126
0.089279493,0.204513683,0.382708561,0.323498263
0.088874889,0.204520504,0.38310226,0.323502347
0.088470882,0.204530348,0.383493376,0.323505394
0.088067492,0.204543185,0.383881905,0.323507418
0.087664737,0.204558985,0.384267842,0.323508436
0.087262638,0.204577719,0.384651181,0.323508462
0.086861214,0.204599361,0.385031909,0.323507515
0.086460485,0.204623884,0.385410017,0.323505613
0.086060471,0.204651262,0.385785491,0.323502776
0.08566119,0.204681467,0.386158317,0.323499026
0.085262663,0.204714472,0.38652848,0.323494386
0.084864908,0.204750248,0.386895967,0.323488877
0.084467945,0.204788769,0.387260764,0.323482522
0.084071794,0.204830008,0.387622857,0.323475341
0.083676475,0.204873937,0.387982235,0.323467352
0.083282008,0.204920533,0.388338886,0.323458573
0.082888412,0.204969772,0.388692797,0.323449019
0.082495706,0.205021631,0.38904396,0.323438703
0.082103909,0.205076092,0.389392362,0.323427636
0.08171304,0.20513314,0.389737993,0.323415827
0.081323115,0.205192761,0.390080842,0.323403283
0.080934152,0.205254941,0.390420896,0.323390011
0.080546169,0.205319668,0.390758144,0.323376019
0.080159183,0.205386926,0.391092575,0.323361316
0.07977321,0.2054567,0.391424172,0.323345918
0.079388267,0.205528974,0.391752916,0.323329844
0.079004369,0.205603733,0.392078783,0.323313115
0.078621531,0.205680964,0.392401751,0.323295754
