0.183972863,0.190941325,0.269762048,0.355323764
0.184029937,0.191042491,0.269792579,0.355134993
0.184087037,0.191144158,0.269823983,0.354944822
0.184144164,0.191246324,0.269856267,0.354753245
0.184201317,0.191348989,0.269889439,0.354560256
0.184258498,0.191452148,0.269923505,0.354365849
0.184315709,0.191555802,0.269958472,0.354170018
0.18437295,0.191659946,0.269994347,0.353972757
0.184430222,0.191764579,0.270031137,0.353774062
0.184487527,0.191869699,0.270068849,0.353573925
0.184544867,0.191975303,0.27010749,0.353372341
0.184602242,0.192081387,0.270147066,0.353169305
0.184659654,0.19218795,0.270187584,0.352964812
0.184717105,0.192294987,0.270229052,0.352758857
0.184774595,0.192402496,0.270271475,0.352551435
0.184832126,0.192510472,0.270314861,0.352342541
0.1848897,0.192618911,0.270359217,0.352132172
0.184947317,0.192727811,0.27040455,0.351920322
0.185004979,0.192837166,0.270450868,0.351706988
0.185062687,0.192946973,0.270498176,0.351492164
0.185120444,0.193057228,0.270546482,0.351275845
0.185178252,0.193167929,0.270595792,0.351058027
0.185236112,0.193279071,0.270646113,0.350838704
0.185294027,0.193390651,0.270697451,0.35061787
0.185351999,0.193502666,0.270749813,0.350395521
0.185410031,0.193615111,0.270803206,0.350171652
0.185468126,0.193727982,0.270857637,0.349946256
0.185526285,0.193841276,0.270913112,0.349719328
0.185584512,0.193954987,0.270969639,0.349490862
0.185642809,0.194069112,0.271027226,0.349260853
0.18570118,0.194183646,0.271085881,0.349029293
0.185759625,0.194298585,0.271145613,0.348796177
0.185818148,0.194413922,0.271206431,0.348561498
0.18587675,0.194529654,0.271268346,0.34832525
0.185935433,0.194645775,0.271331368,0.348087424
0.1859942,0.194762279,0.271395507,0.347848014
0.186053052,0.194879161,0.271460775,0.347607012
0.186111991,0.194996418,0.271527181,0.34736441
0.186171018,0.195114043,0.271594737,0.347120203
0.186230136,0.195232032,0.271663451,0.346874381
0.186289345,0.195350382,0.271733334,0.346626939
0.186348648,0.195469086,0.271804397,0.346377869
0.186408046,0.195588142,0.271876649,0.346127163
0.186467542,0.195707542,0.271950101,0.345874815
0.186527136,0.195827284,0.272024763,0.345620817
0.18658683,0.195947362,0.272100645,0.345365163
0.186646627,0.19606777,0.272177758,0.345107844
0.186706528,0.196188505,0.272256112,0.344848855
0.186766535,0.196309561,0.272335717,0.344588188
0.186826651,0.196430932,0.272416582,0.344325836
0.186886877,0.196552613,0.272498718,0.344061791
0.186947217,0.1966746,0.272582136,0.343796048
0.187007671,0.196796886,0.272666844,0.343528599
0.187068242,0.196919468,0.272752854,0.343259437
0.187128932,0.197042338,0.272840174,0.342988555
0.187189745,0.197165494,0.272928815,0.342715946
0.187250681,0.197288929,0.273018787,0.342441603
0.187311743,0.197412639,0.273110099,0.342165519
0.187372933,0.197536619,0.273202762,0.341887686
0.187434254,0.197660864,0.273296784,0.341608097
0.187495707,0.19778537,0.273392177,0.341326746
0.187557294,0.197910132,0.273488951,0.341043623
0.187619017,0.198035145,0.273587115,0.340758723
0.187680878,0.198160406,0.273686679,0.340472036
0.187742879,0.198285911,0.273787655,0.340183556
0.18780502,0.198411655,0.273890051,0.339893275
0.187867303,0.198537636,0.273993878,0.339601183
0.187929729,0.198663852,0.274099146,0.339307273
0.187992301,0.1987903,0.274205865,0.339011534
0.188055019,0.198916979,0.274314045,0.338713957
0.188117884,0.199043889,0.274423695,0.338414532
0.188180897,0.199171027,0.274534828,0.338113248
0.188244058,0.199298393,0.274647456,0.337810093
0.188307367,0.199425986,0.274761591,0.337505055
0.188370825,0.199553804,0.274877249,0.337198122
0.188434434,0.199681843,0.274994441,0.336889281
0.188498195,0.199810102,0.275113183,0.33657852
0.188562111,0.199938578,0.275233488,0.336265824
0.188626182,0.200067271,0.275355368,0.33595118
0.18869041,0.200196178,0.275478837,0.335634575
0.188754798,0.200325301,0.275603908,0.335315994
0.188819346,0.200454637,0.275730594,0.334995423
0.188884056,0.200584188,0.275858906,0.334672849
0.188948932,0.200713954,0.275988858,0.334348257
0.189013973,0.200843934,0.27612046,0.334021633
0.189079184,0.200974128,0.276253724,0.333692963
0.189144567,0.201104537,0.276388662,0.333362234
0.189210125,0.20123516,0.276525283,0.333029432
0.189275859,0.201365998,0.276663599,0.332694544
0.189341775,0.201497048,0.276803621,0.332357556
0.189407873,0.201628311,0.276945359,0.332018457
0.189474157,0.201759787,0.277088824,0.331677232
0.189540631,0.201891474,0.277234026,0.331333869
0.189607297,0.202023371,0.277380975,0.330988357
0.189674157,0.202155477,0.277529682,0.330640684
0.189741216,0.20228779,0.277680157,0.330290837
0.189808474,0.20242031,0.27783241,0.329938806
0.189875935,0.202553033,0.27798645,0.329584581
0.189943602,0.202685959,0.278142289,0.32922815
0.190011476,0.202819085,0.278299934,0.328869505
0.190079561,0.202952407,0.278459396,0.328508637
0.190147856,0.203085923,0.278620684,0.328145537
0.190216366,0.203219628,0.27878381,0.327780196
0.190285091,0.20335352,0.278948783,0.327412605
0.190354033,0.203487595,0.279115616,0.327042756
0.190423193,0.203621849,0.27928432,0.326670639
0.190492573,0.20375628,0.279454904,0.326296244
0.190562174,0.203890886,0.279627379,0.325919561
0.190631997,0.204025666,0.279801755,0.325540582
0.190702045,0.204160617,0.279978043,0.325159295
0.19077232,0.204295738,0.280156253,0.324775689
0.190842827,0.204431024,0.280336395,0.324389754
0.190913571,0.204566473,0.280518477,0.324001479
0.190984558,0.20470208,0.280702511,0.323610851
0.191055793,0.204837844,0.280888504,0.323217859
0.191127281,0.204973758,0.281076468,0.322822492
0.19119903,0.205109821,0.281266412,0.322424737
0.191271045,0.205246025,0.281458347,0.322024583
0.191343331,0.205382369,0.281652281,0.321622019
0.191415894,0.205518845,0.281848226,0.321217035
0.191488741,0.20565545,0.28204619,0.320809619
0.191561877,0.205792179,0.282246184,0.32039976
0.191635308,0.205929026,0.282448216,0.31998745
0.19170904,0.206065987,0.282652296,0.319572677
0.191783078,0.206203057,0.282858432,0.319155434
0.191857427,0.20634023,0.283066634,0.318735709
0.191932094,0.206477502,0.283276912,0.318313493
0.192007081,0.206614869,0.283489276,0.317888774
0.192082395,0.206752326,0.283703737,0.317461542
0.192158043,0.206889868,0.283920304,0.317031786
0.192234031,0.20702749,0.284138987,0.316599492
0.192310366,0.207165186,0.284359798,0.316164649
0.192387057,0.207302953,0.284582748,0.315727242
0.192464109,0.207440785,0.284807851,0.315287254
0.192541528,0.207578681,0.285035123,0.314844668
0.192619323,0.207716636,0.285264577,0.314399465
0.192697501,0.207854647,0.285496226,0.313951626
0.192776072,0.20799271,0.285730084,0.313501134
0.192855045,0.208130822,0.285966161,0.313047972
0.19293443,0.208268978,0.286204469,0.312592124
0.193014237,0.208407174,0.286445016,0.312133572
0.193094477,0.208545408,0.286687815,0.3116723
0.193175158,0.208683676,0.286932876,0.311208289
0.193256289,0.208821978,0.287180213,0.310741521
0.193337877,0.208960309,0.28742984,0.310271974
0.193419933,0.209098665,0.287681774,0.309799627
0.193502467,0.209237042,0.287936033,0.309324459
0.193585487,0.20937543,0.288192633,0.308846449
0.193669005,0.209513823,0.288451596,0.308365576
0.19375303,0.209652212,0.288712942,0.307881815
0.193837569,0.209790591,0.288976698,0.307395142
0.193922634,0.20992895,0.289242888,0.306905528
0.194008233,0.21006728,0.28951154,0.306412947
0.194094378,0.210205573,0.289782678,0.305917371
0.194181079,0.210343816,0.290056327,0.305418778
0.194268346,0.210482,0.290332509,0.304917145
0.19435619,0.210620113,0.290611247,0.304412451
0.194444622,0.210758142,0.290892558,0.303904678
0.194533652,0.210896078,0.291176462,0.303393808
0.194623288,0.211033908,0.291462978,0.302879826
0.194713539,0.211171621,0.291752127,0.302362713
0.194804411,0.211309203,0.292043934,0.301842453
0.19489591,0.211446641,0.292338422,0.301319028
0.194988043,0.211583921,0.292635615,0.30079242
0.195080816,0.211721033,0.292935539,0.300262612
0.195174231,0.211857967,0.293238219,0.299729582
0.195268296,0.211994711,0.293543683,0.29919331
0.195363017,0.212131254,0.293851958,0.29865377
0.195458405,0.212267584,0.294163069,0.298110942
0.195554467,0.212403687,0.294477043,0.297564803
0.195651215,0.21253955,0.294793903,0.297015333
0.195748658,0.212675157,0.295113674,0.296462511
0.195846809,0.212810493,0.295436382,0.295906316
0.195945681,0.212945542,0.295762049,0.295346727
0.196045292,0.213080284,0.296090702,0.294783722
0.196145657,0.213214701,0.296422364,0.294217278
0.19624679,0.213348774,0.296757061,0.293647375
0.196348709,0.213482481,0.297094818,0.293073992
0.196451429,0.2136158,0.297435661,0.29249711
0.19655497,0.213748708,0.297779613,0.29191671
0.196659351,0.213881178,0.298126694,0.291332777
0.196764595,0.214013188,0.298476922,0.290745295
0.196870723,0.214144714,0.298830314,0.290154249
0.196977757,0.21427573,0.299186884,0.289559629
0.197085718,0.214406213,0.29954664,0.288961429
0.197194626,0.214536135,0.299909591,0.288359648
0.197304506,0.21466547,0.30027574,0.287754284
0.197415378,0.214794193,0.300645088,0.287145341
0.197527266,0.214922279,0.301017631,0.286532824
0.197640191,0.215049703,0.301393364,0.285916742
0.197754171,0.215176441,0.301772282,0.285297106
0.197869226,0.215302466,0.302154374,0.284673934
0.19798537,0.215427752,0.302539634,0.284047244
0.198102621,0.21555227,0.30292805,0.283417059
0.198220991,0.215675992,0.303319612,0.282783405
0.198340494,0.215798886,0.303714312,0.282146308
0.19846114,0.21592092,0.304112142,0.281505798
0.198582938,0.21604206,0.30451309,0.280861912
0.198705896,0.216162274,0.304917141,0.280214689
0.198830022,0.216281527,0.305324278,0.279564173
0.198955323,0.216399788,0.305734475,0.278910414
0.199081808,0.216517026,0.306147703,0.278253463
0.199209483,0.216633208,0.306563931,0.277593378
0.199338356,0.2167483,0.306983121,0.276930223
0.199468433,0.216862265,0.307405237,0.276264064
0.199599724,0.216975066,0.307830239,0.27559497
0.19973224,0.217086664,0.308258085,0.274923011
0.199865993,0.217197019,0.30868873,0.274248258
0.200000994,0.217306093,0.30912213,0.273570784
0.200137252,0.217413845,0.309558242,0.272890661
0.200274777,0.217520233,0.309997022,0.272207968
0.200413573,0.217625216,0.310438426,0.271522786
0.200553642,0.217728751,0.31088241,0.270835197
0.200694986,0.217830795,0.311328933,0.270145286
0.200837603,0.217931307,0.311777955,0.269453136
0.200981486,0.218030242,0.31222944,0.268758832
0.20112663,0.218127555,0.312683354,0.26806246
0.201273024,0.218223204,0.313139664,0.267364107
0.201420656,0.218317143,0.313598341,0.26666386
0.201569509,0.21840933,0.314059355,0.265961806
0.201719564,0.218499721,0.314522677,0.265258039
0.201870798,0.218588273,0.314988275,0.264552653
0.202023185,0.218674944,0.315456115,0.263845756
0.202176694,0.218759687,0.315926158,0.263137462
0.202331294,0.218842451,0.31639836,0.262427894
0.202486956,0.218923185,0.316872673,0.261717185
0.202643652,0.219001836,0.31734904,0.261005472
0.202801351,0.219078346,0.317827397,0.260292905
0.202960023,0.21915266,0.318307674,0.259579643
0.203119636,0.219224717,0.318789795,0.258865852
0.203280152,0.21929446,0.319273684,0.258151703
0.203441532,0.219361833,0.319759262,0.257437373
0.203603735,0.219426778,0.320246449,0.256723039
0.203766717,0.219489241,0.320735161,0.256008881
0.203930433,0.219549166,0.321225315,0.255295086
0.204094838,0.219606499,0.321716823,0.25458184
0.204259884,0.219661186,0.322209591,0.253869339
0.204425522,0.219713175,0.322703522,0.253157781
0.204591701,0.219762414,0.323198516,0.252447369
0.204758369,0.219808851,0.323694473,0.251738307
0.204925467,0.219852436,0.324191295,0.251030803
0.205092935,0.219893118,0.324688881,0.250325067
0.205260711,0.219930848,0.325187132,0.249621309
0.205428732,0.219965578,0.325685949,0.248919742
0.205596933,0.219997261,0.326185229,0.248220578
0.205765248,0.220025852,0.326684868,0.247524032
0.205933611,0.22005131,0.327184758,0.246830321
0.20610196,0.220073593,0.327684787,0.24613966
0.206270229,0.220092664,0.328184842,0.245452264
0.206438359,0.220108486,0.328684806,0.244768349
0.206606287,0.220121025,0.329184557,0.244088131
0.206773952,0.220130246,0.329683973,0.243411829
0.206941294,0.220136118,0.330182926,0.242739662
0.207108253,0.220138609,0.330681287,0.242071851
0.207274775,0.22013769,0.331178924,0.241408612
0.207440801,0.220133334,0.331675704,0.240750161
0.207606277,0.220125516,0.332171494,0.240096713
0.207771149,0.220114215,0.332666157,0.23944848
0.20793537,0.22009941,0.333159553,0.238805667
0.208098896,0.220081082,0.333651541,0.238168481
0.208261688,0.220059214,0.334141975,0.237537123
0.208423711,0.220033786,0.334630706,0.236911797
0.208584929,0.220004781,0.335117584,0.236292706
0.208745303,0.219972186,0.335602458,0.235680053
0.208904799,0.219935985,0.336085175,0.235074041
0.20906338,0.219896166,0.336565583,0.234474871
0.209221011,0.219852717,0.33704353,0.233882742
0.209377659,0.219805628,0.337518864,0.233297849
0.209533294,0.219754889,0.337991434,0.232720383
0.20968789,0.219700492,0.338461089,0.232150528
0.209841422,0.219642432,0.338927679,0.231588467
0.209993863,0.219580704,0.339391057,0.231034376
0.21014519,0.219515304,0.33985108,0.230488426
0.210295372,0.21944623,0.340307605,0.229950793
0.210444382,0.21937348,0.340760489,0.229421649
0.210592187,0.219297057,0.34120959,0.228901166
0.210738756,0.219216967,0.341654763,0.228389513
0.210884058,0.219133222,0.342095865,0.227886855
0.211028058,0.219045836,0.34253275,0.227393356
0.211170717,0.21895483,0.342965275,0.226909177
0.211311995,0.218860233,0.343393295,0.226434477
0.211451844,0.21876208,0.34381667,0.225969406
0.211590217,0.218660412,0.344235263,0.225514108
0.211727065,0.218555274,0.344648938,0.225068724
0.211862337,0.218446711,0.345057562,0.22463339
0.211995982,0.218334772,0.345461004,0.224208242
0.212127951,0.218219506,0.345859133,0.22379341
0.212258193,0.218100965,0.346251824,0.223389018
0.212386662,0.217979206,0.346638952,0.22299518
0.21251331,0.217854287,0.347020398,0.222612005
0.212638093,0.217726274,0.347396044,0.222239589
0.212760965,0.217595232,0.347765779,0.221878025
0.21288188,0.217461233,0.348129496,0.221527391
0.213000792,0.217324348,0.348487097,0.221187763
0.213117657,0.217184646,0.348838487,0.22085921
0.213232432,0.217042196,0.349183575,0.220541797
0.213345074,0.216897067,0.349522277,0.220235582
0.213455538,0.216749327,0.349854517,0.219940618
0.213563782,0.216599047,0.350180225,0.219656946
0.213669765,0.216446297,0.350499334,0.219384605
0.213773452,0.216291147,0.350811776,0.219123624
0.213874813,0.216133666,0.351117486,0.218874036
0.213973816,0.215973924,0.351416396,0.218635864
0.214070433,0.215811992,0.351708446,0.218409129
0.214164637,0.21564794,0.351993578,0.218193844
0.214256402,0.215481841,0.35227174,0.217990016
0.214345704,0.215313765,0.352542886,0.217797645
0.214432517,0.215143784,0.352806974,0.217616724
0.21451682,0.214971966,0.353063972,0.217447242
0.214598591,0.214798384,0.353313849,0.217289177
0.214677812,0.214623105,0.353556578,0.217142504
0.214754469,0.214446201,0.353792139,0.217007191
0.214828548,0.214267742,0.354020512,0.216883198
0.214900037,0.214087796,0.354241687,0.21677048
0.21496893,0.213906432,0.354455654,0.216668984
0.215035218,0.21372372,0.354662414,0.216578648
0.215098898,0.213539727,0.35486197,0.216499405
0.215159968,0.213354521,0.355054331,0.21643118
0.215218426,0.213168171,0.35523951,0.216373892
0.215274274,0.212980745,0.355417528,0.216327453
0.215327513,0.212792311,0.355588405,0.216291771
0.215378145,0.212602937,0.355752167,0.216266751
0.215426173,0.212412688,0.355908842,0.216252296
0.215471602,0.212221631,0.356058464,0.216248303
0.215514434,0.212029829,0.356201071,0.216254666
0.215554672,0.211837348,0.356336706,0.216271274
0.215592319,0.211644254,0.356465414,0.216298013
0.215627373,0.211450613,0.356587244,0.216334771
0.215659835,0.211256488,0.356702245,0.216381432
0.215689706,0.211061944,0.356810471,0.216437879
0.215716993,0.210867044,0.356911976,0.216503987
0.215741704,0.210671851,0.357006817,0.216579629
0.215763849,0.210476424,0.357095051,0.216664675
0.215783441,0.210280825,0.357176737,0.216758996
0.215800495,0.210085113,0.357251934,0.216862459
0.215815024,0.209889346,0.357320702,0.216974929
0.215827044,0.209693584,0.357383103,0.217096269
0.21583657,0.209497887,0.357439201,0.217226341
0.215843618,0.209302318,0.357489058,0.217365006
0.215848201,0.209106941,0.357532737,0.217512121
0.215850334,0.208911819,0.357570302,0.217667544
0.215850031,0.20871702,0.357601817,0.217831132
0.215847306,0.20852261,0.357627345,0.218002739
0.215842171,0.208328659,0.357646952,0.218182218
0.215834638,0.208135238,0.357660703,0.218369421
0.215824721,0.207942412,0.357668669,0.218564197
0.215812432,0.20775025,0.357670921,0.218766396
0.215797785,0.207558817,0.357667534,0.218975865
0.215780793,0.207368174,0.357658583,0.21919245
0.215761473,0.207178382,0.357644149,0.219415996
0.215739845,0.206989497,0.357624311,0.219646347
0.215715928,0.206801572,0.357599154,0.219883345
0.215689744,0.20661466,0.357568762,0.220126834
0.215661317,0.206428809,0.357533219,0.220376655
0.215630671,0.206244066,0.357492614,0.220632649
0.215597835,0.206060472,0.357447034,0.220894659
0.215562834,0.205878067,0.35739657,0.22116253
0.215525693,0.205696886,0.357341312,0.221436109
0.215486439,0.205516963,0.357281351,0.221715247
0.215445098,0.205338333,0.357216778,0.221999791
0.215401696,0.205161028,0.357147681,0.222289595
0.215356261,0.204985078,0.35707415,0.222584511
0.215308816,0.204810515,0.356996275,0.222884393
0.215259388,0.204637369,0.356914145,0.223189098
0.215208,0.20446567,0.35682785,0.223498479
0.215154679,0.204295446,0.35673748,0.223812395
0.21509945,0.204126724,0.356643123,0.224130703
0.215042339,0.203959529,0.356544868,0.224453263
0.214983376,0.203793885,0.356442803,0.224779936
0.214922587,0.203629816,0.356337016,0.225110581
0.214860002,0.203467344,0.356227594,0.22544506
0.214795653,0.20330649,0.356114622,0.225783235
0.214729569,0.203147276,0.355998187,0.226124969
0.214661782,0.202989725,0.355878372,0.226470122
0.214592321,0.20283386,0.35575526,0.226818559
0.214521218,0.202679701,0.355628936,0.227170145
0.214448504,0.202527268,0.355499481,0.227524747
0.214374212,0.202376577,0.355366977,0.227882234
0.214298377,0.202227645,0.355231501,0.228242477
0.214221036,0.202080485,0.355093128,0.228605351
0.214142222,0.201935111,0.354951932,0.228970735
0.214061971,0.201791534,0.354807986,0.229338509
0.213980318,0.201649763,0.35466136,0.22970856
0.213897298,0.201509806,0.354512125,0.230080771
0.213812952,0.201371671,0.354360348,0.23045503
0.213727316,0.201235367,0.354206093,0.230831223
0.213640433,0.201100901,0.354049424,0.231209242
0.213552342,0.20096828,0.353890401,0.231588977
0.213463084,0.200837507,0.353729086,0.231970323
0.213372699,0.200708585,0.353565537,0.232353179
0.213281226,0.200581515,0.353399815,0.232737444
0.213188704,0.200456301,0.353231976,0.23312302
0.213095172,0.200332945,0.353062075,0.233509809
0.21300067,0.200211451,0.352890163,0.233897715
0.212905244,0.200091818,0.352716291,0.234286647
0.212808934,0.199974044,0.352540509,0.234676513
0.212711782,0.199858125,0.352362866,0.235067227
0.212613831,0.199744057,0.352183411,0.235458701
0.212515119,0.199631835,0.352002194,0.235850853
0.212415686,0.199521454,0.351819261,0.236243598
0.212315572,0.199412912,0.351634661,0.236636855
0.212214812,0.199306205,0.351448442,0.237030541
0.21211344,0.199201332,0.351260653,0.237424576
0.212011489,0.199098292,0.351071338,0.237818881
0.211908993,0.198997082,0.350880546,0.238213379
0.211805981,0.198897699,0.350688325,0.238607995
0.211702484,0.198800139,0.350494723,0.239002654
0.211598532,0.198704397,0.350299792,0.23939728
0.211494152,0.198610468,0.35010358,0.2397918
0.211389374,0.198518348,0.349906136,0.240186142
0.211284223,0.198428034,0.34970751,0.240580234
0.211178725,0.198339518,0.349507749,0.240974008
0.211072907,0.198252794,0.349306902,0.241367397
0.210966793,0.198167853,0.349105015,0.241760338
0.210860409,0.198084686,0.348902136,0.242152769
0.21075378,0.198003281,0.348698309,0.24254463
0.210646929,0.197923628,0.348493578,0.242935865
0.210539882,0.197845715,0.348287987,0.243326416
0.210432663,0.197769529,0.348081581,0.243716227
0.210325296,0.197695058,0.347874401,0.244105245
0.210217805,0.197622287,0.347666492,0.244493416
0.210110212,0.197551203,0.347457895,0.24488069
0.210002538,0.197481789,0.347248656,0.245267017
0.209894802,0.197414031,0.347038817,0.245652349
0.209787021,0.197347912,0.346828424,0.246036643
0.209679212,0.197283415,0.34661752,0.246419853
0.209571389,0.197220522,0.34640615,0.246801939
0.209463565,0.197159216,0.346194359,0.24718286
0.209355753,0.197099477,0.345982189,0.247562581
0.209247967,0.197041287,0.34576968,0.247941066
0.209140218,0.196984626,0.345556872,0.248318283
0.209032521,0.196929473,0.345343803,0.248694203
0.208924888,0.196875807,0.34513051,0.249068794
0.208817334,0.196823609,0.344917029,0.249442029
0.208709872,0.196772857,0.344703392,0.249813879
0.208602517,0.196723533,0.344489634,0.250184316
0.208495284,0.196675618,0.344275783,0.250553315
0.208388185,0.196629094,0.344061869,0.250920852
0.208281234,0.196583945,0.343847918,0.251286904
0.208174441,0.196540156,0.343633955,0.251651449
0.208067817,0.196497709,0.343420006,0.252014468
0.207961372,0.196456592,0.343206091,0.252375945
0.207855114,0.196416793,0.342992234,0.25273586
0.20774905,0.196378302,0.342778453,0.253094196
0.207643185,0.196341111,0.342564768,0.253450937
0.207537523,0.196305212,0.3423512,0.253806066
0.207432066,0.196270597,0.342137768,0.254159569
0.207326816,0.19623726,0.34192449,0.254511434
0.207221773,0.19620519,0.341711384,0.254861653
0.207116933,0.196174379,0.341498466,0.255210222
0.207012295,0.196144818,0.34128575,0.255557137
0.206907854,0.196116498,0.341073253,0.255902395
0.206803608,0.196089409,0.340860989,0.256245994
0.206699552,0.19606354,0.340648973,0.256587935
0.206595679,0.196038879,0.340437218,0.256928224
0.206491986,0.196015412,0.340225734,0.257266868
0.206388464,0.195993126,0.340014532,0.257603878
0.206285111,0.195972005,0.339803624,0.25793926
0.206181921,0.195952036,0.339593019,0.258273024
0.206078891,0.195933205,0.339382726,0.258605178
0.205976017,0.1959155,0.339172755,0.258935728
0.205873296,0.195898908,0.338963113,0.259264683
0.205770724,0.195883418,0.338753809,0.259592049
0.205668297,0.195869021,0.338544849,0.259917833
0.205566012,0.195855707,0.33833624,0.26024204
0.205463866,0.195843469,0.338127987,0.260564678
0.205361855,0.195832299,0.337920095,0.260885751
0.205259977,0.195822194,0.337712567,0.261205262
0.20515823,0.19581315,0.337505402,0.261523217
0.205056611,0.195805164,0.337298602,0.261839623
0.20495512,0.195798229,0.337092164,0.262154487
0.204853757,0.195792338,0.336886086,0.262467818
0.204752525,0.195787486,0.336680367,0.262779622
0.204651424,0.195783665,0.336475006,0.263089905
0.204550458,0.195780867,0.336270001,0.263398674
0.204449627,0.195779085,0.336065354,0.263705934
0.204348935,0.195778308,0.335861068,0.264011689
0.204248381,0.195778529,0.335657146,0.264315944
0.204147969,0.195779736,0.335453592,0.264618703
0.204047697,0.195781918,0.335250412,0.264919972
0.203947568,0.195785065,0.335047612,0.265219756
0.20384758,0.195789165,0.334845196,0.265518059
0.203747736,0.195794208,0.334643169,0.265814887
0.203648034,0.195800185,0.334441538,0.266110243
0.203548475,0.195807087,0.334240309,0.266404129
0.203449059,0.195814903,0.334039489,0.266696549
0.203349784,0.195823626,0.333839086,0.266987504
0.203250651,0.195833245,0.33363911,0.267276994
0.203151658,0.195843751,0.333439569,0.267565023
0.203052801,0.195855133,0.333240476,0.26785159
0.20295408,0.195867381,0.333041843,0.268136696
0.202855492,0.195880485,0.332843682,0.268420341
0.202757036,0.195894432,0.332646004,0.268702528
0.202658711,0.195909212,0.332448823,0.268983254
0.202560516,0.195924811,0.332252152,0.26926252
0.20246245,0.195941218,0.332056008,0.269540323
0.202364514,0.19595842,0.331860404,0.269816661
0.202266712,0.195976406,0.331665354,0.270091529
0.202169046,0.195995163,0.331470869,0.270364923
0.202071522,0.196014682,0.331276959,0.270636837
0.201974146,0.196034951,0.331083635,0.270907268
0.201876925,0.196055962,0.330890903,0.271176211
0.201779869,0.196077703,0.330698769,0.271443659
0.20168299,0.196100167,0.330507236,0.271709607
0.201586298,0.196123344,0.330316308,0.27197405
0.201489803,0.196147226,0.330125985,0.272236986
0.201393514,0.196171804,0.329936269,0.272498414
0.201297437,0.196197068,0.329747161,0.272758334
0.20120158,0.19622301,0.329558664,0.273016746
0.20110595,0.196249623,0.329370778,0.27327365
0.201010555,0.196276897,0.329183502,0.273529046
0.200915401,0.196304825,0.328996837,0.273782937
0.200820494,0.196333399,0.328810781,0.274035325
0.200725842,0.19636261,0.328625334,0.274286214
0.200631449,0.19639245,0.328440493,0.274535608
0.200537322,0.196422911,0.328256255,0.274783512
0.200443466,0.196453986,0.328072618,0.275029931
0.200349886,0.196485667,0.327889576,0.275274872
0.200256587,0.196517945,0.327707126,0.275518341
0.200163575,0.196550814,0.327525263,0.275760348
0.200070855,0.196584263,0.327343982,0.2760009
0.199978431,0.196618286,0.327163278,0.276240006
0.199886306,0.196652873,0.326983147,0.276477674
0.199794484,0.196688018,0.326803585,0.276713913
0.199702966,0.196723716,0.32662459,0.276948728
0.199611753,0.196759963,0.326446158,0.277182126
0.199520846,0.196796757,0.326268287,0.27741411
0.199430245,0.196834094,0.326090975,0.277644686
0.199339949,0.196871975,0.325914217,0.277873859
0.199249958,0.196910397,0.32573801,0.278101635
0.199160266,0.196949363,0.32556235,0.27832802
0.199070871,0.196988874,0.325387234,0.278553021
0.198981767,0.197028933,0.325212657,0.278776643
0.198892949,0.19706954,0.325038617,0.278998894
0.19880441,0.197110698,0.32486511,0.279219782
0.198716144,0.197152405,0.324692135,0.279439316
0.198628142,0.197194661,0.324519689,0.279657507
0.198540396,0.197237463,0.32434777,0.279874371
0.198452894,0.197280807,0.324176375,0.280089924
0.198365627,0.19732469,0.3240055,0.280304184
0.198278583,0.197369106,0.32383514,0.28051717
0.198191753,0.197414053,0.323665293,0.280728901
0.198105126,0.197459524,0.323495953,0.280939397
0.198018689,0.197505517,0.323327116,0.281148677
0.197932434,0.197552027,0.323158778,0.281356761
0.197846349,0.197599048,0.322990934,0.281563669
0.197760425,0.197646575,0.32282358,0.28176942
0.197674654,0.197694603,0.322656711,0.281974031
0.197589028,0.197743126,0.322490325,0.28217752
0.19750354,0.197792137,0.322324419,0.282379905
0.197418184,0.197841627,0.322158989,0.2825812
0.197332954,0.197891591,0.321994035,0.28278142
0.197247846,0.19794202,0.321829554,0.28298058
0.197162858,0.197992907,0.321665543,0.283178692
0.197077988,0.198044246,0.321501999,0.283375767
0.196993234,0.198096032,0.321338917,0.283571818
0.196908593,0.198148259,0.321176294,0.283766853
0.196824065,0.198200926,0.321014126,0.283960883
0.196739647,0.198254026,0.320852411,0.284153916
0.196655337,0.198307558,0.320691147,0.284345959
0.196571131,0.198361515,0.320530335,0.284537019
0.196487027,0.198415893,0.320369976,0.284727103
0.196403022,0.198470687,0.320210074,0.284916217
0.196319111,0.19852589,0.320050632,0.285104368
0.196235289,0.198581497,0.319891656,0.285291559
0.19615155,0.198637501,0.319733154,0.285477795
0.19606789,0.198693896,0.319575133,0.285663081
0.195984301,0.198750674,0.319417601,0.285847424
0.195900779,0.19880783,0.319260563,0.286030829
0.195817318,0.198865357,0.319104022,0.286213303
0.195733913,0.198923251,0.318947984,0.286394852
0.195650562,0.198981504,0.318792452,0.286575482
0.195567262,0.199040113,0.318637428,0.286755197
0.19548401,0.199099071,0.318482917,0.286934003
0.195400803,0.199158373,0.318328921,0.287111903
0.195317638,0.199218014,0.318175444,0.287288904
0.195234515,0.199277988,0.318022487,0.28746501
0.19515143,0.19933829,0.317870054,0.287640226
0.195068384,0.199398914,0.317718145,0.287814558
0.194985376,0.199459852,0.317566761,0.28798801
0.194902408,0.199521099,0.317415905,0.288160588
0.194819481,0.199582649,0.317265576,0.288332295
0.194736597,0.199644494,0.317115774,0.288503135
0.194653758,0.199706632,0.316966499,0.288673111
0.194570966,0.199769055,0.316817754,0.288842224
0.194488222,0.199831761,0.316669541,0.289010476
0.194405528,0.199894743,0.316521861,0.289177868
0.194322885,0.199957998,0.316374716,0.289344401
0.194240294,0.200021523,0.316228109,0.289510073
0.194157756,0.200085314,0.316082044,0.289674886
0.194075271,0.200149369,0.315936522,0.289838838
0.193992838,0.200213687,0.315791547,0.290001927
0.193910458,0.200278266,0.315647123,0.290164153
0.193828129,0.200343104,0.315503253,0.290325514
0.193745852,0.200408201,0.315359939,0.290486008
0.193663626,0.200473557,0.315217184,0.290645633
0.193581452,0.20053917,0.315074991,0.290804388
0.193499329,0.200605039,0.314933361,0.29096227
0.193417258,0.200671165,0.314792298,0.291119279
0.193335239,0.200737546,0.314651803,0.291275413
0.193253272,0.200804181,0.314511877,0.29143067
0.193171358,0.20087107,0.314372523,0.29158505
0.193089495,0.200938213,0.314233742,0.29173855
0.193007686,0.201005608,0.314095536,0.29189117
0.192925928,0.201073257,0.313957906,0.292042909
0.192844223,0.201141158,0.313820853,0.292193766
0.192762568,0.201209313,0.31368438,0.292343739
0.192680962,0.201277722,0.313548488,0.292492828
0.192599404,0.201346385,0.31341318,0.29264103
0.192517891,0.201415304,0.313278459,0.292788346
0.192436418,0.201484481,0.313144329,0.292934772
0.192354981,0.201553918,0.313010794,0.293080306
0.192273575,0.201623619,0.312877858,0.293224947
0.192192195,0.201693587,0.312745526,0.293368692
0.192110835,0.201763824,0.312613802,0.293511539
0.192029488,0.201834335,0.312482691,0.293653486
0.19194815,0.20190512,0.312352197,0.293794532
0.191866815,0.201976183,0.312222326,0.293934676
0.191785477,0.202047527,0.31209308,0.294073916
0.19170413,0.202119153,0.311964465,0.294212252
0.19162277,0.202191065,0.311836483,0.294349681
0.191541391,0.202263265,0.311709139,0.294486205
0.191459988,0.202335755,0.311582436,0.294621821
0.191378554,0.202408537,0.311456377,0.294756531
0.191297086,0.202481614,0.311330966,0.294890333
0.191215579,0.202554986,0.311206206,0.295023229
0.191134027,0.202628655,0.311082098,0.29515522
0.191052424,0.202702623,0.310958646,0.295286307
0.190970767,0.20277689,0.310835851,0.295416492
0.190889051,0.202851457,0.310713716,0.295545775
0.19080727,0.202926325,0.310592244,0.295674161
0.190725421,0.203001492,0.310471435,0.295801651
0.190643498,0.20307696,0.310351293,0.29592825
0.190561497,0.203152727,0.310231817,0.296053959
0.190479413,0.203228794,0.310113008,0.296178784
0.190397243,0.203305161,0.309994868,0.296302728
0.19031498,0.203381828,0.309877396,0.296425796
0.190232622,0.203458793,0.309760593,0.296547993
0.190150162,0.203536055,0.309644459,0.296669323
0.190067599,0.203613615,0.309528993,0.296789793
0.189984927,0.20369147,0.309414197,0.296909406
0.189902144,0.203769619,0.309300069,0.297028168
0.189819247,0.203848059,0.309186608,0.297146085
0.189736232,0.20392679,0.309073815,0.297263163
0.189653097,0.204005809,0.308961688,0.297379407
0.189569838,0.204085113,0.308850226,0.297494823
0.189486453,0.204164701,0.308739428,0.297609418
0.189402941,0.204244568,0.308629295,0.297723196
0.189319298,0.204324714,0.308519824,0.297836164
0.189235525,0.204405134,0.308411014,0.297948327
0.189151618,0.204485826,0.308302865,0.298059691
0.189067578,0.204566785,0.308195375,0.298170262
0.188983404,0.204648009,0.308088543,0.298280044
0.188899095,0.204729494,0.307982368,0.298389043
0.188814651,0.204811236,0.307876848,0.298497265
0.188730073,0.204893231,0.307771982,0.298604713
0.188645362,0.204975477,0.307667769,0.298711392
0.188560516,0.205057968,0.307564208,0.298817307
0.188475539,0.205140702,0.307461298,0.298922461
0.188390428,0.205223674,0.307359038,0.29902686
0.188305187,0.20530688,0.307257426,0.299130507
0.188219817,0.205390316,0.30715646,0.299233406
0.188134321,0.205473976,0.307056139,0.299335563
0.188048702,0.205557857,0.30695646,0.299436982
0.187962962,0.205641953,0.306857419,0.299537666
0.187877105,0.205726259,0.306759014,0.299637622
0.187791132,0.205810771,0.306661243,0.299736853
0.187705048,0.205895483,0.306564102,0.299835366
0.187618855,0.205980392,0.30646759,0.299933164
0.187532555,0.206065492,0.306371703,0.30003025
0.187446153,0.206150781,0.306276439,0.300126627
0.18735965,0.206236255,0.306181797,0.300222298
0.187273049,0.206321913,0.306087775,0.300317263
0.187186354,0.206407752,0.30599437,0.300411525
0.187099564,0.206493772,0.30590158,0.300505084
0.187012684,0.206579973,0.305809403,0.30059794
0.186925713,0.206666358,0.305717837,0.300690093
0.186838654,0.206752927,0.305626878,0.30078154
0.186751509,0.206839684,0.305536527,0.30087228
0.186664279,0.206926629,0.30544678,0.300962311
0.186576967,0.207013766,0.305357635,0.301051632
0.186489575,0.207101095,0.30526909,0.30114024
0.186402104,0.20718862,0.305181142,0.301228134
0.186314557,0.207276341,0.305093788,0.301315314
0.186226936,0.207364263,0.305007025,0.301401777
0.186139241,0.207452386,0.304920853,0.30148752
0.186051476,0.207540713,0.304835268,0.301572543
0.185963641,0.207629247,0.304750268,0.301656844
0.185875738,0.207717991,0.304665851,0.30174042
0.185787768,0.207806947,0.304582014,0.301823271
0.185699734,0.207896117,0.304498753,0.301905396
0.185611637,0.207985503,0.304416066,0.301986793
0.18552348,0.208075108,0.304333949,0.302067462
0.185435265,0.208164934,0.304252398,0.302147403
0.185346995,0.20825498,0.304171409,0.302226615
0.185258672,0.208345249,0.304090978,0.3023051
0.185170299,0.20843574,0.304011102,0.302382859
0.185081878,0.208526452,0.303931776,0.302459894
0.18499341,0.208617384,0.303852997,0.302536209
0.184904898,0.208708534,0.30377476,0.302611808
0.184816344,0.208799898,0.30369706,0.302686697
0.184727748,0.208891475,0.303619892,0.302760885
0.184639111,0.208983259,0.303543251,0.302834378
0.184550434,0.20907525,0.303467131,0.302907184
0.184461717,0.209167444,0.303391529,0.302979311
0.184372959,0.209259837,0.303316438,0.303050766
0.184284161,0.209352428,0.303241854,0.303121557
0.184195322,0.209445211,0.303167772,0.303191695
0.184106442,0.209538185,0.303094185,0.303261188
0.184017522,0.209631344,0.303021089,0.303330044
0.18392856,0.209724687,0.302948479,0.303398274
0.183839556,0.209818208,0.302876349,0.303465886
0.18375051,0.209911906,0.302804694,0.30353289
0.183661421,0.210005776,0.302733509,0.303599294
0.183572287,0.210099815,0.302662789,0.303665109
0.183483109,0.210194021,0.302592528,0.303730342
0.183393885,0.210288388,0.302522722,0.303795005
0.183304615,0.210382913,0.302453366,0.303859106
0.183215297,0.210477591,0.302384454,0.303922657
0.183125931,0.210572419,0.302315981,0.303985668
0.183036517,0.210667391,0.302247943,0.304048149
0.182947052,0.210762504,0.302180333,0.30411011
0.182857537,0.210857753,0.30211315,0.304171561
0.18276797,0.210953132,0.302046388,0.304232509
0.182678352,0.211048637,0.301980046,0.304292965
0.182588681,0.211144263,0.301914121,0.304352935
0.182498956,0.211240005,0.301848611,0.304412428
0.182409177,0.211335858,0.301783515,0.30447145
0.182319341,0.211431818,0.301718832,0.304530009
0.182229449,0.211527879,0.301654562,0.30458811
0.182139496,0.211624038,0.301590705,0.30464576
0.182049484,0.211720291,0.301527261,0.304702964
0.181959409,0.211816632,0.301464231,0.304759728
0.181869272,0.211913058,0.301401615,0.304816056
0.18177907,0.212009563,0.301339414,0.304871953
0.181688804,0.212106142,0.301277627,0.304927426
0.181598473,0.212202792,0.301216255,0.30498248
0.181508075,0.212299506,0.301155299,0.305037121
0.181417609,0.212396279,0.301094757,0.305091355
0.181327075,0.212493105,0.30103463,0.30514519
0.18123647,0.212589978,0.300974916,0.305198635
0.181145794,0.212686892,0.300915615,0.305251698
0.181055044,0.212783841,0.300856725,0.305304389
0.18096422,0.212880818,0.300798245,0.305356717
0.18087332,0.212977818,0.300740172,0.305408691
0.180782342,0.213074834,0.300682505,0.305460319
0.180691286,0.213171861,0.300625243,0.305511611
0.18060015,0.213268892,0.300568384,0.305562574
0.180508934,0.213365923,0.300511926,0.305613217
0.180417638,0.213462945,0.30045587,0.305663547
0.18032626,0.213559955,0.300400212,0.305713573
0.180234802,0.213656945,0.300344953,0.3057633
0.180143262,0.21375391,0.300290092,0.305812736
0.180051641,0.213850844,0.300235627,0.305861888
0.179959939,0.21394774,0.300181558,0.305910763
0.179868157,0.214044592,0.300127884,0.305959367
0.179776294,0.214141396,0.300074603,0.306007706
0.17968435,0.214238147,0.300021716,0.306055787
0.179592325,0.214334838,0.299969221,0.306103615
0.17950022,0.214431466,0.299917117,0.306151197
0.179408033,0.214528026,0.299865404,0.306198537
0.179315765,0.214624512,0.299814079,0.306245644
0.179223417,0.214720921,0.29976314,0.306292522
0.179130987,0.214817247,0.299712587,0.306339178
0.179038478,0.214913486,0.299662418,0.306385619
0.178945887,0.215009634,0.29961263,0.306431849
0.178853217,0.215105687,0.299563222,0.306477875
0.178760466,0.215201641,0.299514192,0.306523701
0.178667636,0.215297492,0.299465539,0.306569333
0.178574726,0.215393237,0.299417263,0.306614775
0.178481736,0.215488872,0.299369361,0.306660031
0.178388666,0.215584394,0.299321834,0.306705106
0.178295517,0.215679801,0.299274678,0.306750003
0.178202288,0.215775089,0.299227895,0.306794727
0.178108979,0.215870256,0.299181482,0.306839282
0.17801559,0.215965298,0.299135439,0.306883673
0.177922121,0.216060211,0.299089764,0.306927904
0.177828572,0.216154992,0.299044455,0.306971981
0.177734944,0.216249637,0.298999512,0.307015908
0.177641236,0.216344142,0.298954932,0.30705969
0.17754745,0.216438504,0.298910713,0.307103332
0.177453587,0.216532718,0.298866855,0.307146841
0.177359646,0.216626781,0.298823354,0.30719022
0.177265629,0.216720688,0.298780209,0.307233474
0.177171537,0.216814435,0.298737418,0.307276609
0.177077374,0.216908019,0.298694977,0.307319629
0.176983141,0.217001435,0.298652884,0.307362539
0.176888841,0.21709468,0.298611136,0.307405343
0.176794475,0.21718775,0.298569729,0.307448047
0.176700046,0.217280641,0.29852866,0.307490653
0.176605557,0.217373351,0.298487926,0.307533166
0.176511009,0.217465877,0.298447524,0.307575589
0.176416407,0.217558215,0.298407451,0.307617926
0.176321751,0.217650363,0.298367705,0.307660181
0.176227047,0.217742315,0.298328281,0.307702357
0.176132295,0.21783407,0.298289177,0.307744458
0.1760375,0.217925622,0.298250391,0.307786487
0.175942663,0.218016968,0.298211919,0.30782845
0.175847788,0.218108105,0.298173758,0.307870349
0.175752877,0.218199028,0.298135905,0.30791219
0.175657933,0.218289734,0.298098358,0.307953975
0.175562959,0.21838022,0.298061112,0.307995709
0.175467957,0.218470482,0.298024165,0.308037397
0.17537293,0.218560516,0.297987513,0.308079041
0.175277882,0.218650318,0.297951153,0.308120647
0.175182815,0.218739885,0.297915082,0.308162219
0.175087731,0.218829213,0.297879295,0.308203761
0.174992634,0.218918298,0.29784379,0.308245278
0.174897526,0.219007138,0.297808562,0.308286774
0.174802409,0.219095728,0.297773609,0.308328253
0.174707287,0.219184066,0.297738926,0.308369721
0.174612162,0.219272147,0.29770451,0.308411181
0.174517035,0.219359967,0.297670358,0.30845264
0.17442191,0.219447524,0.297636464,0.308494102
0.174326788,0.219534814,0.297602826,0.308535573
0.174231671,0.219621832,0.297569439,0.308577058
0.174136561,0.219708576,0.2975363,0.308618564
0.174041459,0.21979504,0.297503404,0.308660097
0.173946366,0.219881223,0.297470748,0.308701664
0.173851282,0.219967118,0.297438326,0.308743274
0.17375621,0.220052723,0.297406135,0.308784932
0.173661148,0.220138034,0.29737417,0.308826647
0.173566098,0.220223048,0.297342428,0.308868426
0.173471061,0.22030776,0.297310905,0.308910274
0.173376036,0.220392167,0.297279597,0.308952201
0.173281025,0.220476264,0.297248499,0.308994212
0.173186028,0.22056005,0.297217607,0.309036315
0.173091044,0.22064352,0.297186919,0.309078517
0.172996075,0.22072667,0.297156428,0.309120827
0.17290112,0.220809499,0.297126132,0.309163249
0.172806178,0.220892003,0.297096026,0.309205793
0.172711251,0.220974179,0.297066105,0.309248465
0.172616338,0.221056025,0.297036365,0.309291272
0.172521438,0.221137539,0.297006801,0.309334221
0.172426551,0.221218719,0.296977409,0.309377321
0.172331676,0.221299562,0.296948183,0.309420579
0.172236813,0.221380065,0.296919119,0.309464002
0.172141962,0.221460227,0.296890213,0.309507597
0.172047122,0.221540045,0.29686146,0.309551373
0.171952291,0.221619517,0.296832855,0.309595336
0.17185747,0.221698641,0.296804396,0.309639494
0.171762656,0.221777413,0.296776077,0.309683854
0.171667849,0.221855834,0.296747894,0.309728422
0.171573048,0.221933901,0.296719844,0.309773207
0.171478249,0.222011615,0.296691922,0.309818214
0.171383452,0.222088973,0.296664124,0.30986345
0.171288655,0.222165977,0.296636447,0.309908921
0.171193854,0.222242625,0.296608889,0.309954632
0.171099046,0.22231892,0.296581446,0.310000588
0.171004227,0.222394862,0.296554116,0.310046795
0.170909395,0.222470451,0.296526895,0.310093259
0.170814544,0.222545691,0.29649978,0.310139985
0.170719671,0.222620582,0.296472766,0.310186981
0.170624772,0.222695127,0.29644585,0.310234251
0.170529844,0.222769326,0.296419026,0.310281804
0.170434883,0.222843181,0.296392289,0.310329647
0.170339886,0.222916694,0.296365634,0.310377787
0.170244848,0.222989864,0.296339057,0.310426231
0.170149768,0.223062693,0.296312551,0.310474988
0.17005464,0.223135183,0.296286111,0.310524065
0.169959464,0.223207335,0.296259734,0.310573467
0.169864234,0.22327915,0.296233414,0.310623202
0.16976895,0.223350629,0.296207145,0.310673277
0.169673607,0.223421773,0.296180923,0.310723697
0.169578204,0.223492584,0.296154742,0.31077447
0.169482737,0.223563062,0.296128599,0.310825602
0.169387204,0.223633208,0.296102487,0.310877101
0.169291603,0.223703022,0.296076402,0.310928973
0.16919593,0.223772505,0.29605034,0.310981225
0.169100184,0.223841658,0.296024294,0.311033864
0.169004363,0.22391048,0.295998259,0.311086898
0.168908464,0.223978974,0.29597223,0.311140333
0.168812485,0.224047138,0.295946202,0.311194176
0.168716423,0.224114974,0.29592017,0.311248434
0.168620278,0.224182481,0.295894128,0.311303113
0.168524045,0.224249662,0.295868074,0.311358219
0.168427724,0.224316515,0.295842003,0.311413758
0.168331312,0.224383041,0.295815911,0.311469737
0.168234808,0.224449239,0.295789793,0.311526159
0.168138209,0.224515111,0.295763647,0.311583032
0.168041515,0.224580656,0.295737469,0.31164036
0.167944725,0.224645874,0.295711254,0.311698147
0.167847835,0.224710765,0.295685001,0.311756398
0.167750847,0.224775331,0.295658704,0.311815118
0.167653758,0.22483957,0.295632362,0.31187431
0.167556568,0.224903484,0.295605969,0.311933979
0.167459276,0.224967072,0.295579523,0.311994129
0.167361883,0.225030335,0.29555302,0.312054763
0.167264387,0.225093272,0.295526456,0.312115886
0.167166789,0.225155883,0.295499827,0.312177501
0.167069089,0.225218169,0.295473131,0.312239611
0.166971285,0.22528013,0.295446364,0.312302221
0.166873375,0.225341768,0.295419523,0.312365334
0.16677536,0.225403082,0.295392604,0.312428953
0.166677238,0.225464074,0.295365605,0.312493083
0.166579008,0.225524745,0.295338522,0.312557725
0.166480668,0.225585094,0.295311354,0.312622884
0.166382218,0.225645124,0.295284097,0.312688561
0.166283657,0.225704835,0.295256749,0.312754758
0.166184984,0.225764229,0.295229309,0.312821478
0.166086197,0.225823307,0.295201773,0.312888723
0.165987297,0.22588207,0.29517414,0.312956493
0.165888281,0.225940522,0.295146407,0.31302479
0.165789149,0.225998663,0.295118574,0.313093615
0.1656899,0.226056496,0.295090638,0.313162967
0.165590532,0.226114022,0.295062598,0.313232848
0.165491045,0.226171245,0.295034452,0.313303258
0.165391436,0.226228167,0.295006199,0.313374197
0.165291703,0.226284791,0.294977839,0.313445667
0.165191846,0.226341118,0.294949369,0.313517667
0.165091861,0.226397152,0.294920789,0.313590198
0.164991748,0.226452894,0.294892098,0.31366326
0.164891504,0.226508348,0.294863294,0.313736854
0.164791127,0.226563516,0.294834377,0.31381098
0.164690617,0.226618401,0.294805345,0.313885637
0.16458997,0.226673007,0.294776197,0.313960825
0.164489186,0.226727335,0.294746933,0.314036546
0.164388263,0.226781389,0.294717551,0.314112797
0.1642872,0.226835171,0.29468805,0.31418958
0.164185994,0.226888683,0.294658429,0.314266894
0.164084645,0.226941928,0.294628687,0.31434474
0.163983151,0.226994908,0.294598824,0.314423117
0.163881511,0.227047626,0.294568838,0.314502025
0.163779723,0.227100083,0.294538729,0.314581465
0.163677786,0.227152282,0.294508496,0.314661436
0.163575699,0.227204225,0.294478138,0.314741938
0.16347346,0.227255914,0.294447654,0.314822971
0.163371069,0.227307353,0.294417044,0.314904535
0.163268523,0.227358543,0.294386306,0.314986628
0.163165822,0.227409489,0.29435544,0.315069249
0.163062963,0.227460194,0.294324445,0.315152397
0.162959947,0.227510662,0.29429332,0.315236071
0.162856772,0.227560897,0.294262064,0.315320268
0.162753436,0.227610902,0.294230676,0.315404986
0.16264994,0.227660681,0.294199154,0.315490225
0.162546283,0.227710238,0.294167497,0.315575982
0.162442463,0.227759577,0.294135705,0.315662255
0.162338481,0.227808701,0.294103774,0.315749044
0.162234335,0.227857613,0.294071705,0.315836346
0.162130026,0.227906316,0.294039496,0.315924162
0.162025552,0.227954813,0.294007146,0.316012489
0.161920913,0.228003108,0.293974653,0.316101327
0.161816108,0.228051203,0.293942015,0.316190673
0.161711137,0.228099103,0.293909232,0.316280527
0.161606,0.228146811,0.293876302,0.316370887
0.161500695,0.228194331,0.293843223,0.316461751
0.161395222,0.228241667,0.293809994,0.316553117
0.161289582,0.228288822,0.293776612,0.316644984
0.161183773,0.228335801,0.293743077,0.316737348
0.161077796,0.228382608,0.293709388,0.316830208
0.160971651,0.228429247,0.293675541,0.316923561
0.160865336,0.228475722,0.293641537,0.317017404
0.160758853,0.228522038,0.293607374,0.317111735
0.160652201,0.228568199,0.29357305,0.317206551
0.160545379,0.22861421,0.293538563,0.317301848
0.160438389,0.228660076,0.293503912,0.317397623
0.16033123,0.2287058,0.293469096,0.317493874
0.160223902,0.228751389,0.293434112,0.317590597
0.160116405,0.228796846,0.29339896,0.317687789
0.160008739,0.228842177,0.293363638,0.317785446
0.159900905,0.228887385,0.293328145,0.317883565
0.159792901,0.228932476,0.29329248,0.317982143
0.159684729,0.228977454,0.293256641,0.318081176
0.159576388,0.229022323,0.293220628,0.318180661
0.159467879,0.229067087,0.29318444,0.318280594
0.159359201,0.229111751,0.293148077,0.318380971
0.159250355,0.22915632,0.293111537,0.318481789
0.15914134,0.229200797,0.29307482,0.318583043
0.159032158,0.229245187,0.293037925,0.31868473
0.158922808,0.229289495,0.293000852,0.318786845
0.158813292,0.229333724,0.292963599,0.318889385
0.158703609,0.22937788,0.292926168,0.318992343
0.158593761,0.229421966,0.292888556,0.319095717
0.158483748,0.229465987,0.292850764,0.319199501
0.158373571,0.229509946,0.292812791,0.319303692
0.158263232,0.229553848,0.292774637,0.319408283
0.15815273,0.229597697,0.292736301,0.319513272
0.158042068,0.229641499,0.292697781,0.319618652
0.157931245,0.229685257,0.292659079,0.319724419
0.157820262,0.229728979,0.292620192,0.319830568
0.15770912,0.229772668,0.29258112,0.319937092
0.15759782,0.229816331,0.292541863,0.320043986
0.157486361,0.229859974,0.29250242,0.320151244
0.157374745,0.229903603,0.292462792,0.32025886
0.157262972,0.229947224,0.292422976,0.320366828
0.157151041,0.229990844,0.292382974,0.32047514
0.157038955,0.230034469,0.292342785,0.320583792
0.156926712,0.230078105,0.292302408,0.320692775
0.156814313,0.230121762,0.292261843,0.320802083
0.156701757,0.230165445,0.292221089,0.320911708
0.156589046,0.230209163,0.292180147,0.321021644
0.156476179,0.230252923,0.292139015,0.321131882
0.156363156,0.230296734,0.292097694,0.321242417
0.156249976,0.230340601,0.292056183,0.32135324
0.15613664,0.230384533,0.292014482,0.321464345
0.156023147,0.230428538,0.291972591,0.321575724
0.155909498,0.230472622,0.291930509,0.321687372
0.155795693,0.230516792,0.291888235,0.32179928
0.15568173,0.230561057,0.29184577,0.321911443
0.155567612,0.230605423,0.291803113,0.322023853
0.19763204,0.637188946,0.146666474,0.01851254
0.197659091,0.637122126,0.146682809,0.018535974
0.197685953,0.637054983,0.14669942,0.018559644
0.197712649,0.636987498,0.146716303,0.01858355
0.197739199,0.636919652,0.146733456,0.018607692
0.197765626,0.636851424,0.146750877,0.018632072
0.19779195,0.636782796,0.146768564,0.018656691
0.197818191,0.636713746,0.146786515,0.018681548
0.197844372,0.636644257,0.146804727,0.018706644
0.197870512,0.636574309,0.146823199,0.018731979
0.197896634,0.636503883,0.146841929,0.018757554
0.197922759,0.636432959,0.146860913,0.018783369
0.197948907,0.636361518,0.146880152,0.018809423
0.197975099,0.636289541,0.146899641,0.018835718
0.198001357,0.63621701,0.146919381,0.018862252
0.1980277,0.636143908,0.146939367,0.018889025
0.198054149,0.636070219,0.146959598,0.018916034
0.198080723,0.635995928,0.14698007,0.018943278
0.198107444,0.63592102,0.147000781,0.018970755
0.198134331,0.635845482,0.147021727,0.01899846
0.198161404,0.635769299,0.147042907,0.01902639
0.198188682,0.635692459,0.147064316,0.019054542
0.198216186,0.635614948,0.147085955,0.019082912
0.198243933,0.635536754,0.147107819,0.019111493
0.198271944,0.635457865,0.147129907,0.019140283
0.198300239,0.635378267,0.147152216,0.019169278
0.198328835,0.635297949,0.147174743,0.019198473
0.198357754,0.635216896,0.147197486,0.019227864
0.198387012,0.635135096,0.147220443,0.019257449
0.198416628,0.635052538,0.147243611,0.019287223
0.19844662,0.634969206,0.147266991,0.019317183
0.198477005,0.634885089,0.14729058,0.019347325
0.198507803,0.634800174,0.147314377,0.019377646
0.19853903,0.634714448,0.14733838,0.019408143
0.198570704,0.634627899,0.147362587,0.01943881
0.198602844,0.634540517,0.147386994,0.019469644
0.198635467,0.634452292,0.147411601,0.01950064
0.19866859,0.634363215,0.147436402,0.019531793
0.198702231,0.634273278,0.147461395,0.019563097
0.198736405,0.634182473,0.147486576,0.019594545
0.198771133,0.634090794,0.14751194,0.019626134
0.19880643,0.633998232,0.147537483,0.019657854
0.198842317,0.633904779,0.147563202,0.019689702
0.19887881,0.633810426,0.147589094,0.01972167
0.198915928,0.633715163,0.147615158,0.019753752
0.198953686,0.633618979,0.147641394,0.019785942
0.198992101,0.633521865,0.147667802,0.019818233
0.199031187,0.633423812,0.147694381,0.01985062
0.199070961,0.633324809,0.147721131,0.019883099
0.199111434,0.633224848,0.147748052,0.019915665
0.199152623,0.633123921,0.147775142,0.019948314
0.199194539,0.633022019,0.147802402,0.01998104
0.199237196,0.632919135,0.147829832,0.020013838
0.199280608,0.632815259,0.14785743,0.020046703
0.199324789,0.632710384,0.147885198,0.020079629
0.199369752,0.632604503,0.147913135,0.020112611
0.199415511,0.632497608,0.147941239,0.020145642
0.199462078,0.632389694,0.147969511,0.020178717
0.199509466,0.632280753,0.147997951,0.02021183
0.199557689,0.632170777,0.148026559,0.020244975
0.19960676,0.632059759,0.148055336,0.020278146
0.199656691,0.631947689,0.148084283,0.020311337
0.199707498,0.63183456,0.1481134,0.020344542
0.199759193,0.631720362,0.14814269,0.020377755
0.19981179,0.631605088,0.148172153,0.020410969
0.199865304,0.63148873,0.148201788,0.020444178
0.199919747,0.63137128,0.148231597,0.020477376
0.199975136,0.631252732,0.148261577,0.020510555
0.200031482,0.631133079,0.148291729,0.02054371
0.200088801,0.631012316,0.148322051,0.020576832
0.200147107,0.630890435,0.148352542,0.020609917
0.200206416,0.63076743,0.148383199,0.020642955
0.200266742,0.630643298,0.148414019,0.020675942
0.200328101,0.630518032,0.148445,0.020708868
0.200390506,0.630391629,0.148476138,0.020741727
0.200453972,0.630264084,0.148507431,0.020774513
0.20051851,0.630135392,0.148538878,0.020807219
0.200584134,0.63000555,0.148570475,0.020839841
0.200650854,0.629874553,0.14860222,0.020872373
0.200718682,0.629742397,0.14863411,0.020904811
0.200787628,0.629609081,0.148666141,0.02093715
0.200857702,0.629474602,0.148698309,0.020969387
0.200928914,0.629338959,0.148730611,0.021001517
0.201001272,0.629202151,0.148763043,0.021033534
0.201074787,0.629064177,0.148795601,0.021065435
0.201149466,0.628925037,0.148828282,0.021097216
0.201225319,0.628784729,0.14886108,0.021128873
0.201302354,0.628643252,0.148893993,0.021160401
0.201380582,0.628500607,0.148927014,0.021191797
0.20146001,0.628356792,0.14896014,0.021223058
0.201540651,0.628211808,0.148993364,0.021254177
0.201622513,0.628065655,0.14902668,0.021285151
0.201705608,0.627918334,0.149060084,0.021315975
0.201789945,0.627769844,0.149093568,0.021346643
0.201875536,0.627620185,0.149127128,0.021377151
0.201962391,0.627469356,0.149160758,0.021407495
0.20205052,0.627317358,0.149194453,0.021437669
0.202139933,0.627164189,0.149228208,0.02146767
0.20223064,0.627009851,0.149262017,0.021497492
0.202322648,0.626854344,0.149295877,0.021527131
0.202415965,0.626697666,0.149329787,0.021556582
0.202510598,0.626539816,0.149363747,0.021585839
0.202606553,0.626380792,0.149397759,0.021614896
0.202703835,0.626220591,0.149431827,0.021643747
0.202802449,0.62605921,0.149465953,0.021672388
0.202902401,0.625896645,0.149500144,0.021700811
0.203003694,0.625732891,0.149534403,0.021729011
0.203106332,0.625567947,0.149568738,0.021756984
0.203210318,0.625401807,0.149603153,0.021784723
0.203315655,0.625234467,0.149637654,0.021812224
0.203422347,0.625065923,0.149672249,0.021839481
0.203530396,0.624896169,0.149706943,0.021866492
0.203639804,0.624725199,0.149741746,0.021893251
0.203750575,0.624553007,0.149776662,0.021919755
0.203862711,0.624379588,0.149811701,0.021946
0.203976214,0.624204936,0.149846868,0.021971982
0.204091086,0.624029047,0.14988217,0.021997697
0.204207328,0.623851915,0.149917614,0.022023143
0.204324941,0.623673539,0.149953204,0.022048316
0.204443925,0.623493914,0.149988947,0.022073214
0.204564282,0.623313038,0.150024847,0.022097833
0.204686011,0.623130911,0.150060908,0.02212217
0.204809113,0.622947531,0.150097135,0.022146221
0.204933589,0.622762897,0.150133532,0.022169981
0.205059441,0.622577007,0.150170102,0.022193449
0.20518667,0.622389858,0.150206852,0.022216621
0.205315275,0.622201447,0.150243784,0.022239494
0.205445256,0.622011771,0.150280906,0.022262068
0.205576612,0.621820827,0.150318222,0.022284339
0.20570934,0.621628614,0.150355737,0.022306308
0.20584344,0.621435128,0.150393459,0.022327973
0.205978909,0.621240369,0.150431391,0.022349331
0.206115743,0.621044338,0.150469538,0.022370381
0.206253942,0.620847033,0.150507904,0.02239112
0.206393505,0.620648458,0.150546493,0.022411544
0.20653443,0.620448613,0.150585306,0.022431651
0.206676717,0.620247501,0.150624345,0.022451437
0.206820364,0.620045124,0.150663613,0.022470899
0.206965374,0.619841483,0.15070311,0.022490033
0.207111745,0.619636582,0.150742837,0.022508836
0.207259481,0.61943042,0.150782795,0.022527303
0.207408582,0.619223,0.150822986,0.022545432
0.20755905,0.619014321,0.15086341,0.022563219
0.207710886,0.618804384,0.150904069,0.022580661
0.207864091,0.618593188,0.150944964,0.022597757
0.208018667,0.618380732,0.150986098,0.022614503
0.208174617,0.618167016,0.151027471,0.022630897
0.20833194,0.617952037,0.151069087,0.022646936
0.208490637,0.617735797,0.151110946,0.02266262
0.208650711,0.617518294,0.15115305,0.022677945
0.20881216,0.617299531,0.1511954,0.022692909
0.208974984,0.61707951,0.151237995,0.02270751
0.209139184,0.616858234,0.151280837,0.022721745
0.209304758,0.616635709,0.151323922,0.022735611
0.209471706,0.616411941,0.151367248,0.022749105
0.209640025,0.616186937,0.151410812,0.022762226
0.209809716,0.615960704,0.151454608,0.022774972
0.209980776,0.615733248,0.151498635,0.022787341
0.210153204,0.615504577,0.151542888,0.022799331
0.210326999,0.615274696,0.151587364,0.022810941
0.210502157,0.615043611,0.15163206,0.022822172
0.210678677,0.614811328,0.151676973,0.022833022
0.210856554,0.614577852,0.1517221,0.022843494
0.211035784,0.614343189,0.151767437,0.02285359
0.211216361,0.614107347,0.151812982,0.02286331
0.21139828,0.613870334,0.15185873,0.022872657
0.211581533,0.61363216,0.151904677,0.022881631
0.211766114,0.613392835,0.151950818,0.022890233
0.211952015,0.613152373,0.151997149,0.022898463
0.212139229,0.612910786,0.152043664,0.022906321
0.212327748,0.612668087,0.152090356,0.022913809
0.212517563,0.612424291,0.152137221,0.022920925
0.212708666,0.612179412,0.152184251,0.022927671
0.212901048,0.611933463,0.152231442,0.022934047
0.213094701,0.611686459,0.152278787,0.022940054
0.213289616,0.611438415,0.152326279,0.022945691
0.213485784,0.611189345,0.152373914,0.022950958
0.213683195,0.610939265,0.152421685,0.022955855
0.213881841,0.610688188,0.152469589,0.022960382
0.214081709,0.610436126,0.152517623,0.022964541
0.214282788,0.610183093,0.152565786,0.022968332
0.214485066,0.6099291,0.152614075,0.022971759
0.214688531,0.609674158,0.152662489,0.022974822
0.21489317,0.60941828,0.152711024,0.022977525
0.215098971,0.609161478,0.152759681,0.022979869
0.215305919,0.608903764,0.152808458,0.022981859
0.215514,0.608645151,0.152857353,0.022983496
0.215723198,0.608385655,0.152906365,0.022984783
0.215933495,0.60812529,0.152955492,0.022985723
0.216144874,0.607864076,0.153004731,0.022986319
0.216357315,0.607602032,0.153054079,0.022986574
0.216570797,0.607339178,0.153103533,0.022986491
0.216785299,0.607075538,0.153153089,0.022986074
0.217000798,0.606811134,0.153202743,0.022985324
0.217217273,0.606545989,0.153252491,0.022984246
0.2174347,0.606280125,0.153302332,0.022982843
0.217653057,0.606013563,0.153352262,0.022981118
0.21787232,0.605746323,0.153402281,0.022979076
0.218092465,0.605478426,0.153452388,0.022976721
0.21831347,0.605209891,0.153502582,0.022974057
0.218535311,0.60494074,0.153552862,0.022971087
0.218757965,0.604670993,0.153603226,0.022967816
0.218981407,0.604400672,0.153653673,0.022964248
0.219205617,0.604129796,0.153704199,0.022960387
0.219430573,0.603858388,0.153754803,0.022956237
0.219656252,0.603586467,0.15380548,0.022951801
0.219882633,0.603314054,0.153856229,0.022947084
0.220109696,0.603041168,0.153907046,0.02294209
0.22033742,0.602767828,0.153957927,0.022936824
0.220565785,0.60249405,0.154008871,0.022931295
0.220794771,0.602219849,0.154059872,0.022925509
0.22102436,0.60194524,0.154110927,0.022919473
0.221254535,0.601670235,0.154162033,0.022913196
0.221485281,0.601394848,0.154213185,0.022906686
0.221716579,0.601119091,0.154264379,0.022899951
0.221948415,0.600842974,0.154315612,0.022892998
0.222180772,0.600566511,0.154366881,0.022885837
0.222413634,0.600289711,0.15441818,0.022878474
0.222646986,0.600012585,0.154469509,0.02287092
0.222880813,0.59973514,0.154520863,0.022863183
0.223115102,0.599457382,0.154572243,0.022855272
0.223349838,0.599179315,0.154623649,0.022847197
0.223585009,0.598900944,0.154675081,0.022838967
0.223820599,0.598622271,0.15472654,0.022830591
0.224056596,0.598343301,0.154778027,0.022822075
0.224292986,0.598064039,0.154829545,0.02281343
0.224529755,0.597784489,0.154881093,0.022804662
0.22476689,0.597504654,0.154932673,0.022795782
0.225004378,0.597224535,0.154984287,0.022786801
0.225242205,0.596944132,0.155035935,0.022777729
0.225480359,0.596663445,0.155087616,0.022768579
0.22571883,0.596382474,0.155139333,0.022759364
0.225957605,0.596101217,0.155191082,0.022750096
0.226196674,0.595819675,0.155242865,0.022740786
0.226436026,0.595537848,0.15529468,0.022731446
0.226675653,0.595255737,0.155346523,0.022722087
0.226915544,0.594973342,0.155398394,0.02271272
0.227155692,0.594690662,0.155450289,0.022703357
0.227396088,0.594407697,0.155502206,0.022694009
0.227636725,0.594124444,0.155554141,0.02268469
0.227877596,0.593840903,0.155606092,0.02267541
0.228118693,0.593557068,0.155658057,0.022666182
0.22836001,0.593272936,0.155710034,0.02265702
0.228601541,0.592988502,0.15576202,0.022647937
0.228843281,0.592703757,0.155814014,0.022638949
0.229085224,0.592418692,0.155866012,0.022630072
0.229327366,0.592133299,0.155918012,0.022621322
0.229569704,0.591847569,0.155970012,0.022612715
0.229812234,0.591561494,0.156022008,0.022604264
0.230054954,0.591275064,0.156073998,0.022595984
0.230297862,0.590988272,0.156125978,0.022587889
0.23054096,0.590701107,0.156177942,0.022579991
0.230784249,0.590413562,0.156229885,0.022572305
0.23102773,0.590125627,0.156281802,0.022564841
0.231271405,0.589837295,0.156333686,0.022557614
0.231515274,0.58954856,0.156385531,0.022550635
0.231759338,0.589259417,0.15643733,0.022543915
0.232003599,0.58896986,0.156489076,0.022537465
0.232248056,0.588679884,0.156540763,0.022531296
0.232492712,0.588389484,0.156592387,0.022525417
0.232737567,0.588098652,0.156643942,0.022519838
0.232982623,0.587807382,0.156695426,0.02251457
0.233227879,0.587515666,0.156746832,0.022509623
0.233473336,0.587223497,0.156798158,0.022505009
0.233718994,0.586930872,0.156849396,0.022500738
0.233964851,0.586637786,0.156900542,0.022496821
0.234210905,0.586344239,0.156951586,0.022493269
0.234457152,0.586050235,0.157002522,0.022490091
0.234703587,0.585755779,0.157053338,0.022487296
0.234950202,0.585460881,0.157104025,0.022484891
0.23519699,0.585165553,0.157154571,0.022482886
0.235443942,0.584869806,0.157204966,0.022481286
0.23569105,0.584573653,0.157255197,0.0224801
0.235938303,0.584277108,0.157305255,0.022479334
0.236185693,0.583980182,0.15735513,0.022478995
0.23643321,0.583682885,0.157404817,0.022479088
0.236680843,0.583385227,0.157454309,0.022479621
0.236928582,0.583087218,0.157503602,0.022480597
0.237176416,0.582788867,0.157552693,0.022482024
0.237424332,0.582490182,0.157601577,0.022483909
0.237672318,0.582191173,0.157650249,0.02248626
0.237920359,0.581891848,0.157698706,0.022489087
0.238168441,0.581592216,0.157746943,0.022492399
0.23841655,0.581292288,0.157794958,0.022496204
0.23866467,0.580992073,0.157842746,0.02250051
0.238912788,0.580691581,0.157890305,0.022505327
0.239160887,0.580390823,0.157937629,0.02251066
0.239408954,0.580089811,0.157984716,0.022516519
0.239656974,0.579788556,0.15803156,0.02252291
0.239904934,0.579487069,0.158078158,0.022529839
0.24015282,0.579185364,0.158124503,0.022537314
0.240400617,0.578883452,0.158170591,0.022545341
0.240648313,0.578581347,0.158216414,0.022553926
0.240895892,0.578279063,0.158261967,0.022563078
0.241143341,0.577976616,0.158307243,0.022572801
0.241390645,0.577674017,0.158352235,0.022583103
0.241637793,0.577371284,0.158396936,0.022593988
0.24188477,0.577068428,0.15844134,0.022605461
0.242131565,0.576765466,0.15848544,0.022617528
0.242378163,0.576462412,0.158529231,0.022630194
0.242624553,0.576159278,0.158572708,0.022643461
0.242870721,0.575856078,0.158615866,0.022657335
0.243116655,0.575552826,0.1586587,0.02267182
0.243362344,0.575249534,0.158701206,0.022686917
0.243607778,0.574946211,0.158743381,0.02270263
0.24385295,0.574642868,0.158785222,0.02271896
0.244097852,0.574339511,0.158826726,0.022735911
0.244342478,0.574036147,0.158867893,0.022753482
0.24458682,0.573732783,0.15890872,0.022771676
0.244830873,0.573429425,0.158949208,0.022790495
0.24507463,0.573126077,0.158989354,0.02280994
0.245318086,0.572822743,0.159029158,0.022830013
0.245561234,0.572519429,0.15906862,0.022850717
0.245804069,0.572216138,0.15910774,0.022872053
0.246046585,0.571912874,0.159146518,0.022894022
0.246288778,0.571609644,0.159184954,0.022916625
0.246530641,0.571306451,0.159223046,0.022939862
0.24677217,0.571003304,0.159260793,0.022963733
0.247013358,0.570700208,0.159298196,0.022988238
0.247254199,0.570397171,0.159335253,0.023013377
0.247494688,0.5700942,0.159371962,0.02303915
0.247734818,0.569791304,0.159408321,0.023065557
0.247974583,0.569488488,0.15944433,0.0230926
0.248213978,0.569185758,0.159479985,0.023120279
0.248452999,0.568883121,0.159515283,0.023148596
0.248691642,0.56858058,0.159550223,0.023177555
0.248929904,0.568278137,0.159584803,0.023207157
0.249167778,0.567975792,0.159619025,0.023237404
0.249405261,0.567673545,0.159652894,0.023268299
0.249642345,0.567371394,0.159686417,0.023299844
0.249879024,0.567069336,0.159719601,0.023332039
0.250115291,0.56676737,0.159752452,0.023364887
0.250351139,0.566465496,0.159784977,0.023398387
0.250586563,0.566163712,0.159817182,0.023432543
0.250821557,0.565862017,0.159849071,0.023467355
0.251056113,0.565560411,0.15988065,0.023502826
0.251290225,0.565258896,0.159911923,0.023538955
0.251523888,0.56495747,0.159942895,0.023575747
0.251757095,0.564656137,0.159973566,0.023613201
0.25198984,0.5643549,0.160003941,0.023651319
0.252222117,0.564053763,0.160034019,0.023690101
0.25245392,0.563752731,0.160063803,0.023729547
0.252685242,0.563451811,0.160093292,0.023769656
0.252916076,0.563151009,0.160122488,0.023810427
0.253146417,0.562850332,0.160151392,0.023851859
0.253376259,0.562549784,0.160180006,0.023893951
0.253605597,0.562249371,0.160208331,0.023936701
0.253834424,0.561949099,0.160236368,0.023980109
0.254062736,0.561648975,0.160264118,0.024024171
0.254290526,0.561349005,0.160291584,0.024068886
0.254517787,0.561049198,0.160318765,0.02411425
0.254744514,0.560749565,0.160345662,0.02416026
0.254970698,0.560450114,0.160372276,0.024206912
0.255196335,0.560150857,0.160398606,0.024254202
0.255421415,0.559851805,0.160424654,0.024302126
0.255645931,0.55955297,0.160450421,0.024350678
0.255869873,0.559254364,0.160475909,0.024399853
0.256093234,0.558955999,0.160501121,0.024449646
0.256316002,0.558657887,0.160526059,0.024500051
0.256538168,0.558360043,0.160550723,0.024551066
0.256759723,0.558062477,0.160575115,0.024602685
0.256980657,0.557765201,0.160599236,0.024654906
0.257200963,0.557468229,0.160623084,0.024707724
0.257420631,0.557171571,0.160646661,0.024761137
0.257639651,0.556875241,0.160669967,0.02481514
0.257858015,0.556579251,0.160693003,0.02486973
0.258075713,0.556283615,0.16071577,0.024924902
0.258292735,0.555988346,0.160738267,0.024980652
0.258509073,0.555693459,0.160760496,0.025036973
0.258724719,0.555398966,0.160782455,0.02509386
0.258939668,0.555104882,0.160804143,0.025151306
0.259153912,0.55481122,0.160825561,0.025209307
0.259367448,0.554517991,0.160846707,0.025267854
0.259580269,0.55422521,0.16086758,0.025326941
0.259792372,0.553932888,0.16088818,0.025386561
0.260003753,0.553641036,0.160908505,0.025446706
0.260214409,0.553349665,0.160928556,0.02550737
0.260424338,0.553058783,0.160948333,0.025568546
0.260633535,0.552768398,0.160967838,0.025630229
0.260842,0.552478517,0.160987072,0.025692411
0.261049727,0.552189148,0.161006036,0.025755089
0.261256715,0.551900297,0.161024734,0.025818254
0.261462958,0.551611972,0.161043167,0.025881902
0.261668455,0.551324182,0.161061337,0.025946026
0.261873201,0.551036936,0.161079245,0.026010618
0.262077192,0.550750244,0.161096892,0.026075671
0.262280425,0.550464118,0.161114278,0.026141178
0.262482895,0.550178569,0.161131404,0.026207132
0.262684597,0.549893613,0.161148267,0.026273523
0.262885527,0.549609263,0.161164866,0.026340343
0.26308568,0.549325539,0.161181199,0.026407583
0.263285049,0.549042457,0.161197262,0.026475232
0.263483629,0.548760036,0.161213055,0.02654328
0.263681414,0.548478293,0.161228577,0.026611717
0.263878399,0.548197245,0.161243825,0.026680531
0.264074579,0.547916908,0.161258801,0.026749713
0.264269948,0.547637299,0.161273501,0.026819251
0.264464504,0.547358435,0.161287925,0.026889136
0.26465824,0.547080334,0.16130207,0.026959355
0.264851155,0.546803013,0.161315934,0.027029898
0.265043242,0.546526488,0.161329515,0.027100754
0.265234498,0.546250779,0.161342812,0.027171912
0.265424914,0.545975908,0.161355819,0.02724336
0.265614483,0.545701897,0.161368532,0.027315088
0.2658032,0.545428769,0.161380946,0.027387084
0.265991059,0.545156548,0.161393056,0.027459337
0.266178056,0.544885254,0.161404856,0.027531834
0.266364189,0.544614909,0.16141634,0.027604563
0.266549456,0.544345533,0.161427502,0.02767751
0.266733855,0.544077146,0.161438335,0.027750664
0.266917383,0.543809768,0.161448836,0.027824013
0.26710004,0.543543418,0.161458997,0.027897545
0.267281821,0.543278113,0.161468816,0.02797125
0.267462725,0.543013872,0.161478286,0.028045117
0.26764275,0.542750711,0.161487404,0.028119135
0.267821896,0.542488648,0.161496164,0.028193292
0.268000161,0.542227703,0.161504559,0.028267577
0.268177544,0.541967897,0.161512582,0.028341977
0.268354042,0.541709252,0.161520224,0.028416482
0.268529653,0.541451792,0.161527476,0.028491078
0.268704374,0.541195543,0.161534329,0.028565754
0.268878201,0.540940531,0.161540771,0.028640496
0.269051131,0.540686784,0.161546792,0.028715293
0.269223161,0.540434327,0.161552381,0.028790131
0.269394288,0.540183188,0.161557527,0.028864997
0.269564506,0.539933397,0.161562218,0.028939878
0.26973381,0.539684984,0.161566443,0.029014763
0.269902192,0.53943798,0.161570189,0.029089639
0.270069644,0.539192419,0.161573442,0.029164494
0.270236157,0.538948339,0.161576188,0.029239316
0.270401721,0.538705777,0.16157841,0.029314092
0.270566324,0.538464771,0.161580094,0.02938881
0.270729957,0.53822536,0.161581225,0.029463459
0.270892606,0.537987578,0.161581789,0.029538026
0.271054262,0.537751461,0.161581777,0.029612501
0.271214911,0.537517042,0.161581176,0.029686871
0.271374545,0.537284353,0.161579976,0.029761126
0.271533152,0.537053426,0.161578168,0.029835254
0.271690724,0.536824289,0.161575743,0.029909244
0.271847251,0.536596972,0.161572691,0.029983086
0.272002724,0.536371503,0.161569006,0.030056767
0.272157135,0.536147908,0.161564679,0.030130278
0.272310478,0.535926211,0.161559704,0.030203607
0.272462747,0.535706437,0.161554072,0.030276744
0.272613938,0.535488609,0.161547775,0.030349678
0.272764045,0.535272749,0.161540805,0.0304224
0.272913065,0.535058879,0.161533155,0.030494901
0.273060991,0.53484702,0.161524816,0.030567173
0.273207817,0.53463719,0.161515782,0.03063921
0.273353538,0.53442941,0.161506047,0.030711005
0.273498146,0.534223698,0.161495606,0.03078255
0.273641634,0.534020073,0.161484453,0.03085384
0.273783995,0.533818555,0.161472583,0.030924867
0.273925223,0.533619163,0.161459991,0.030995624
0.27406531,0.533421912,0.161446673,0.031066105
0.274204251,0.533226819,0.161432626,0.031136303
0.27434204,0.533033901,0.161417847,0.031206213
0.27447867,0.532843172,0.161402332,0.031275826
0.274614135,0.532654649,0.16138608,0.031345136
0.274748428,0.532468345,0.161369089,0.031414137
0.274881543,0.532284275,0.161351358,0.031482824
0.275013472,0.532102451,0.161332885,0.031551192
0.275144209,0.531922885,0.161313672,0.031619234
0.275273747,0.531745587,0.161293718,0.031686947
0.275402081,0.531570567,0.161273026,0.031754325
0.275529206,0.531397834,0.161251598,0.031821362
0.275655117,0.531227398,0.161229434,0.031888052
0.275779809,0.531059265,0.161206537,0.031954389
0.275903278,0.530893447,0.161182908,0.032020367
0.276025521,0.530729951,0.161158549,0.032085979
0.276146534,0.530568786,0.161133462,0.032151218
0.276266313,0.53040996,0.161107646,0.03221608
0.276384855,0.530253482,0.161081104,0.032280559
0.276502156,0.530099358,0.161053838,0.032344648
0.276618211,0.529947594,0.161025852,0.032408343
0.276733017,0.529798198,0.160997148,0.032471638
0.276846569,0.529651174,0.160967731,0.032534526
0.276958863,0.52950653,0.160937603,0.032597005
0.277069895,0.52936427,0.160906767,0.032659068
0.277179661,0.529224403,0.160875226,0.03272071
0.277288159,0.529086932,0.160842983,0.032781927
0.277395383,0.528951863,0.160810044,0.032842711
0.277501329,0.528819201,0.160776414,0.032903056
0.277605995,0.528688949,0.160742099,0.032962956
0.277709376,0.528561113,0.160707106,0.033022405
0.277811468,0.528435697,0.160671438,0.033081396
0.27791227,0.528312706,0.160635102,0.033139922
0.278011778,0.528192145,0.160598101,0.033197977
0.278109991,0.528074016,0.160560438,0.033255555
0.278206909,0.527958325,0.160522116,0.033312651
0.278302534,0.527845072,0.160483137,0.033369258
0.278396868,0.527734258,0.160443504,0.03342537
0.278489915,0.527625882,0.16040322,0.033480983
0.278581677,0.527519944,0.160362288,0.033536091
0.278672157,0.527416441,0.160320714,0.033590689
0.278761359,0.527315371,0.1602785,0.03364477
0.278849286,0.527216732,0.160235652,0.03369833
0.278935941,0.527120523,0.160192173,0.033751362
0.279021328,0.527026743,0.160148067,0.033803863
0.279105445,0.526935392,0.160103336,0.033855827
0.279188292,0.526846474,0.160057983,0.033907251
0.279269865,0.526759996,0.160012008,0.033958131
0.27935016,0.526675966,0.15996541,0.034008464
0.279429172,0.526594395,0.159918189,0.034058244
0.279506897,0.526515292,0.159870343,0.034107468
0.279583329,0.526438667,0.15982187,0.034156133
0.279658465,0.52636453,0.159772769,0.034204236
0.279732303,0.526292888,0.159723036,0.034251773
0.27980484,0.526223748,0.159672671,0.034298741
0.279876076,0.526157116,0.15962167,0.034345138
0.279946013,0.526092995,0.159570031,0.034390961
0.280014651,0.526031388,0.159517754,0.034436207
0.280081993,0.525972296,0.159464836,0.034480875
0.280148042,0.525915718,0.159411276,0.034524964
0.280212803,0.525861652,0.159357075,0.03456847
0.280276285,0.525810095,0.159302229,0.034611392
0.280338499,0.52576104,0.159246736,0.034653725
0.280399461,0.525714481,0.159190593,0.034695466
0.280459184,0.525670409,0.159133796,0.034736612
0.280517684,0.525628816,0.159076341,0.03477716
0.280574976,0.525589693,0.159018225,0.034817106
0.280631078,0.525553031,0.158959443,0.034856448
0.280686004,0.525518821,0.158899993,0.034895182
0.280739775,0.525487051,0.158839868,0.034933306
0.280792406,0.52545771,0.158779067,0.034970817
0.280843919,0.525430783,0.158717584,0.035007714
0.280894332,0.525406257,0.158655417,0.035043994
0.280943665,0.525384115,0.158592565,0.035079655
0.28099194,0.525364343,0.158529024,0.035114694
0.281039175,0.525346923,0.158464794,0.035149107
0.281085391,0.525331842,0.158399874,0.035182893
0.281130608,0.525319082,0.158334263,0.035216047
0.281174843,0.52530863,0.158267961,0.035248566
0.281218115,0.525300469,0.158200969,0.035280446
0.281260441,0.525294584,0.15813329,0.035311685
0.281301839,0.525290957,0.158064927,0.035342278
0.281342326,0.525289571,0.157995883,0.03537222
0.281381921,0.525290408,0.157926164,0.035401507
0.281420641,0.525293448,0.157855777,0.035430134
0.281458504,0.525298671,0.15778473,0.035458096
0.281495525,0.525306056,0.15771303,0.035485389
0.281531721,0.525315585,0.157640686,0.035512008
0.281567108,0.525327236,0.157567709,0.035537947
0.281601702,0.525340988,0.157494108,0.035563202
0.281635521,0.525356818,0.157419894,0.035587767
0.28166858,0.525374703,0.157345079,0.035611638
0.281700895,0.525394621,0.157269676,0.035634808
0.281732482,0.525416547,0.157193697,0.035657274
0.281763356,0.525440458,0.157117156,0.035679029
0.281793531,0.525466332,0.157040067,0.03570007
0.281823021,0.525494143,0.156962444,0.035720392
0.281851839,0.525523868,0.156884302,0.03573999
0.281879998,0.525555484,0.156805656,0.035758862
0.281907511,0.525588965,0.156726519,0.035777005
0.28193439,0.525624288,0.156646908,0.035794414
0.281960646,0.525661428,0.156566837,0.035811089
0.281986291,0.525700361,0.156486321,0.035827027
0.282011338,0.525741061,0.156405375,0.035842225
0.282035797,0.525783505,0.156324017,0.035856681
0.282059679,0.525827666,0.156242262,0.035870392
0.282082996,0.525873519,0.156160129,0.035883356
0.282105756,0.525921037,0.156077634,0.035895573
0.282127969,0.525970192,0.155994796,0.035907043
0.282149644,0.526020958,0.155911633,0.035917765
0.282170789,0.526073309,0.155828162,0.03592774
0.28219141,0.52612722,0.155744402,0.035936968
0.282211517,0.526182665,0.155660369,0.035945449
0.282231117,0.52623962,0.155576081,0.035953183
0.282250218,0.52629806,0.155491553,0.035960168
0.28226883,0.526357961,0.155406802,0.035966406
0.282286959,0.526419299,0.155321845,0.035971896
0.282304614,0.526482048,0.1552367,0.035976638
0.282321802,0.526546182,0.155151384,0.035980632
0.282338528,0.526611676,0.155065917,0.035983878
0.2823548,0.526678505,0.15498032,0.035986375
0.282370623,0.52674664,0.154894613,0.035988123
0.282386001,0.526816056,0.154808822,0.035989121
0.28240094,0.526886724,0.154722969,0.035989366
0.282415445,0.526958618,0.154637079,0.035988858
0.282429522,0.527031709,0.154551175,0.035987594
0.282443177,0.527105971,0.15446528,0.035985572
0.282456413,0.527181374,0.154379421,0.035982792
0.282469234,0.527257892,0.154293624,0.03597925
0.282481644,0.5273355,0.154207911,0.035974945
0.282493647,0.52741417,0.154122308,0.035969875
0.282505249,0.527493878,0.154036835,0.035964038
0.282516456,0.527574596,0.153951515,0.035957433
0.282527273,0.5276563,0.153866368,0.035950059
0.282537707,0.527738963,0.153781415,0.035941915
0.282547761,0.527822563,0.153696673,0.035933002
0.282557442,0.527907075,0.153612164,0.035923319
0.282566753,0.527992476,0.153527905,0.035912865
0.282575699,0.528078744,0.153443916,0.035901641
0.282584285,0.528165854,0.153360214,0.035889647
0.282592518,0.52825378,0.15327682,0.035876883
0.282600405,0.528342496,0.153193748,0.035863351
0.282607954,0.528431976,0.153111017,0.035849054
0.282615169,0.528522197,0.15302864,0.035833994
0.282622057,0.528613136,0.15294663,0.035818177
0.282628623,0.52870477,0.152865002,0.035801604
0.282634871,0.528797081,0.152783767,0.03578428
0.282640806,0.528890048,0.152702937,0.03576621
0.282646431,0.528983652,0.152622522,0.035747395
0.282651752,0.529077877,0.152542531,0.035727841
0.282656772,0.529172704,0.152462974,0.03570755
0.282661498,0.529268119,0.152383858,0.035686525
0.282665933,0.529364106,0.152305191,0.03566477
0.282670081,0.529460651,0.15222698,0.035642287
0.282673943,0.529557744,0.152149232,0.03561908
0.282677522,0.529655373,0.152071954,0.035595152
0.282680815,0.529753528,0.151995151,0.035570506
0.282683822,0.5298522,0.151918832,0.035545147
0.282686539,0.529951378,0.151843004,0.035519078
0.282688965,0.530051054,0.151767676,0.035492305
0.282691097,0.530151217,0.151692856,0.035464831
0.282692931,0.530251857,0.151618551,0.03543666
0.282694467,0.530352967,0.151544771,0.035407795
0.282695702,0.530454537,0.151471523,0.035378238
0.282696634,0.53055656,0.151398814,0.035347993
0.282697259,0.53065903,0.151326651,0.03531706
0.282697575,0.530761943,0.151255039,0.035285442
0.282697578,0.530865298,0.151183984,0.03525314
0.282697263,0.530969093,0.15111349,0.035220154
0.282696627,0.531073327,0.151043562,0.035186484
0.282695664,0.531178002,0.150974203,0.035152131
0.282694369,0.531283119,0.150905417,0.035117095
0.282692734,0.531388683,0.150837209,0.035081374
0.28269075,0.531494699,0.15076958,0.035044971
0.282688407,0.531601172,0.150702536,0.035007885
0.282685694,0.531708107,0.150636081,0.034970118
0.282682601,0.531815507,0.15057022,0.034931671
0.282679118,0.531923376,0.15050496,0.034892547
0.282675233,0.532031717,0.150440305,0.034852745
0.282670938,0.532140531,0.150376264,0.034812268
0.282666222,0.53224982,0.150312842,0.034771115
0.282661076,0.532359586,0.150250049,0.034729289
0.28265549,0.53246983,0.150187891,0.034686789
0.282649454,0.532580554,0.150126375,0.034643616
0.28264296,0.532691761,0.150065509,0.034599771
0.282635997,0.532803452,0.150005299,0.034555253
0.282628557,0.53291563,0.14994575,0.034510062
0.282620631,0.533028299,0.14988687,0.0344642
0.282612211,0.533141457,0.149828666,0.034417666
0.282603287,0.533255106,0.149771148,0.03437046
0.282593852,0.533369243,0.149714323,0.034322582
0.282583898,0.533483864,0.149658202,0.034274036
0.282573417,0.533598967,0.149602794,0.034224822
0.2825624,0.533714546,0.14954811,0.034174944
0.28255084,0.533830599,0.149494157,0.034124403
0.282538729,0.533947122,0.149440945,0.034073205
0.282526058,0.534064112,0.14938848,0.03402135
0.28251282,0.534181568,0.14933677,0.033968842
0.282499008,0.534299487,0.149285821,0.033915684
0.282484618,0.534417866,0.149235637,0.033861879
0.282469645,0.534536701,0.149186223,0.033807431
0.282454083,0.534655987,0.149137585,0.033752345
0.282437928,0.534775721,0.149089726,0.033696625
0.282421178,0.534895897,0.14904265,0.033640275
0.282403827,0.53501651,0.148996364,0.033583299
0.282385873,0.535137556,0.148950872,0.0335257
0.282367312,0.535259026,0.14890618,0.033467482
0.28234814,0.535380916,0.148862296,0.033408648
0.282328355,0.535503218,0.148819224,0.033349202
0.282307952,0.535625928,0.14877697,0.033289149
0.282286927,0.535749042,0.14873554,0.033228491
0.282265276,0.535872555,0.148694936,0.033167234
0.282242993,0.535996465,0.148655162,0.03310538
0.282220077,0.53612077,0.148616221,0.033042932
0.282196523,0.536245468,0.148578114,0.032979894
0.282172331,0.536370557,0.148540844,0.032916268
0.2821475,0.536496035,0.14850441,0.032852055
0.282122029,0.5366219,0.148468814,0.032787257
0.282095917,0.53674815,0.148434057,0.032721876
0.282069166,0.536874784,0.148400137,0.032655913
0.282041776,0.537001801,0.148367056,0.032589367
0.282013749,0.537129198,0.148334813,0.03252224
0.281985087,0.537256973,0.148303408,0.032454532
0.281955793,0.537385122,0.148272841,0.032386244
0.281925872,0.53751364,0.148243112,0.032317377
0.281895326,0.537642521,0.148214221,0.032247932
0.281864159,0.537771761,0.148186169,0.032177911
0.281832373,0.537901355,0.148158955,0.032107316
0.281799974,0.538031301,0.14813258,0.032036145
0.281766964,0.538161595,0.148107042,0.031964399
0.281733349,0.538292236,0.148082337,0.031892078
0.281699131,0.538423224,0.148058465,0.03181918
0.281664317,0.538554559,0.14803542,0.031745704
0.281628909,0.538686242,0.148013198,0.03167165
0.281592914,0.538818275,0.147991794,0.031597017
0.281556337,0.538950659,0.147971203,0.031521802
0.281519182,0.539083393,0.147951419,0.031446006
0.281481455,0.539216479,0.14793244,0.031369627
0.281443161,0.539349912,0.147914259,0.031292668
0.281404306,0.539483691,0.147896874,0.031215128
0.281364897,0.539617812,0.147880281,0.03113701
0.281324939,0.53975227,0.147864474,0.031058317
0.281284439,0.539887059,0.147849451,0.030979052
0.281243402,0.540022174,0.147835205,0.030899219
0.281201837,0.54015761,0.147821732,0.03081882
0.28115975,0.540293364,0.147809027,0.03073786
0.281117147,0.540429431,0.147797081,0.030656341
0.281074037,0.540565807,0.14778589,0.030574266
0.281030427,0.540702489,0.147775446,0.030491638
0.280986327,0.540839474,0.147765741,0.030408459
0.280941745,0.540976757,0.147756767,0.030324731
0.280896692,0.541114336,0.147748515,0.030240457
0.280851177,0.541252205,0.147740976,0.030155641
0.280805211,0.54139036,0.147734143,0.030070286
0.280758804,0.541528794,0.147728007,0.029984395
0.280711966,0.541667504,0.14772256,0.02989797
0.280664708,0.541806484,0.147717795,0.029811013
0.280617038,0.541945727,0.147713708,0.029723527
0.280568967,0.542085229,0.147710292,0.029635513
0.280520504,0.542224983,0.147707542,0.029546971
0.280471657,0.542364987,0.147705453,0.029457902
0.280422436,0.542505237,0.147704019,0.029368308
0.280372849,0.542645729,0.147703234,0.029278188
0.280322905,0.542786462,0.147703092,0.029187542
0.280272611,0.542927433,0.147703586,0.02909637
0.280221977,0.54306864,0.147704711,0.029004672
0.280171011,0.54321008,0.14770646,0.028912449
0.280119721,0.543351753,0.147708825,0.028819701
0.280068116,0.543493654,0.1477118,0.02872643
0.280016203,0.543635782,0.147715377,0.028632638
0.279963992,0.543778132,0.147719549,0.028538327
0.279911492,0.543920699,0.14772431,0.0284435
0.279858711,0.544063476,0.147729652,0.028348161
0.279805659,0.544206455,0.14773557,0.028252316
0.279752344,0.544349627,0.147742057,0.028155972
0.279698775,0.544492982,0.147749109,0.028059134
0.279644958,0.544636513,0.14775672,0.027961809
0.2795909,0.54478021,0.147764888,0.027864003
0.279536609,0.544924066,0.147773606,0.027765719
0.27948209,0.545068076,0.147782868,0.027666965
0.279427352,0.545212235,0.14779267,0.027567743
0.279372401,0.545356536,0.147803004,0.027468059
0.279317244,0.545500974,0.147813864,0.027367918
0.279261888,0.545645543,0.147825245,0.027267324
0.279206338,0.545790239,0.147837142,0.027166281
0.279150598,0.545935055,0.147849551,0.027064796
0.279094668,0.54607999,0.147862469,0.026962872
0.279038549,0.546225038,0.147875898,0.026860514
0.278982237,0.546370194,0.147889841,0.026757728
0.278925726,0.546515454,0.1479043,0.026654519
0.27886901,0.546660815,0.147919281,0.026550893
0.278812081,0.546806275,0.147934786,0.026446858
0.27875493,0.546951834,0.147950817,0.026342419
0.278697549,0.547097492,0.147967375,0.026237585
0.278639929,0.547243249,0.147984461,0.026132362
0.278582062,0.547389105,0.148002076,0.026026758
0.27852394,0.54753506,0.14802022,0.02592078
0.278465556,0.547681115,0.148038892,0.025814437
0.278406903,0.547827267,0.148058093,0.025707737
0.278347976,0.547973517,0.14807782,0.025600687
0.278288767,0.548119864,0.148098073,0.025493295
0.278229271,0.54826631,0.14811885,0.025385569
0.278169483,0.548412855,0.148140148,0.025277514
0.278109395,0.548559504,0.148161964,0.025169138
0.278049,0.548706258,0.148184297,0.025060445
0.277988292,0.548853122,0.148207144,0.024951442
0.277927261,0.549000099,0.148230506,0.024842134
0.277865901,0.549147192,0.148254381,0.024732526
0.277804202,0.549294403,0.14827877,0.024622625
0.277742156,0.549441733,0.148303675,0.024512436
0.277679753,0.549589184,0.148329096,0.024401967
0.277616985,0.549736757,0.148355034,0.024291223
0.277553844,0.549884456,0.14838149,0.02418021
0.277490319,0.550032286,0.148408463,0.024068933
0.277426401,0.550180253,0.148435951,0.023957396
0.277362079,0.550328368,0.148463951,0.023845602
0.277297342,0.550476643,0.14849246,0.023733554
0.277232177,0.550625096,0.148521474,0.023621254
0.277166569,0.550773742,0.148550985,0.023508704
0.277100505,0.550922602,0.148580988,0.023395905
0.277033971,0.551071694,0.148611478,0.023282858
0.276966955,0.551221035,0.148642446,0.023169564
0.276899444,0.551370641,0.148673889,0.023056025
0.276831425,0.551520529,0.148705802,0.022942244
0.276762886,0.551670712,0.148738179,0.022828224
0.276693816,0.551821199,0.148771018,0.022713967
0.276624206,0.551972003,0.148804313,0.022599478
0.276554046,0.55212313,0.148838063,0.022484761
0.276483328,0.55227459,0.148872261,0.022369821
0.276412044,0.552426391,0.148906904,0.022254662
0.276340187,0.552578541,0.148941986,0.022139286
0.27626775,0.55273105,0.148977502,0.022023698
0.276194727,0.552883926,0.149013446,0.021907901
0.276121112,0.553037177,0.149049813,0.021791898
0.276046898,0.553190814,0.149086596,0.021675692
0.275972079,0.553344847,0.149123789,0.021559286
0.275896649,0.553499284,0.149161386,0.021442681
0.275820604,0.553654135,0.149199382,0.021325879
0.275743938,0.553809409,0.149237769,0.021208884
0.275666647,0.553965111,0.149276544,0.021091698
0.275588728,0.554121247,0.149315701,0.020974323
0.275510176,0.554277822,0.149355236,0.020856766
0.275430989,0.554434839,0.149395144,0.020739029
0.275351163,0.554592298,0.149435423,0.020621117
0.275270695,0.554750199,0.149476071,0.020503035
0.275189582,0.554908541,0.14951709,0.020384787
0.27510782,0.555067325,0.149558478,0.020266378
0.275025405,0.555226549,0.149600235,0.020147811
0.274942333,0.555386214,0.149642361,0.020029091
0.274858602,0.55554632,0.149684855,0.019910223
0.274774208,0.555706867,0.149727715,0.019791209
0.274689148,0.555867856,0.149770941,0.019672055
0.274603421,0.556029288,0.149814528,0.019552763
0.274517024,0.556191165,0.149858475,0.019433337
0.274429956,0.556353485,0.149902779,0.01931378
0.274342216,0.556516249,0.149947437,0.019194097
0.274253805,0.556679455,0.149992448,0.019074293
0.274164719,0.556843099,0.150037809,0.018954373
0.274074959,0.557007179,0.150083519,0.018834343
0.273984523,0.55717169,0.150129576,0.018714211
0.273893407,0.557336632,0.15017598,0.018593981
0.273801612,0.557502002,0.150222728,0.018473658
0.273709134,0.557667801,0.150269818,0.018353248
0.273615971,0.557834027,0.150317248,0.018232754
0.273522123,0.558000682,0.150365014,0.018112181
0.273427589,0.558167764,0.150413113,0.017991533
0.273332369,0.558335276,0.150461542,0.017870813
0.273236464,0.558503217,0.150510296,0.017750023
0.273139873,0.558671589,0.150559369,0.017629168
0.273042599,0.558840392,0.150608758,0.017508251
0.272944642,0.559009627,0.150658458,0.017387273
0.272846004,0.559179294,0.150708463,0.01726624
0.272746684,0.559349392,0.15075877,0.017145154
0.272646684,0.559519919,0.150809376,0.017024022
0.272546003,0.559690873,0.150860277,0.016902847
0.272444641,0.559862252,0.150911472,0.016781636
0.272342596,0.560034053,0.150962958,0.016660393
0.272239867,0.560206276,0.151014733,0.016539124
0.272136454,0.560378919,0.151066794,0.016417833
0.272032357,0.560551981,0.151119138,0.016296524
0.271927577,0.56072546,0.151171762,0.016175201
0.271822114,0.560899356,0.151224661,0.016053868
0.271715971,0.56107367,0.151277833,0.015932526
0.271609147,0.561248402,0.15133127,0.015811181
0.271501644,0.561423552,0.151384969,0.015689835
0.271393462,0.561599121,0.151438924,0.015568493
0.271284602,0.561775112,0.151493127,0.015447158
0.271175064,0.561951527,0.151547575,0.015325834
0.271064847,0.562128369,0.151602259,0.015204524
0.270953952,0.562305641,0.151657176,0.015083231
0.270842376,0.562483347,0.151712319,0.014961958
0.270730117,0.56266149,0.151767682,0.014840711
0.270617173,0.562840073,0.15182326,0.014719494
0.270503543,0.563019099,0.151879047,0.014598312
0.270389223,0.563198571,0.151935037,0.014477169
0.270274213,0.563378491,0.151991224,0.014356072
0.270158512,0.563558863,0.152047601,0.014235024
0.270042119,0.563739688,0.152104161,0.014114032
0.269925036,0.563920968,0.152160894,0.013993101
0.269807266,0.564102705,0.152217792,0.013872237
0.26968881,0.5642849,0.152274845,0.013751445
0.269569671,0.564467555,0.152332042,0.013630731
0.269449851,0.564650674,0.152389373,0.013510102
0.269329351,0.564834261,0.152446828,0.013389561
0.269208174,0.565018317,0.152504395,0.013269113
0.269086323,0.565202846,0.152562066,0.013148764
0.268963801,0.565387849,0.152619831,0.013028519
0.26884061,0.565573328,0.152677681,0.012908381
0.268716752,0.565759283,0.152735608,0.012788357
0.268592229,0.565945716,0.152793603,0.012668452
0.268467043,0.566132628,0.152851659,0.012548671
0.268341196,0.566320021,0.152909765,0.012429018
0.26821469,0.566507898,0.152967914,0.012309498
0.268087529,0.566696262,0.153026093,0.012190115
0.267959717,0.566885117,0.153084293,0.012070873
0.267831257,0.567074465,0.153142503,0.011951775
0.267702159,0.567264309,0.153200708,0.011832824
0.267572428,0.56745465,0.153258899,0.011714024
0.267442074,0.567645489,0.153317062,0.011595375
0.267311104,0.567836829,0.153375186,0.01147688
0.267179527,0.568028668,0.153433263,0.011358541
0.267047351,0.568221007,0.153491285,0.011240358
0.266914585,0.568413842,0.153549242,0.01112233
0.266781239,0.568607174,0.153607129,0.011004459
0.266647323,0.568800998,0.153664936,0.010886743
0.266512847,0.568995312,0.153722655,0.010769185
0.266377824,0.569190111,0.153780278,0.010651788
0.266242262,0.56938539,0.153837793,0.010534555
0.266106175,0.569581144,0.153895191,0.01041749
0.265969572,0.569777371,0.153952459,0.010300598
0.265832464,0.569974066,0.154009588,0.010183882
0.26569486,0.570171229,0.154066564,0.010067347
0.265556768,0.57036886,0.154123374,0.009950998
0.265418196,0.570566959,0.154180004,0.009834841
0.26527915,0.570765529,0.154236439,0.009718883
0.26513964,0.570964567,0.154292662,0.009603131
0.264999673,0.571164073,0.154348658,0.009487596
0.264859257,0.571364043,0.154404412,0.009372287
0.2647184,0.571564474,0.154459909,0.009257217
0.264577109,0.571765359,0.154515133,0.009142398
0.264435391,0.571966693,0.154570073,0.009027843
0.264293254,0.572168469,0.154624714,0.008913563
0.264150705,0.57237068,0.154679045,0.00879957
0.264007752,0.572573319,0.154733055,0.008685875
0.263864402,0.572776378,0.154786732,0.008572488
0.263720663,0.572979851,0.154840067,0.008459419
0.263576544,0.57318373,0.154893048,0.008346678
0.263432053,0.573388009,0.154945664,0.008234274
0.2632872,0.573592681,0.154997903,0.008122216
0.263141996,0.57379774,0.155049753,0.008010512
0.26299645,0.574003179,0.155101202,0.00789917
0.262850574,0.574208993,0.155152235,0.007788198
0.262704378,0.574415178,0.155202839,0.007677605
0.262557874,0.574621726,0.155253001,0.007567399
0.262411072,0.574828634,0.155302708,0.007457587
0.262263984,0.575035892,0.155351947,0.007348177
0.262116622,0.575243493,0.155400707,0.007239178
0.261968998,0.575451426,0.155448976,0.0071306
0.261821125,0.575659683,0.155496741,0.007022451
0.261673015,0.575868251,0.155543991,0.006914743
0.261524679,0.576077121,0.155590715,0.006807486
0.261376129,0.576286283,0.155636901,0.006700687
0.261227374,0.576495728,0.155682541,0.006594358
0.261078422,0.576705446,0.155727627,0.006488506
0.26092928,0.576915428,0.155772153,0.006383139
0.260779954,0.577125667,0.155816111,0.006278268
0.260630449,0.577336156,0.155859495,0.0061739
0.260480769,0.577546891,0.155902296,0.006070044
0.26033092,0.577757865,0.155944506,0.005966708
0.260180906,0.577969076,0.155986115,0.005863903
0.260030729,0.578180521,0.156027114,0.005761636
0.259880394,0.578392196,0.156067494,0.005659916
0.259729904,0.5786041,0.156107244,0.005558752
0.25957926,0.578816233,0.156146356,0.005458151
0.259428464,0.579028595,0.15618482,0.005358121
0.259277518,0.579241186,0.156222627,0.005258669
0.259126422,0.579454008,0.156259768,0.005159802
0.258975177,0.579667064,0.156296234,0.005061526
0.258823784,0.579880355,0.156332016,0.004963845
0.258672244,0.580093887,0.156367105,0.004866764
0.25852056,0.580307662,0.156401492,0.004770286
0.258368734,0.580521687,0.156435165,0.004674414
0.258216768,0.580735967,0.156468114,0.004579151
0.258064664,0.58095051,0.156500327,0.004484499
0.257912421,0.581165327,0.156531791,0.004390461
0.25776004,0.581380431,0.156562493,0.004297037
0.257607518,0.581595837,0.156592418,0.004204228
0.257454853,0.581811562,0.156621549,0.004112035
0.257302043,0.582027625,0.156649873,0.004020459
0.257149086,0.582244041,0.156677372,0.003929501
0.25699598,0.582460826,0.156704032,0.003839162
0.256842722,0.582677995,0.15672984,0.003749443
0.256689309,0.582895563,0.156754781,0.003660347
0.256535739,0.583113543,0.156778843,0.003571874
0.256382007,0.583331953,0.156802012,0.003484027
0.256228108,0.58355081,0.156824274,0.003396808
0.256074036,0.583770132,0.156845615,0.003310216
0.255919785,0.583989941,0.156866021,0.003224253
0.255765348,0.584210256,0.156885478,0.003138918
0.255610719,0.5844311,0.15690397,0.003054211
0.255455893,0.584652494,0.156921481,0.002970132
0.255300866,0.584874459,0.156937997,0.002886678
0.255145631,0.585097018,0.156953501,0.00280385
0.254990186,0.585320192,0.156967977,0.002721645
0.254834524,0.585544004,0.15698141,0.002640062
0.254678643,0.585768473,0.156993784,0.002559099
0.254522537,0.585993621,0.157005088,0.002478754
0.2543662,0.586219463,0.15701531,0.002399027
0.254209627,0.586446017,0.157024439,0.002319917
0.254052813,0.586673299,0.157032466,0.002241422
0.253895753,0.586901324,0.157039381,0.002163543
0.25373844,0.587130109,0.157045172,0.002086279
0.25358087,0.587359671,0.157049828,0.002009631
0.253423037,0.587590027,0.157053339,0.001933597
0.253264936,0.587821196,0.157055692,0.001858176
0.253106561,0.588053196,0.157056876,0.001783367
0.252947906,0.588286045,0.15705688,0.00170917
0.252788967,0.58851976,0.15705569,0.001635583
0.252629739,0.58875436,0.157053297,0.001562604
0.252470217,0.588989862,0.157049688,0.001490233
0.2523104,0.589226282,0.157044853,0.001418466
0.252150282,0.589463636,0.157038781,0.001347301
0.251989861,0.589701939,0.157031464,0.001276736
0.251829132,0.589941206,0.157022894,0.001206769
0.25166809,0.590181448,0.157013064,0.001137398
0.251506731,0.590422677,0.157001969,0.001068623
0.25134505,0.590664905,0.156989603,0.001000442
0.251183042,0.590908142,0.15697596,0.000932856
0.251020703,0.591152397,0.156961036,0.000865864
0.250858031,0.591397679,0.156944826,0.000799465
0.250695021,0.591643998,0.156927323,0.000733659
0.250531672,0.591891364,0.15690852,0.000668443
0.250367985,0.592139785,0.156888413,0.000603817
0.250203958,0.592389272,0.156866993,0.000539777
0.250039594,0.592639831,0.156844253,0.000476321
0.249874898,0.592891469,0.156820187,0.000413446
0.249709875,0.593144191,0.156794787,0.000351148
0.249544534,0.593398,0.156768043,0.000289422
0.249378884,0.5936529,0.15673995,0.000228266
0.249212933,0.593908892,0.156710501,0.000167674
0.24904669,0.59416598,0.156679688,0.000107642
0.248880164,0.594424164,0.156647509,4.82E-05
0.248713361,0.594683447,0.156613956,-1.08E-05
0.248546289,0.594943833,0.156579027,-6.91E-05
0.248378953,0.595205322,0.156542716,-0.000126991
0.248211362,0.595467918,0.156505018,-0.000184298
0.006863644,0.257009841,0.389854849,0.346271666
0.006986947,0.256891913,0.389774886,0.346346253
0.007110747,0.256771785,0.389694621,0.346422847
0.00723503,0.256649473,0.389614066,0.346501431
0.007359783,0.256524992,0.389533233,0.346581992
0.007484992,0.256398362,0.389452135,0.346664511
0.007610644,0.256269598,0.389370783,0.346748974
0.007736726,0.25613872,0.389289191,0.346835364
0.007863223,0.256005745,0.389207369,0.346923664
0.007990121,0.255870691,0.389125329,0.347013858
0.008117409,0.255733579,0.389043082,0.34710593
0.008245072,0.255594427,0.388960639,0.347199862
0.008373097,0.255453256,0.388878011,0.347295636
0.00850147,0.255310087,0.388795209,0.347393235
0.008630178,0.255164942,0.388712242,0.347492639
0.008759207,0.255017845,0.38862912,0.347593828
0.008888544,0.254868819,0.388545854,0.347696783
0.009018174,0.25471789,0.388462451,0.347801485
0.009148084,0.254565082,0.388378923,0.347907911
0.009278259,0.254410421,0.388295279,0.348016041
0.009408686,0.254253932,0.38821153,0.348125852
0.009539351,0.254095641,0.388127688,0.34823732
0.009670242,0.253935574,0.388043762,0.348350422
0.009801344,0.253773756,0.387959765,0.348465135
0.009932646,0.253610213,0.387875707,0.348581434
0.010064136,0.253444971,0.387791596,0.348699297
0.010195803,0.253278055,0.387707441,0.348818701
0.010327636,0.25310949,0.387623249,0.348939624
0.010459626,0.252939301,0.387539027,0.349062046
0.010591762,0.252767515,0.387454778,0.349185946
0.010724033,0.252594155,0.387370509,0.349311303
0.010856431,0.252419249,0.387286224,0.349438096
0.010988946,0.252242821,0.387201928,0.349566305
0.011121567,0.2520649,0.387117626,0.349695907
0.011254285,0.251885511,0.387033321,0.349826883
0.011387089,0.25170468,0.38694902,0.34995921
0.01151997,0.251522435,0.386864727,0.350092868
0.011652917,0.251338802,0.386780449,0.350227833
0.011785918,0.251153807,0.386696191,0.350364083
0.011918965,0.250967479,0.386611961,0.350501595
0.012052047,0.250779844,0.386527764,0.350640345
0.012185154,0.25059093,0.386443608,0.350780308
0.012318277,0.250400764,0.386359499,0.35092146
0.012451405,0.250209374,0.386275445,0.351063777
0.012584528,0.250016789,0.38619145,0.351207233
0.012717637,0.249823036,0.386107522,0.351351805
0.01285072,0.249628144,0.386023667,0.351497469
0.012983768,0.24943214,0.385939889,0.351644202
0.01311677,0.249235053,0.385856193,0.351791984
0.013249715,0.24903691,0.385772582,0.351940793
0.013382592,0.248837739,0.385689059,0.35209061
0.01351539,0.248637569,0.385605625,0.352241416
0.013648097,0.248436428,0.385522281,0.352393193
0.013780704,0.248234345,0.385439029,0.352545922
0.013913198,0.248031349,0.385355871,0.352699582
0.014045569,0.24782747,0.385272806,0.352854155
0.014177804,0.247622741,0.385189836,0.35300962
0.014309893,0.247417192,0.385106959,0.353165955
0.014441824,0.247210857,0.385024179,0.35332314
0.014573587,0.247003766,0.384941495,0.353481152
0.01470517,0.246795952,0.38485891,0.353639969
0.014836563,0.246587447,0.384776422,0.353799569
0.014967755,0.246378283,0.384694031,0.353959931
0.015098736,0.246168493,0.384611735,0.354121036
0.015229493,0.245958109,0.384529534,0.354282864
0.015360016,0.245747162,0.384447427,0.354445395
0.015490294,0.245535681,0.384365414,0.354608611
0.015620315,0.245323693,0.384283497,0.354772494
0.015750069,0.245111228,0.384201676,0.354937026
0.015879544,0.244898312,0.384119953,0.355102191
0.016008729,0.244684972,0.384038328,0.355267972
0.016137613,0.244471234,0.383956803,0.35543435
0.016266187,0.244257126,0.383875379,0.355601308
0.016394438,0.244042675,0.383794058,0.35576883
0.016522355,0.243827908,0.383712839,0.355936898
0.016649929,0.243612854,0.383631724,0.356105493
0.016777148,0.243397539,0.383550714,0.356274599
0.016904002,0.243181993,0.383469809,0.356444196
0.017030479,0.242966244,0.383389013,0.356614265
0.01715657,0.242750319,0.383308325,0.356784786
0.017282264,0.24253425,0.383227748,0.356955739
0.01740755,0.242318065,0.383147282,0.357127103
0.01753242,0.242101793,0.383066928,0.357298859
0.017656863,0.241885463,0.382986686,0.357470989
0.017780868,0.241669101,0.382906556,0.357643474
0.017904426,0.241452738,0.38282654,0.357816296
0.018027527,0.241236399,0.382746638,0.357989436
0.018150162,0.241020115,0.38266685,0.358162873
0.018272321,0.240803911,0.38258718,0.358336588
0.018393995,0.240587816,0.382507628,0.358510562
0.018515175,0.240371854,0.382428196,0.358684775
0.018635853,0.240156051,0.382348885,0.358859212
0.018756019,0.239940428,0.382269698,0.359033854
0.018875666,0.239725009,0.382190636,0.359208689
0.018994786,0.239509812,0.382111699,0.359383703
0.01911337,0.239294861,0.382032887,0.359558882
0.019231412,0.239080175,0.381954202,0.359734212
0.019348903,0.238865775,0.381875643,0.359909678
0.019465838,0.238651683,0.381797213,0.360085266
0.019582209,0.238437919,0.38171891,0.360260961
0.019698011,0.238224504,0.381640738,0.360436747
0.019813237,0.238011456,0.381562697,0.36061261
0.019927881,0.237798795,0.381484791,0.360788533
0.020041937,0.237586537,0.381407026,0.360964499
0.0201554,0.237374699,0.38132941,0.361140491
0.020268263,0.237163296,0.38125195,0.361316491
0.020380521,0.236952343,0.381174659,0.361492477
0.020492168,0.236741853,0.381097546,0.361668433
0.0206032,0.236531842,0.381020622,0.361844336
0.020713609,0.236322322,0.3809439,0.362020169
0.020823391,0.236113306,0.38086739,0.362195912
0.020932542,0.235904808,0.380791105,0.362371545
0.021041054,0.235696842,0.380715056,0.362547048
0.021148923,0.235489421,0.380639252,0.362722404
0.021256145,0.235282558,0.380563702,0.362897595
0.021362713,0.235076264,0.380488415,0.363072608
0.021468623,0.23487055,0.380413398,0.363247429
0.021573868,0.234665428,0.380338659,0.363422044
0.021678445,0.234460908,0.380264208,0.36359644
0.021782348,0.234257,0.380190052,0.3637706
0.021885572,0.234053714,0.380116203,0.363944511
0.021988112,0.23385106,0.380042671,0.364118157
0.022089964,0.233649047,0.379969466,0.364291523
0.022191123,0.233447684,0.379896598,0.364464595
0.022291585,0.233246981,0.379824075,0.364637359
0.022391344,0.233046945,0.379751907,0.364809803
0.022490397,0.232847585,0.379680103,0.364981915
0.022588738,0.23264891,0.379608671,0.365153681
0.022686365,0.232450927,0.379537618,0.36532509
0.022783271,0.232253644,0.379466954,0.365496131
0.022879454,0.232057067,0.379396684,0.365666795
0.022974909,0.231861202,0.379326817,0.365837071
0.023069633,0.231666056,0.37925736,0.366006951
0.023163622,0.231471634,0.379188319,0.366176425
0.023256873,0.231277944,0.379119701,0.366345482
0.023349381,0.231084992,0.379051512,0.366514115
0.023441144,0.230892785,0.378983755,0.366682316
0.02353216,0.230701329,0.378916436,0.366850075
0.023622424,0.230510631,0.378849558,0.367017387
0.023711936,0.230320696,0.378783125,0.367184243
0.023800691,0.23013153,0.378717143,0.367350636
0.023888687,0.229943136,0.378651619,0.367516558
0.023975921,0.229755517,0.378586563,0.367681998
0.024062391,0.229568677,0.378521983,0.367846948
0.024148095,0.229382618,0.378457889,0.368011398
0.02423303,0.229197343,0.378394289,0.368175338
0.024317194,0.229012856,0.37833119,0.36833876
0.024400587,0.228829159,0.378268601,0.368501654
0.024483205,0.228646255,0.378206528,0.368664012
0.024565049,0.228464148,0.378144979,0.368825823
0.024646117,0.22828284,0.378083963,0.368987079
0.024726408,0.228102335,0.378023488,0.369147769
0.024805923,0.227922634,0.37796356,0.369307884
0.024884661,0.22774374,0.377904187,0.369467412
0.024962622,0.227565655,0.377845377,0.369626345
0.025039809,0.227388384,0.377787137,0.36978467
0.025116223,0.227211927,0.377729472,0.369942378
0.025191864,0.227036288,0.37767239,0.370099458
0.025266735,0.226861469,0.377615894,0.370255902
0.025340836,0.226687472,0.377559989,0.370411703
0.025414171,0.226514296,0.377504679,0.370566853
0.025486742,0.226341942,0.377449968,0.370721348
0.02555855,0.226170407,0.377395858,0.370875185
0.025629598,0.225999691,0.377342351,0.371028361
0.025699888,0.225829789,0.377289447,0.371180877
0.025769423,0.225660696,0.377237147,0.371332734
0.025838204,0.225492406,0.377185454,0.371483937
0.025906234,0.225324912,0.377134366,0.371634487
0.025973516,0.22515821,0.377083883,0.371784391
0.026040051,0.224992291,0.377034006,0.371933652
0.026105841,0.22482715,0.376984732,0.372082277
0.02617089,0.22466278,0.376936059,0.372230271
0.026235199,0.224499174,0.376887985,0.372377642
0.026298771,0.224336325,0.376840508,0.372524396
0.026361609,0.224174226,0.376793626,0.37267054
0.026423715,0.224012867,0.376747339,0.372816079
0.026485093,0.223852239,0.376701648,0.37296102
0.026545744,0.223692331,0.376656557,0.373105368
0.026605672,0.223533133,0.376612068,0.373249126
0.02666488,0.223374634,0.376568183,0.373392302
0.026723371,0.223216824,0.376524905,0.3735349
0.026781148,0.223059692,0.376482234,0.373676926
0.026838214,0.222903229,0.37644017,0.373818387
0.026894572,0.222747424,0.376398714,0.373959291
0.026950224,0.222592268,0.376357863,0.374099645
0.027005176,0.222437754,0.376317614,0.374239456
0.027059428,0.222283875,0.376277963,0.374378733
0.027112986,0.222130624,0.376238906,0.374517485
0.027165853,0.221977993,0.376200435,0.37465572
0.027218031,0.221825973,0.376162543,0.374793453
0.027269526,0.221674556,0.376125221,0.374930698
0.027320339,0.221523732,0.376088456,0.375067473
0.027370474,0.221373493,0.376052236,0.375203797
0.027419934,0.221223829,0.37601655,0.375339688
0.027468722,0.221074731,0.375981384,0.375475164
0.02751684,0.22092619,0.375946726,0.375610245
0.027564291,0.220778198,0.375912562,0.37574495
0.027611078,0.220630746,0.37587888,0.375879296
0.027657204,0.220483827,0.375845667,0.376013303
0.027702672,0.220337431,0.375812909,0.376146988
0.027747485,0.22019155,0.375780596,0.376280369
0.027791647,0.220046177,0.375748715,0.376413462
0.027835161,0.219901306,0.375717253,0.376546281
0.02787803,0.219756931,0.375686197,0.376678842
0.02792026,0.219613047,0.375655533,0.376811161
0.027961853,0.219469648,0.375625244,0.376943254
0.028002814,0.219326729,0.375595318,0.377075139
0.028043147,0.219184285,0.375565737,0.377206831
0.028082856,0.21904231,0.375536487,0.377338347
0.028121946,0.218900801,0.375507553,0.377469701
0.028160422,0.218759751,0.375478918,0.37760091
0.028198289,0.218619155,0.375450567,0.377731989
0.028235552,0.218479007,0.375422485,0.377862955
0.028272217,0.218339303,0.375394658,0.377993822
0.028308286,0.218200036,0.375367072,0.378124606
0.028343766,0.218061201,0.375339712,0.378255321
0.028378661,0.217922791,0.375312566,0.378385982
0.028412976,0.217784799,0.37528562,0.378516605
0.028446715,0.21764722,0.375258863,0.378647202
0.028479884,0.217510048,0.375232282,0.378777787
0.028512486,0.217373279,0.375205865,0.378908369
0.028544528,0.21723691,0.375179603,0.379038959
0.028576012,0.217100936,0.375153486,0.379169566
0.028606944,0.216965356,0.375127503,0.379300197
0.028637327,0.216830169,0.375101646,0.379430858
0.028667166,0.216695374,0.375075904,0.379561556
0.028696464,0.216560972,0.375050268,0.379692296
0.028725226,0.216426963,0.375024728,0.379823084
0.028753456,0.216293348,0.374999273,0.379953923
0.028781158,0.216160127,0.374973897,0.380084818
0.028808338,0.216027301,0.37494859,0.380215771
0.028834998,0.215894871,0.374923347,0.380346784
0.028861142,0.215762839,0.374898161,0.380477857
0.028886776,0.215631206,0.374873026,0.380608991
0.028911903,0.215499977,0.374847934,0.380740186
0.028936527,0.215369155,0.374822878,0.38087144
0.028960652,0.215238748,0.374797852,0.381002749
0.02898428,0.215108761,0.374772849,0.38113411
0.029007416,0.214979199,0.374747864,0.381265521
0.029030064,0.214850068,0.37472289,0.381396979
0.029052227,0.214721374,0.374697919,0.38152848
0.029073908,0.214593125,0.374672944,0.381660023
0.029095112,0.214465325,0.374647957,0.381791605
0.029115843,0.214337982,0.374622952,0.381923223
0.029136104,0.214211099,0.374597924,0.382054874
0.029155899,0.214084682,0.374572868,0.382186552
0.029175232,0.213958734,0.37454778,0.382318254
0.029194106,0.21383326,0.374522658,0.382449976
0.029212526,0.213708264,0.374497497,0.382581713
0.029230494,0.213583751,0.374472294,0.382713461
0.029248014,0.213459725,0.374447046,0.382845215
0.02926509,0.213336192,0.37442175,0.382976968
0.029281724,0.213213157,0.374396404,0.383108715
0.029297921,0.213090626,0.374371007,0.383240446
0.029313682,0.212968605,0.374345559,0.383372154
0.02932901,0.212847096,0.374320063,0.38350383
0.02934391,0.212726105,0.374294519,0.383635465
0.029358383,0.212605635,0.374268932,0.38376705
0.029372432,0.21248569,0.374243305,0.383898573
0.02938606,0.212366273,0.374217643,0.384030025
0.029399269,0.212247387,0.374191949,0.384161394
0.029412064,0.212129037,0.374166228,0.384292672
0.029424445,0.212011224,0.374140485,0.384423847
0.029436416,0.211893953,0.374114722,0.384554908
0.029447981,0.211777228,0.374088945,0.384685846
0.02945914,0.211661054,0.374063157,0.384816649
0.029469898,0.211545437,0.374037362,0.384947304
0.029480256,0.21143038,0.374011562,0.385077802
0.029490218,0.211315889,0.37398576,0.385208133
0.029499786,0.21120197,0.373959957,0.385338287
0.029508963,0.211088628,0.373934152,0.385468257
0.029517753,0.210975869,0.373908343,0.385598035
0.029526157,0.210863699,0.373882527,0.385727617
0.029534178,0.210752125,0.3738567,0.385856997
0.029541819,0.210641152,0.373830858,0.385986171
0.029549083,0.210530786,0.373804997,0.386115134
0.029555973,0.210421032,0.373779115,0.38624388
0.029562491,0.210311897,0.373753208,0.386372404
0.029568641,0.210203384,0.373727273,0.386500701
0.029574426,0.2100955,0.373701308,0.386628766
0.029579849,0.209988247,0.37367531,0.386756594
0.029584912,0.209881631,0.373649276,0.386884181
0.029589619,0.209775654,0.373623201,0.387011525
0.029593974,0.209670322,0.373597083,0.387138622
0.029597979,0.209565637,0.373570917,0.387265467
0.029601637,0.209461604,0.373544699,0.38739206
0.029604951,0.209358228,0.373518424,0.387518397
0.029607925,0.209255513,0.373492084,0.387644478
0.02961056,0.209153464,0.373465673,0.387770302
0.02961286,0.209052087,0.373439185,0.387895868
0.029614828,0.208951385,0.373412612,0.388021175
0.029616466,0.208851363,0.373385949,0.388146222
0.029617776,0.208752024,0.373359191,0.388271009
0.029618761,0.208653372,0.373332334,0.388395532
0.029619425,0.20855541,0.373305379,0.388519786
0.029619768,0.208458141,0.373278326,0.388643766
0.029619792,0.208361568,0.373251175,0.388767464
0.0296195,0.208265696,0.373223932,0.388890872
0.029618893,0.208170527,0.373196599,0.38901398
0.029617973,0.208076063,0.373169186,0.389136779
0.02961674,0.207982305,0.373141696,0.389259259
0.029615195,0.207889253,0.373114138,0.389381415
0.02961334,0.207796907,0.373086515,0.389503238
0.029611175,0.207705265,0.373058836,0.389624724
0.029608703,0.207614327,0.373031106,0.389745864
0.029605922,0.207524091,0.373003335,0.389866652
0.029602835,0.207434555,0.37297553,0.38998708
0.029599442,0.207345719,0.3729477,0.390107139
0.029595744,0.207257578,0.372919855,0.390226823
0.029591742,0.207170131,0.372892003,0.390346124
0.029587436,0.207083373,0.372864155,0.390465036
0.029582828,0.2069973,0.372836319,0.390583553
0.029577919,0.20691191,0.372808504,0.390701667
0.02957271,0.206827197,0.372780721,0.390819372
0.029567202,0.206743159,0.372752981,0.390936659
0.029561397,0.20665979,0.372725292,0.391053521
0.029555295,0.206577088,0.372697664,0.391169953
0.029548899,0.206495049,0.372670106,0.391285947
0.029542209,0.206413666,0.372642625,0.391401499
0.029535227,0.206332938,0.372615231,0.391516604
0.029527955,0.206252858,0.37258793,0.391631258
0.029520392,0.206173421,0.37256073,0.391745457
0.029512541,0.206094622,0.372533637,0.3918592
0.029504403,0.206016454,0.372506659,0.391972484
0.029495978,0.205938912,0.372479804,0.392085306
0.029487268,0.205861988,0.372453082,0.392197662
0.029478275,0.205785674,0.372426503,0.392309548
0.029468997,0.205709963,0.372400081,0.392420958
0.029459438,0.205634846,0.372373829,0.392531887
0.029449597,0.205560316,0.372347761,0.392642326
0.029439476,0.205486367,0.372321892,0.392752266
0.029429075,0.205412992,0.372296236,0.392861696
0.029418396,0.205340187,0.372270809,0.392970608
0.029407439,0.205267945,0.372245625,0.393078991
0.029396206,0.20519626,0.3722207,0.393186835
0.029384697,0.205125127,0.372196047,0.393294129
0.029372914,0.20505454,0.372171681,0.393400864
0.029360859,0.204984493,0.372147618,0.39350703
0.029348531,0.204914981,0.372123871,0.393612618
0.029335932,0.204845995,0.372100454,0.393717619
0.029323064,0.204777529,0.372077383,0.393822023
0.029309929,0.204709575,0.372054672,0.393925825
0.029296528,0.204642125,0.372032334,0.394029014
0.029282864,0.204575169,0.372010385,0.394131582
0.029268939,0.204508699,0.37198884,0.394233521
0.029254755,0.204442706,0.371967717,0.394334822
0.029240314,0.20437718,0.371947029,0.394435476
0.029225619,0.204312114,0.371926793,0.394535474
0.02921067,0.2042475,0.371907024,0.394634806
0.029195471,0.204183333,0.371887735,0.394733462
0.029180022,0.204119606,0.371868939,0.394831433
0.029164327,0.204056315,0.37185065,0.394928708
0.029148386,0.203993457,0.371832879,0.395025278
0.029132202,0.203931027,0.371815638,0.395121133
0.029115777,0.203869023,0.371798938,0.395216263
0.029099112,0.203807439,0.371782791,0.395310658
0.02908221,0.203746273,0.371767208,0.395404309
0.029065072,0.203685521,0.3717522,0.395497207
0.029047701,0.203625178,0.371737777,0.395589344
0.029030097,0.20356524,0.37172395,0.395680712
0.029012264,0.203505702,0.37171073,0.395771303
0.028994203,0.203446561,0.371698128,0.395861108
0.028975916,0.203387811,0.371686154,0.395950119
0.028957405,0.203329447,0.37167482,0.396038328
0.02893867,0.203271465,0.371664138,0.396125726
0.028919715,0.20321386,0.371654122,0.396212303
0.028900539,0.203156629,0.371644784,0.396298048
0.028881144,0.203099766,0.371636137,0.396382953
0.028861533,0.203043266,0.371628193,0.396467008
0.028841706,0.202987126,0.371620963,0.396550206
0.028821665,0.202931337,0.371614455,0.396632543
0.028801413,0.202875895,0.371608678,0.396714013
0.028780951,0.202820794,0.371603639,0.396794616
0.028760282,0.202766027,0.371599343,0.396874349
0.028739406,0.202711588,0.371595794,0.396953211
0.028718327,0.202657473,0.371592998,0.397031202
0.028697046,0.202603677,0.371590956,0.397108321
0.028675566,0.202550193,0.371589673,0.397184568
0.028653889,0.202497018,0.371589151,0.397259942
0.028632018,0.202444148,0.371589391,0.397334443
0.028609954,0.202391578,0.371590397,0.397408071
0.028587702,0.202339303,0.371592169,0.397480826
0.028565262,0.202287319,0.371594712,0.397552707
0.028542639,0.202235621,0.371598026,0.397623715
0.028519833,0.202184202,0.371602114,0.397693851
0.028496847,0.202133057,0.371606981,0.397763115
0.028473684,0.202082179,0.371612628,0.397831508
0.028450345,0.20203156,0.371619062,0.397899033
0.028426832,0.201981192,0.371626284,0.397965691
0.028403146,0.201931067,0.371634301,0.398031486
0.02837929,0.201881174,0.371643115,0.398096421
0.028355265,0.201831508,0.371652729,0.398160498
0.028331074,0.201782059,0.371663147,0.39822372
0.028306718,0.20173282,0.371674373,0.398286089
0.028282199,0.201683782,0.371686412,0.398347607
0.028257519,0.201634938,0.371699266,0.398408277
0.028232681,0.20158628,0.371712939,0.398468101
0.028207686,0.201537799,0.371727434,0.398527082
0.028182535,0.201489488,0.371742754,0.398585223
0.028157232,0.201441339,0.371758901,0.398642528
0.028131779,0.201393346,0.371775876,0.398699
0.028106176,0.2013455,0.371793683,0.398754641
0.028080427,0.201297796,0.371812325,0.398809452
0.028054532,0.201250229,0.371831806,0.398863433
0.028028495,0.201202792,0.37185213,0.398916583
0.028002317,0.20115548,0.371873303,0.3989689
0.027976,0.201108291,0.371895327,0.399020382
0.027949546,0.201061218,0.371918207,0.39907103
0.027922956,0.201014258,0.371941946,0.399120841
0.027896232,0.200967405,0.371966547,0.399169816
0.027869376,0.200920656,0.371992012,0.399217955
0.02784239,0.200874007,0.372018343,0.39926526
0.027815276,0.200827453,0.372045538,0.399311733
0.027788034,0.20078099,0.372073597,0.399357379
0.027760666,0.200734615,0.372102515,0.399402204
0.027733173,0.200688322,0.372132291,0.399446214
0.027705557,0.200642109,0.372162921,0.399489413
0.027677819,0.200595973,0.372194401,0.399531807
0.027649961,0.20054991,0.372226728,0.399573401
0.027621983,0.200503919,0.372259899,0.399614198
0.027593888,0.200457999,0.37229391,0.399654203
0.027565676,0.200412147,0.372328758,0.399693419
0.027537348,0.200366363,0.372364439,0.399731849
0.027508908,0.200320644,0.372400949,0.399769499
0.027480354,0.200274989,0.372438284,0.399806372
0.02745169,0.200229395,0.37247644,0.399842475
0.027422917,0.200183859,0.372515411,0.399877813
0.027394035,0.200138379,0.372555194,0.399912392
0.027365048,0.200092951,0.372595781,0.399946219
0.027335956,0.200047572,0.372637167,0.399979305
0.027306761,0.200002239,0.372679342,0.400011658
0.027277465,0.199956947,0.372722299,0.400043289
0.027248071,0.199911695,0.372766027,0.400074208
0.027218579,0.199866478,0.372810517,0.400104426
0.027188992,0.199821296,0.37285576,0.400133952
0.027159311,0.199776146,0.372901747,0.400162796
0.027129539,0.199731026,0.372948468,0.400190967
0.027099677,0.199685934,0.372995913,0.400218476
0.027069726,0.199640868,0.373044073,0.400245333
0.027039689,0.199595824,0.373092939,0.400271547
0.027009568,0.199550802,0.373142502,0.400297128
0.026979363,0.199505798,0.373192753,0.400322087
0.026949077,0.19946081,0.373243681,0.400346433
0.026918711,0.199415835,0.373295277,0.400370177
0.026888268,0.19937087,0.373347532,0.40039333
0.026857748,0.199325914,0.373400435,0.400415904
0.026827154,0.199280963,0.373453975,0.400437908
0.026796487,0.199236016,0.373508143,0.400459354
0.026765749,0.199191072,0.373562928,0.40048025
0.026734942,0.19914613,0.373618323,0.400500604
0.026704068,0.199101192,0.37367432,0.40052042
0.026673127,0.199056258,0.373730911,0.400539703
0.026642123,0.199011331,0.373788092,0.400558455
0.026611055,0.198966412,0.373845859,0.400576674
0.026579926,0.198921503,0.373904208,0.400594363
0.026548737,0.198876604,0.373963137,0.400611522
0.026517489,0.198831718,0.374022642,0.400628151
0.026486185,0.198786844,0.374082721,0.40064425
0.026454825,0.198741984,0.37414337,0.400659821
0.02642341,0.198697139,0.374204586,0.400674864
0.026391944,0.19865231,0.374266366,0.40068938
0.026360425,0.198607498,0.374328706,0.40070337
0.026328857,0.198562706,0.374391602,0.400716835
0.02629724,0.198517935,0.37445505,0.400729775
0.026265575,0.198473189,0.374519045,0.40074219
0.026233864,0.198428468,0.374583585,0.400754082
0.026202109,0.198383776,0.374648665,0.40076545
0.026170309,0.198339115,0.374714278,0.400776297
0.026138468,0.198294486,0.374780422,0.400786624
0.026106585,0.198249893,0.37484709,0.400796432
0.026074664,0.198205337,0.374914277,0.400805722
0.026042705,0.198160821,0.374981979,0.400814495
0.02601071,0.198116347,0.375050192,0.400822751
0.02597868,0.198071919,0.37511891,0.400830491
0.025946618,0.198027537,0.37518813,0.400837715
0.025914525,0.197983206,0.375257844,0.400844424
0.025882403,0.197938927,0.375328048,0.400850622
0.025850252,0.197894704,0.375398735,0.400856309
0.025818076,0.197850537,0.375469897,0.40086149
0.025785874,0.197806428,0.375541528,0.40086617
0.025753649,0.19776238,0.375613619,0.400870352
0.025721402,0.197718391,0.375686165,0.400874043
0.025689134,0.197674462,0.375759158,0.400877246
0.025656847,0.197630595,0.375832591,0.400879967
0.025624542,0.197586789,0.375906459,0.400882211
0.025592221,0.197543043,0.375980756,0.40088398
0.025559885,0.19749936,0.376055477,0.400885279
0.025527535,0.197455737,0.376130619,0.400886109
0.025495173,0.197412176,0.376206177,0.400886474
0.0254628,0.197368676,0.376282148,0.400886376
0.025430418,0.197325236,0.376358529,0.400885818
0.025398027,0.197281856,0.376435316,0.400884801
0.02536563,0.197238534,0.376512508,0.400883327
0.025333228,0.197195271,0.376590102,0.400881399
0.025300822,0.197152066,0.376668096,0.400879016
0.025268413,0.197108918,0.376746487,0.400876182
0.025236004,0.197065827,0.376825273,0.400872896
0.025203595,0.197022792,0.376904452,0.400869161
0.025171188,0.196979815,0.376984018,0.400864978
0.025138785,0.196936898,0.377063968,0.400860349
0.025106386,0.196894041,0.377144298,0.400855275
0.025073992,0.196851248,0.377225002,0.400849758
0.025041605,0.196808519,0.377306076,0.4008438
0.025009226,0.196765858,0.377387515,0.400837401
0.024976855,0.196723266,0.377469316,0.400830563
0.024944493,0.196680746,0.377551474,0.400823286
0.024912142,0.196638302,0.377633986,0.400815569
0.024879802,0.196595938,0.377716849,0.400807411
0.024847473,0.196553658,0.377800061,0.400798807
0.024815157,0.196511469,0.377883618,0.400789756
0.024782854,0.196469374,0.377967518,0.400780253
0.024750565,0.196427381,0.378051757,0.400770296
0.024718291,0.196385495,0.378136331,0.400759883
0.024686033,0.196343725,0.378221233,0.400749009
0.024653791,0.196302076,0.37830646,0.400737673
0.024621566,0.196260557,0.378392005,0.400725872
0.02458936,0.196219175,0.378477863,0.400713603
0.024557172,0.196177936,0.378564028,0.400700864
0.024525003,0.196136848,0.378650494,0.400687654
0.024492855,0.196095918,0.378737255,0.400673972
0.024460729,0.196055153,0.378824304,0.400659815
0.024428624,0.196014558,0.378911633,0.400645184
