0.028550695,0.329163594,0.487988849,0.154296862
0.029097117,0.328166697,0.487858772,0.154877413
0.029640962,0.327169243,0.487730382,0.155459413
0.030182224,0.326171312,0.487603663,0.156042802
0.030720895,0.325172981,0.487478601,0.156627523
0.031256969,0.324174328,0.487355184,0.157213518
0.031790441,0.323175427,0.487233402,0.15780073
0.032321303,0.322176353,0.487113245,0.158389099
0.032849549,0.321177183,0.4869947,0.158978567
0.033375172,0.320177991,0.486877759,0.159569078
0.033898164,0.31917885,0.486762413,0.160160573
0.03441852,0.318179828,0.486648656,0.160752995
0.034936232,0.317180997,0.486536483,0.161346288
0.035451294,0.316182422,0.486425893,0.161940391
0.035963698,0.31518417,0.486316886,0.162535246
0.036473437,0.314186305,0.486209463,0.163130795
0.036980503,0.313188892,0.486103625,0.16372698
0.037484889,0.312191995,0.485999373,0.164323744
0.037986585,0.311195682,0.485896705,0.164921028
0.038485582,0.310200021,0.485795622,0.165518775
0.038981872,0.309205078,0.485696126,0.166116924
0.039475444,0.30821092,0.485598222,0.166715413
0.039966289,0.307217612,0.485501914,0.167314185
0.040454398,0.306225218,0.485407205,0.16791318
0.040939762,0.305233804,0.485314096,0.168512339
0.041422373,0.304243436,0.485222588,0.169111603
0.041902222,0.303254184,0.485132678,0.169710917
0.0423793,0.302266112,0.485044364,0.170310224
0.0428536,0.301279287,0.48495764,0.170909473
0.043325115,0.30029377,0.484872499,0.171508616
0.043793841,0.299309623,0.484788932,0.172107604
0.044259773,0.298326906,0.484706929,0.172706392
0.04472291,0.297345679,0.484626478,0.173304933
0.04518325,0.296366,0.484547566,0.173903184
0.045640796,0.295387928,0.484470176,0.174501099
0.046095549,0.294411522,0.484394292,0.175098637
0.046547511,0.293436838,0.484319896,0.175695756
0.046996683,0.292463935,0.48424697,0.176292413
0.047443068,0.291492868,0.484175495,0.176888569
0.047886669,0.290523693,0.484105455,0.177484184
0.048327487,0.289556464,0.484036828,0.178079221
0.048765523,0.288591235,0.483969598,0.178673644
0.049200781,0.28762806,0.483903744,0.179267415
0.049633261,0.286666991,0.483839251,0.179860497
0.05006297,0.285708073,0.483776102,0.180452855
0.050489915,0.284751351,0.483714281,0.181044453
0.050914106,0.283796865,0.483653771,0.181635258
0.051335552,0.282844651,0.483594557,0.18222524
0.051754264,0.281894746,0.483536621,0.182814369
0.052170252,0.280947182,0.48347995,0.183402616
0.052583528,0.28000199,0.483424533,0.183989949
0.052994103,0.279059197,0.483370359,0.184576342
0.053401988,0.27811883,0.483317416,0.185161766
0.053807196,0.277180916,0.483265694,0.185746195
0.054209738,0.276245478,0.483215178,0.186329606
0.054609628,0.275312542,0.483165855,0.186911975
0.055006881,0.274382131,0.483117708,0.18749328
0.055401512,0.27345427,0.483070722,0.188073496
0.055793536,0.272528984,0.48302488,0.1886526
0.056182969,0.271606298,0.482980167,0.189230566
0.056569829,0.270686235,0.482936568,0.189807368
0.056954136,0.26976882,0.482894065,0.190382979
0.057335914,0.268854072,0.482852642,0.190957372
0.057715185,0.267942014,0.482812283,0.191530518
0.058091973,0.267032667,0.482772971,0.19210239
0.058466299,0.266126053,0.482734688,0.19267296
0.058838187,0.265222197,0.482697416,0.1932422
0.059207659,0.264321125,0.482661134,0.193810081
0.059574737,0.263422863,0.482625824,0.194376575
0.059939441,0.262527438,0.482591468,0.194941654
0.06030179,0.261634873,0.482558047,0.195505289
0.060661805,0.260745194,0.482525547,0.196067454
0.061019505,0.259858424,0.482493951,0.19662812
0.061374909,0.25897459,0.482463241,0.19718726
0.061728036,0.258093719,0.4824334,0.197744845
0.062078905,0.257215838,0.482404409,0.198300848
0.062427535,0.256340976,0.482376248,0.198855241
0.062773945,0.255469157,0.482348898,0.199408001
0.063118157,0.254600403,0.482322337,0.199959102
0.063460197,0.253734731,0.482296547,0.200508526
0.06380009,0.252872155,0.482271503,0.201056252
0.064137864,0.252012688,0.482247184,0.201602264
0.064473549,0.251156339,0.48222357,0.202146543
0.064807172,0.250303118,0.482200639,0.202689072
0.065138762,0.249453033,0.482178372,0.203229833
0.065468348,0.248606092,0.482156749,0.20376881
0.065795957,0.247762305,0.482135753,0.204305985
0.066121615,0.246921679,0.482115366,0.204841339
0.066445347,0.246084222,0.482095575,0.205374856
0.066767178,0.245249938,0.482076368,0.205906515
0.06708713,0.244418834,0.482057736,0.2064363
0.067405225,0.243590911,0.482039671,0.206964194
0.067721482,0.242766177,0.482022164,0.207490178
0.068035921,0.241944637,0.482005206,0.208014236
0.068348561,0.241126301,0.481988787,0.208536352
0.06865942,0.240311174,0.481972898,0.209056508
0.068968517,0.239499262,0.481957531,0.20957469
0.06927587,0.238690569,0.48194268,0.210090881
0.069581498,0.237885097,0.481928337,0.210605069
0.069885418,0.237082848,0.481914494,0.211117241
0.070187649,0.236283823,0.481901141,0.211627386
0.070488211,0.235488025,0.481888269,0.212135495
0.070787124,0.234695452,0.481875867,0.212641558
0.071084407,0.233906102,0.481863922,0.213145569
0.071380083,0.23311997,0.481852422,0.213647524
0.071674172,0.232337054,0.481841353,0.214147421
0.071966695,0.231557346,0.481830699,0.21464526
0.072257673,0.230780841,0.481820446,0.21514104
0.072547131,0.230007531,0.481810578,0.21563476
0.072835092,0.229237407,0.481801082,0.216126419
0.073121583,0.228470462,0.481791942,0.216616013
0.073406628,0.227706685,0.481783147,0.21710354
0.073690251,0.226946067,0.481774683,0.217588999
0.073972476,0.226188598,0.481766537,0.218072389
0.074253323,0.225434268,0.481758695,0.218553714
0.074532813,0.224683065,0.481751143,0.219032978
0.074810967,0.22393498,0.481743865,0.219510188
0.075087805,0.22319,0.481736845,0.21998535
0.075363348,0.222448112,0.481730066,0.220458473
0.075637616,0.221709303,0.481723512,0.22092957
0.075910629,0.220973556,0.481717165,0.22139865
0.076182408,0.220240857,0.481711008,0.221865727
0.076452971,0.219511193,0.481705025,0.222330811
0.07672234,0.218784548,0.481699199,0.222793913
0.076990534,0.218060907,0.481693517,0.223255041
0.077257572,0.217340256,0.481687966,0.223714206
0.077523473,0.216622579,0.481682532,0.224171417
0.077788255,0.215907859,0.481677205,0.22462668
0.078051937,0.215196083,0.481671974,0.225080006
0.078314535,0.214487232,0.481666833,0.2255314
0.078576065,0.21378129,0.481661776,0.225980869
0.078836543,0.213078236,0.481656801,0.226428419
0.079095983,0.212378054,0.481651908,0.226874056
0.079354399,0.211680724,0.481647093,0.227317784
0.079611804,0.21098623,0.481642357,0.227759609
0.079868213,0.210294554,0.481637697,0.228199536
0.080123638,0.209605679,0.481633113,0.228637571
0.080378092,0.208919587,0.481628604,0.229073718
0.080631587,0.208236262,0.48162417,0.229507981
0.080884135,0.207555685,0.481619813,0.229940366
0.081135747,0.206877841,0.481615535,0.230370877
0.08138643,0.206202711,0.481611339,0.23079952
0.081636195,0.20553028,0.481607227,0.231226298
0.081885046,0.204860535,0.481603203,0.231651216
0.082132992,0.204193462,0.481599268,0.232074277
0.082380037,0.203529053,0.481595427,0.232495483
0.082626186,0.202867298,0.481591682,0.232914834
0.082871442,0.20220819,0.481588037,0.233332331
0.083115808,0.20155172,0.481584497,0.233747975
0.083359288,0.200897883,0.481581066,0.234161763
0.083601884,0.200246673,0.481577748,0.234573695
0.083843599,0.199598086,0.481574548,0.234983767
0.084084432,0.198952121,0.48157147,0.235391977
0.084324386,0.198308777,0.481568518,0.23579832
0.084563459,0.197668053,0.481565695,0.236202793
0.084801651,0.197029951,0.481563007,0.236605392
0.08503896,0.196394472,0.481560456,0.237006112
0.085275384,0.195761621,0.481558045,0.23740495
0.08551092,0.195131403,0.481555779,0.237801899
0.085745563,0.194503823,0.481553661,0.238196953
0.08597931,0.193878886,0.481551696,0.238590108
0.086212156,0.193256594,0.481549887,0.238981363
0.086444096,0.192636951,0.481548238,0.239370715
0.086675126,0.192019956,0.481546752,0.239758166
0.08690524,0.19140561,0.481545434,0.240143715
0.087134433,0.190793915,0.481544287,0.240527365
0.087362698,0.190184873,0.481543315,0.240909114
0.08759003,0.189578488,0.481542519,0.241288963
0.087816422,0.188974763,0.481541901,0.241666915
0.088041864,0.188373702,0.481541463,0.24204297
0.088266352,0.187775311,0.481541205,0.242417132
0.088489877,0.187179594,0.481541126,0.242789404
0.088712431,0.186586556,0.481541224,0.243159789
0.088934009,0.185996206,0.481541496,0.243528289
0.089154602,0.185408553,0.48154194,0.243894905
0.089374203,0.184823608,0.481542551,0.244259638
0.089592804,0.184241379,0.481543328,0.244622489
0.089810397,0.183661877,0.481544267,0.244983458
0.090026977,0.183085111,0.481545367,0.245342545
0.090242536,0.182511087,0.481546625,0.245699753
0.090457067,0.181939813,0.48154804,0.24605508
0.090670566,0.181371295,0.48154961,0.246408529
0.090883027,0.180805539,0.481551334,0.2467601
0.091094445,0.180242549,0.481553213,0.247109794
0.091304816,0.17968233,0.481555244,0.247457611
0.091514135,0.179124884,0.481557429,0.247803552
0.091722398,0.178570215,0.481559769,0.248147618
0.091929602,0.178018324,0.481562264,0.248489811
0.092135743,0.177469213,0.481564915,0.248830129
0.092340821,0.176922882,0.481567723,0.249168574
0.092544832,0.176379331,0.48157069,0.249505147
0.092747776,0.17583856,0.481573816,0.249839848
0.092949651,0.175300567,0.481577105,0.250172677
0.093150455,0.174765351,0.481580558,0.250503636
0.093350187,0.174232909,0.481584177,0.250832727
0.093548845,0.173703239,0.481587965,0.251159952
0.093746427,0.173176335,0.481591923,0.251485314
0.093942933,0.172652196,0.481596056,0.251808816
0.094138359,0.172130815,0.481600364,0.252130461
0.094332706,0.171612192,0.481604852,0.25245025
0.09452597,0.171096321,0.481609524,0.252768186
0.094718151,0.170583199,0.481614382,0.253084268
0.094909247,0.170072822,0.481619434,0.253398497
0.095099258,0.169565185,0.481624684,0.253710873
0.095288185,0.169060281,0.481630139,0.254021395
0.095476027,0.168558104,0.481635807,0.254330062
0.095662785,0.168058647,0.481641695,0.254636873
0.095848459,0.167561906,0.48164781,0.254941825
0.096033049,0.167067875,0.481654159,0.255244917
0.096216555,0.166576549,0.481660748,0.255546148
0.096398979,0.166087924,0.481667581,0.255845516
0.096580323,0.165601991,0.481674665,0.25614302
0.096760589,0.165118746,0.481682006,0.25643866
0.096939777,0.16463818,0.481689609,0.256732434
0.097117891,0.164160285,0.481697483,0.257024341
0.09729493,0.163685056,0.481705633,0.257314381
0.097470896,0.163212487,0.481714064,0.257602553
0.09764579,0.162742572,0.481722783,0.257888855
0.097819612,0.162275308,0.481731793,0.258173287
0.097992364,0.161810691,0.481741099,0.258455847
0.098164045,0.161348715,0.481750704,0.258736535
0.098334658,0.160889378,0.481760614,0.259015351
0.098504202,0.160432676,0.48177083,0.259292293
0.098672679,0.159978606,0.481781355,0.259567361
0.098840088,0.159527167,0.481792192,0.259840554
0.09900643,0.159078357,0.481803342,0.260111871
0.099171707,0.158632174,0.481814806,0.260381313
0.099335918,0.158188616,0.481826587,0.26064888
0.099499066,0.157747676,0.481838686,0.260914572
0.099661151,0.157309352,0.481851108,0.261178389
0.099822174,0.156873639,0.481863858,0.261440329
0.099982138,0.156440531,0.48187694,0.26170039
0.100141045,0.156010025,0.481890359,0.261958571
0.100298896,0.155582118,0.481904117,0.262214869
0.100455693,0.155156807,0.48191822,0.26246928
0.100611437,0.154734088,0.481932673,0.262721802
0.100766128,0.154313958,0.481947481,0.262972433
0.100919769,0.15389641,0.481962651,0.263221171
0.101072359,0.153481439,0.481978189,0.263468013
0.101223899,0.153069039,0.481994103,0.263712959
0.101374388,0.152659206,0.482010401,0.263956004
0.101523827,0.152251936,0.48202709,0.264197148
0.101672212,0.151847224,0.482044175,0.264436388
0.101819544,0.151445068,0.482061661,0.264673726
0.101965821,0.151045465,0.482079552,0.264909162
0.102111042,0.15064841,0.482097852,0.265142695
0.102255205,0.1502539,0.482116567,0.265374328
0.102398309,0.149861929,0.4821357,0.265604062
0.102540352,0.149472494,0.482155256,0.265831898
0.102681332,0.149085592,0.482175237,0.266057838
0.102821247,0.148701221,0.482195647,0.266281885
0.102960096,0.148319378,0.482216486,0.26650404
0.103097877,0.147940064,0.482237756,0.266724304
0.103234589,0.147563277,0.482259457,0.266942677
0.103370233,0.147189017,0.482281591,0.267159159
0.103504806,0.146817283,0.48230416,0.26737375
0.103638309,0.146448075,0.482327165,0.267586451
0.103770743,0.146081392,0.482350606,0.267797259
0.103902107,0.145717234,0.482374483,0.268006175
0.104032405,0.145355602,0.482398794,0.268213199
0.104161638,0.144996495,0.482423538,0.268418329
0.10428981,0.144639913,0.482448712,0.268621566
0.104416923,0.144285854,0.482474313,0.268822909
0.104542981,0.14393432,0.482500339,0.26902236
0.104667987,0.143585307,0.482526787,0.269219918
0.104791945,0.143238817,0.482553652,0.269415586
0.104914856,0.142894848,0.482580931,0.269609365
0.105036723,0.142553399,0.48260862,0.269801258
0.105157548,0.14221447,0.482636716,0.269991266
0.105277334,0.141878057,0.482665219,0.27017939
0.105396083,0.141544157,0.482694128,0.270365633
0.105513795,0.141212767,0.482723444,0.270549994
0.105630473,0.140883883,0.482753168,0.270732476
0.105746117,0.140557502,0.482783304,0.270913078
0.105860727,0.140233619,0.482813852,0.271091802
0.105974304,0.139912231,0.482844816,0.271268648
0.106086848,0.139593334,0.482876198,0.27144362
0.106198361,0.139276921,0.482907999,0.271616719
0.106308842,0.138962986,0.482940221,0.271787951
0.106418294,0.138651523,0.482972864,0.271957319
0.106526718,0.138342523,0.48300593,0.272124829
0.106634115,0.13803598,0.48303942,0.272290485
0.106740488,0.137731886,0.483073333,0.272454293
0.106845838,0.137430236,0.483107672,0.272616255
0.106950167,0.137131021,0.483142435,0.272776377
0.10705348,0.136834239,0.483177621,0.272934661
0.107155777,0.136539883,0.483213231,0.273091109
0.107257062,0.136247951,0.483249263,0.273245725
0.107357337,0.135958439,0.483285717,0.273398507
0.107456603,0.135671346,0.483322594,0.273549458
0.107554862,0.135386672,0.483359891,0.273698576
0.107652115,0.13510442,0.483397606,0.27384586
0.107748363,0.134824593,0.483435734,0.27399131
0.107843606,0.134547197,0.483474273,0.274134923
0.107937847,0.134272235,0.483513219,0.2742767
0.108031087,0.133999709,0.483552567,0.274416637
0.108123326,0.133729623,0.483592316,0.274554735
0.108214567,0.133461979,0.483632462,0.274690992
0.108304809,0.133196779,0.483673004,0.274825409
0.108394053,0.132934023,0.483713939,0.274957985
0.108482299,0.132673713,0.483755266,0.275088722
0.108569549,0.132415848,0.483796983,0.27521762
0.108655803,0.132160429,0.483839088,0.27534468
0.108741061,0.131907454,0.483881579,0.275469905
0.108825325,0.131656921,0.483924456,0.275593298
0.108908596,0.131408826,0.483967716,0.275714861
0.108990876,0.131163167,0.484011358,0.275834599
0.109072167,0.130919939,0.48405538,0.275952515
0.109152471,0.130679138,0.48409978,0.276068611
0.109231793,0.13044076,0.484144556,0.276182891
0.109310136,0.130204801,0.484189706,0.276295357
0.109387505,0.129971255,0.484235226,0.276406014
0.109463902,0.129740118,0.484281115,0.276514865
0.109539332,0.129511381,0.484327369,0.276621917
0.109613799,0.12928504,0.484373986,0.276727175
0.109687307,0.129061085,0.484420964,0.276830644
0.109759859,0.128839511,0.484468299,0.276932332
0.109831459,0.128620308,0.484515988,0.277032245
0.10990211,0.128403469,0.484564029,0.277130391
0.109971818,0.128188985,0.484612419,0.277226779
0.110040587,0.127976845,0.484661153,0.277321415
0.110108422,0.127767041,0.484710229,0.277414309
0.11017533,0.127559559,0.484759643,0.277505468
0.110241319,0.12735439,0.484809392,0.2775949
0.110306395,0.12715152,0.484859472,0.277682613
0.110370567,0.126950937,0.484909879,0.277768617
0.110433843,0.126752628,0.484960609,0.27785292
0.110496232,0.126556578,0.485011658,0.277935532
0.110557741,0.126362775,0.48506302,0.278016463
0.11061838,0.126171203,0.485114693,0.278095723
0.110678157,0.125981848,0.485166671,0.278173324
0.110737081,0.125794695,0.485218949,0.278249276
0.110795159,0.125609727,0.485271523,0.278323592
0.110852399,0.125426929,0.485324388,0.278396284
0.11090881,0.125246286,0.485377541,0.278467362
0.110964399,0.125067783,0.485430979,0.278536838
0.111019174,0.124891405,0.485484697,0.278604724
0.111073142,0.124717136,0.485538693,0.278671029
0.11112631,0.124544961,0.485592964,0.278735764
0.111178686,0.124374867,0.48564751,0.278798937
0.111230277,0.124206838,0.485702327,0.278860558
0.111281089,0.124040862,0.485757415,0.278920635
0.111331128,0.123876922,0.485812774,0.278979176
0.111380403,0.123715004,0.485868406,0.279036188
0.11142892,0.123555092,0.48592431,0.279091678
0.111476687,0.123397171,0.48598049,0.279145652
0.111523713,0.123241224,0.486036948,0.279198115
0.111570006,0.123087237,0.486093687,0.27924907
0.111615574,0.122935192,0.486150712,0.279298521
0.111660426,0.122785074,0.486208026,0.279346473
0.111704571,0.122636868,0.486265633,0.279392929
0.111748017,0.122490558,0.486323534,0.279437891
0.111790774,0.12234613,0.486381732,0.279481365
0.111832849,0.122203568,0.48644023,0.279523353
0.111874253,0.122062858,0.486499027,0.279563861
0.111914993,0.121923985,0.486558126,0.279602895
0.111955078,0.121786933,0.486617528,0.279640461
0.111994516,0.121651687,0.486677232,0.279676564
0.112033315,0.121518234,0.486737238,0.279711213
0.112071483,0.121386558,0.486797547,0.279744412
0.112109028,0.121256644,0.486858159,0.279776168
0.112145958,0.121128477,0.486919075,0.279806489
0.112182282,0.121002042,0.486980294,0.279835381
0.112218008,0.120877322,0.487041818,0.279862852
0.112253144,0.1207543,0.487103646,0.279888911
0.112287697,0.120632959,0.487165778,0.279913565
0.112321676,0.120513283,0.487228216,0.279936825
0.112355087,0.120395252,0.48729096,0.279958701
0.112387938,0.120278849,0.487354011,0.279979202
0.112420236,0.120164054,0.48741737,0.27999834
0.112451987,0.120050849,0.487481038,0.280016127
0.112483198,0.119939213,0.487545013,0.280032576
0.112513875,0.119829128,0.487609295,0.280047702
0.112544024,0.119720572,0.487673886,0.280061518
0.112573651,0.119613526,0.487738786,0.280074037
0.112602763,0.11950797,0.487803996,0.280085271
0.112631365,0.119403885,0.487869518,0.280095233
0.112659462,0.119301252,0.487935354,0.280103932
0.11268706,0.119200052,0.488001506,0.280111381
0.112714163,0.119100271,0.488067976,0.28011759
0.112740778,0.119001889,0.488134765,0.280122568
0.112766907,0.118904893,0.488201875,0.280126325
0.112792555,0.118809266,0.488269306,0.280128872
0.112817728,0.118714993,0.488337061,0.280130218
0.11284243,0.118622058,0.488405141,0.280130371
0.112866667,0.118530448,0.488473547,0.280129338
0.112890444,0.118440147,0.488542282,0.280127126
0.11291377,0.118351141,0.488611347,0.280123741
0.112936653,0.118263414,0.488680743,0.280119189
0.112959102,0.118176952,0.488750472,0.280113475
0.112981126,0.118091738,0.488820533,0.280106603
0.113002737,0.118007756,0.488890926,0.280098581
0.113023943,0.117924989,0.488961654,0.280089414
0.113044757,0.117843423,0.489032713,0.280079107
0.113065189,0.117763039,0.489104105,0.280067667
0.113085252,0.117683821,0.489175827,0.2800551
0.113104959,0.117605752,0.489247878,0.280041411
0.113124319,0.117528818,0.489320255,0.280026608
0.113143346,0.117453002,0.489392957,0.280010695
0.11316205,0.117378291,0.48946598,0.279993679
0.23055492,0.194285976,0.290953091,0.284206013
0.229823467,0.194269249,0.291896034,0.28401125
0.229094346,0.194244124,0.292841727,0.283819803
0.228367592,0.194210726,0.293790056,0.283631626
0.227643242,0.19416918,0.294740906,0.283446672
0.226921332,0.19411961,0.295694163,0.283264896
0.226201895,0.194062141,0.296649713,0.283086251
0.225484962,0.193996897,0.297607444,0.282910697
0.224770562,0.193923999,0.298567247,0.282738193
0.22405872,0.193843563,0.299529018,0.282568699
0.223349462,0.193755706,0.300492656,0.282402175
0.222642812,0.193660543,0.301458061,0.282238584
0.22193879,0.193558186,0.302425135,0.282077889
0.221237417,0.193448746,0.30339378,0.281920058
0.220538712,0.19333233,0.3043639,0.281765058
0.219842693,0.193209041,0.305335406,0.28161286
0.219149379,0.19307898,0.306308208,0.281463433
0.21845879,0.192942247,0.30728222,0.281316743
0.217770946,0.192798938,0.308257354,0.281172761
0.217085868,0.192649149,0.309233528,0.281031455
0.216403573,0.192492978,0.310210656,0.280892794
0.215724078,0.192330518,0.311188655,0.280756748
0.215047401,0.192161867,0.312167442,0.28062329
0.21437356,0.191987117,0.313146935,0.280492388
0.213702573,0.19180636,0.314127056,0.280364012
0.213034458,0.191619683,0.315107729,0.280238131
0.212369236,0.19142717,0.316088883,0.280114711
0.211706929,0.191228902,0.317070449,0.27999372
0.211047561,0.191024959,0.318052361,0.279875119
0.210391157,0.190815417,0.319034552,0.279758873
0.209737743,0.190600356,0.320016958,0.279644944
0.209087341,0.190379851,0.320999515,0.279533294
0.208439974,0.190153976,0.321982164,0.279423886
0.207795665,0.189922804,0.32296485,0.279316682
0.207154439,0.189686405,0.323947517,0.279211639
0.20651632,0.18944485,0.324930115,0.279108715
0.205881335,0.189198207,0.325912588,0.27900787
0.205249506,0.188946548,0.326894884,0.278909062
0.204620859,0.188689943,0.327876948,0.27881225
0.203995414,0.188428469,0.328858725,0.278717392
0.203373192,0.188162197,0.329840162,0.278624448
0.202754212,0.187891202,0.330821207,0.278533379
0.202138492,0.187615553,0.331801807,0.278444148
0.201526046,0.187335319,0.332781912,0.278356723
0.20091689,0.187050568,0.333761472,0.278271069
0.200311039,0.186761368,0.334740436,0.278187157
0.199708504,0.186467786,0.335718753,0.278104958
0.199109295,0.18616989,0.336696368,0.278024447
0.198513423,0.185867747,0.33767323,0.2779456
0.197920895,0.185561423,0.338649287,0.277868395
0.197331719,0.185250984,0.339624489,0.277792807
0.196745902,0.184936498,0.340598787,0.277718814
0.196163448,0.184618031,0.34157213,0.27764639
0.195584362,0.184295651,0.342544474,0.277575513
0.195008649,0.183969422,0.343515771,0.277506159
0.194436312,0.183639409,0.344485975,0.277438304
0.193867355,0.183305677,0.345455041,0.277371926
0.193301782,0.182968291,0.346422918,0.277307008
0.192739596,0.182627311,0.347389559,0.277243534
0.192180795,0.182282802,0.348354913,0.27718149
0.191625381,0.181934829,0.349318926,0.277120864
0.191073352,0.181583457,0.350281546,0.277061645
0.190524703,0.181228758,0.351242718,0.277003821
0.189979435,0.180870799,0.352202385,0.276947381
0.189437543,0.180509653,0.353160491,0.276892313
0.188899026,0.180145388,0.354116977,0.276838609
0.188363879,0.179778075,0.355071786,0.27678626
0.187832098,0.179407782,0.356024859,0.276735262
0.187303678,0.179034577,0.356976136,0.276685609
0.186778616,0.178658527,0.357925558,0.276637299
0.186256904,0.178279704,0.358873062,0.276590331
0.185738536,0.177898175,0.359818588,0.276544701
0.185223506,0.177514013,0.360762071,0.27650041
0.184711811,0.177127287,0.361703449,0.276457453
0.184203447,0.176738065,0.362642658,0.27641583
0.183698413,0.176346415,0.363579635,0.276375537
0.183196706,0.175952405,0.364514317,0.276336571
0.182698325,0.175556104,0.365446642,0.276298929
0.182203263,0.175157581,0.366376548,0.276262608
0.181711517,0.174756904,0.367303976,0.276227602
0.181223086,0.174354142,0.368228865,0.276193907
0.180737966,0.17394936,0.369151155,0.276161519
0.180256158,0.17354262,0.370070787,0.276130435
0.17977766,0.173133986,0.370987702,0.276100652
0.179302472,0.172723519,0.37190184,0.276072169
0.178830589,0.172311285,0.372813145,0.276044981
0.178362008,0.171897351,0.373721558,0.276019084
0.177896723,0.171481782,0.374627023,0.275994472
0.177434729,0.171064642,0.375529488,0.275971141
0.176976021,0.170645992,0.3764289,0.275949087
0.176520591,0.170225894,0.37732521,0.275928305
0.176068435,0.169804403,0.378218371,0.275908791
0.175619545,0.169381578,0.379108339,0.275890538
0.175173915,0.168957474,0.379995073,0.275873538
0.174731535,0.168532148,0.380878534,0.275857782
0.174292398,0.168105656,0.381758689,0.275843257
0.173856494,0.167678055,0.382635506,0.275829945
0.173423813,0.167249401,0.38350896,0.275817826
0.172994343,0.166819754,0.384379027,0.275806876
0.172568071,0.16638917,0.385245692,0.275797067
0.172144985,0.165957708,0.386108935,0.275788372
0.171725071,0.165525424,0.386968742,0.275780763
0.171308316,0.165092376,0.387825093,0.275774215
0.170894708,0.164658622,0.38867797,0.275768701
0.170484229,0.164224225,0.389527352,0.275764194
0.170076866,0.163789248,0.39037322,0.275760666
0.169672601,0.163353756,0.391215552,0.275758091
0.169271417,0.162917811,0.392054331,0.275756441
0.168873298,0.162481475,0.392889538,0.27575569
0.168478226,0.162044806,0.393721157,0.275755811
0.168086182,0.161607864,0.394549173,0.27575678
0.167697149,0.161170705,0.395373573,0.275758573
0.167311106,0.160733382,0.396194346,0.275761166
0.166928033,0.160295947,0.397011482,0.275764538
0.16654791,0.159858449,0.397824974,0.275768667
0.166170714,0.159420935,0.398634815,0.275773535
0.16579642,0.158983454,0.399441002,0.275779125
0.165425,0.15854605,0.400243531,0.275785419
0.165056428,0.158108769,0.4010424,0.275792403
0.164690677,0.157671654,0.401837606,0.275800063
0.164327719,0.157234748,0.402629147,0.275808386
0.163967528,0.156798092,0.403417019,0.275817362
0.163610076,0.156361725,0.40420122,0.275826979
0.163255338,0.155925686,0.404981749,0.275837227
0.162903286,0.155490011,0.405758605,0.275848097
0.162553894,0.155054736,0.406531791,0.27585958
0.162207134,0.154619893,0.407301309,0.275871665
0.161862978,0.154185515,0.408067163,0.275884343
0.1615214,0.153751636,0.408829358,0.275897606
0.161182372,0.153318286,0.409587898,0.275911444
0.160845867,0.152885495,0.410342789,0.275925848
0.160511859,0.152453292,0.411094036,0.275940813
0.160180319,0.152021704,0.411841645,0.275956331
0.159851224,0.151590756,0.412585625,0.275972396
0.159524546,0.15116047,0.413325984,0.275989
0.15920026,0.15073087,0.414062732,0.276006138
0.158878343,0.150301979,0.414795876,0.276023802
0.158558771,0.149873814,0.415525427,0.276041987
0.158241523,0.149446397,0.416251393,0.276060687
0.157926576,0.149019746,0.416973782,0.276079896
0.157613911,0.148593878,0.417692602,0.276099609
0.157303507,0.148168812,0.41840786,0.276119821
0.156995345,0.147744567,0.41911956,0.276140528
0.15668941,0.147321162,0.419827707,0.276161721
0.156385686,0.146898616,0.420532303,0.276183395
0.156084158,0.146476953,0.421233348,0.276205541
0.155784812,0.146056193,0.421930841,0.276228154
0.155487632,0.14563636,0.42262478,0.276251228
0.155192604,0.145217477,0.423315162,0.276274757
0.154899714,0.144799564,0.424001983,0.276298739
0.154608948,0.144382644,0.424685239,0.276323168
0.154320293,0.143966739,0.425364929,0.27634804
0.154033734,0.143551869,0.42604105,0.276373347
0.153749259,0.143138058,0.4267136,0.276399083
0.153466854,0.142725328,0.427382578,0.27642524
0.153186507,0.142313701,0.428047984,0.276451809
0.152908202,0.141903201,0.428709816,0.276478781
0.152631926,0.141493852,0.429368074,0.276506147
0.152357664,0.141085677,0.43002276,0.276533899
0.152085401,0.140678697,0.430673874,0.276562029
0.151815122,0.140272935,0.431321417,0.276590526
0.151546812,0.139868414,0.431965391,0.276619382
0.151280458,0.139465158,0.432605797,0.276648587
0.151016045,0.139063188,0.433242634,0.276678133
0.150753563,0.138662527,0.4338759,0.276708011
0.150493,0.138263195,0.434505592,0.276738213
0.150234349,0.137865211,0.43513171,0.276768731
0.149977598,0.137468595,0.43575425,0.276799557
0.149722739,0.137073366,0.436373213,0.276830683
0.149469761,0.136679541,0.436988598,0.2768621
0.149218656,0.136287138,0.437600405,0.276893802
0.148969413,0.135896172,0.438208634,0.276925781
0.148722026,0.13550666,0.438813285,0.276958028
0.148476488,0.135118615,0.43941436,0.276990537
0.148232792,0.134732047,0.44001186,0.277023301
0.147990932,0.134346968,0.440605785,0.277056314
0.147750903,0.133963384,0.441196138,0.277089575
0.147512697,0.133581304,0.44178292,0.277123079
0.147276307,0.133200735,0.442366132,0.277156826
0.147041726,0.132821685,0.442945771,0.277190817
0.146808946,0.132444161,0.443521837,0.277225057
0.146577956,0.132068169,0.444094325,0.27725955
0.146348748,0.131693715,0.444663233,0.277294305
0.14612131,0.131320806,0.445228558,0.277329326
0.145895632,0.130949447,0.445790298,0.277364623
0.145671703,0.130579641,0.446348454,0.277400203
0.145449511,0.130211394,0.446903025,0.27743607
0.145229046,0.129844709,0.447454013,0.277472232
0.145010295,0.12947959,0.448001422,0.277508693
0.144793247,0.12911604,0.448545256,0.277545457
0.14457789,0.128754062,0.449085521,0.277582528
0.14436421,0.128393658,0.449622223,0.27761991
0.144152194,0.128034828,0.450155372,0.277657606
0.143941828,0.127677574,0.450684978,0.277695619
0.143733099,0.127321898,0.451211052,0.27773395
0.143525993,0.126967804,0.451733604,0.277772599
0.143320497,0.126615298,0.452252644,0.277811561
0.143116598,0.126264387,0.452768183,0.277850832
0.142914284,0.125915078,0.453280231,0.277890407
0.142713542,0.12556738,0.453788798,0.277930279
0.142514361,0.125221301,0.454293894,0.277970444
0.142316731,0.124876848,0.454795527,0.278010893
0.142120643,0.124534031,0.455293706,0.27805162
0.141926087,0.124192857,0.455788439,0.278092616
0.141733055,0.123853335,0.456279736,0.278133874
0.141541539,0.123515472,0.456767606,0.278175383
0.14135153,0.123179275,0.457252059,0.278217137
0.141163019,0.122844751,0.457733106,0.278259124
0.140975998,0.122511905,0.458210758,0.278301339
0.140790459,0.122180745,0.458685025,0.278343771
0.140606393,0.121851276,0.459155918,0.278386413
0.14042379,0.121523505,0.459623447,0.278429259
0.140242644,0.121197437,0.460087619,0.2784723
0.140062945,0.120873078,0.460548445,0.278515531
0.139884686,0.120550433,0.461005934,0.278558946
0.13970786,0.120229505,0.461460097,0.278602538
0.139532458,0.119910295,0.461910946,0.278646301
0.139358474,0.119592805,0.462358491,0.278690231
0.139185899,0.119277034,0.462802745,0.278734322
0.139014728,0.118962983,0.463243721,0.278778568
0.138844954,0.118650649,0.463681433,0.278822963
0.138676571,0.118340033,0.464115894,0.278867502
0.138509571,0.118031133,0.464547118,0.278912178
0.13834395,0.117723947,0.464975117,0.278956987
0.1381797,0.117418472,0.465399906,0.279001922
0.138016818,0.117114704,0.465821498,0.27904698
0.137855295,0.116812642,0.466239907,0.279092155
0.137695128,0.116512283,0.466655145,0.279137443
0.137536311,0.116213625,0.467067225,0.279182839
0.137378838,0.115916666,0.467476158,0.279228338
0.137222702,0.115621407,0.467881954,0.279273937
0.137067899,0.115327845,0.468284624,0.279319632
0.136914425,0.115035977,0.468684178,0.27936542
0.136762274,0.114745799,0.469080629,0.279411297
0.136611443,0.11445731,0.469473986,0.27945726
0.136461928,0.114170504,0.469864262,0.279503306
0.136313723,0.113885378,0.470251468,0.27954943
0.136166826,0.113601931,0.470635614,0.279595628
0.136021233,0.11332016,0.471016712,0.279641894
0.135876942,0.113040064,0.471394771,0.279688222
0.135733949,0.11276164,0.471769803,0.279734607
0.135592252,0.112484886,0.472141817,0.279781046
0.135451846,0.112209796,0.472510823,0.279827535
0.135312729,0.111936368,0.472876831,0.279874073
0.135174895,0.111664595,0.473239852,0.279920658
0.135038341,0.111394473,0.473599895,0.279967291
0.134903058,0.111125998,0.473956971,0.280013973
0.13476904,0.110859166,0.474311087,0.280060707
0.13463628,0.110593973,0.47466225,0.280107497
0.13450477,0.110330415,0.475010468,0.280154348
0.134374504,0.110068486,0.475355746,0.280201264
0.134245474,0.109808182,0.475698093,0.28024825
0.134117674,0.109549498,0.476037514,0.280295314
0.133991094,0.109292429,0.476374018,0.28034246
0.133865727,0.109036969,0.476707611,0.280389693
0.133741564,0.108783114,0.477038302,0.280437021
0.133618596,0.10853086,0.477366098,0.280484446
0.133496816,0.108280202,0.477691008,0.280531973
0.133376215,0.108031135,0.478013042,0.280579608
0.133256783,0.107783655,0.478332209,0.280627354
0.133138511,0.107537756,0.478648518,0.280675215
0.133021391,0.107293435,0.47896198,0.280723194
0.132905413,0.107050688,0.479272606,0.280771293
0.132790568,0.10680951,0.479580407,0.280819514
0.132676847,0.1065699,0.479885397,0.280867857
0.132564237,0.106331855,0.480187587,0.28091632
0.132452729,0.106095377,0.480486995,0.2809649
0.132342309,0.105860464,0.480783635,0.281013592
0.132232965,0.105627117,0.481077525,0.281062393
0.132124686,0.105395338,0.48136868,0.281111297
0.132017457,0.105165129,0.481657116,0.281160299
0.131911268,0.104936494,0.481942846,0.281209393
0.131806103,0.10470944,0.482225885,0.281258572
0.131701952,0.104483971,0.482506246,0.281307831
0.131598802,0.104260095,0.482783943,0.281357161
0.131496639,0.104037816,0.483058989,0.281406557
0.131395451,0.10381714,0.483331397,0.281456013
0.131295225,0.103598072,0.48360118,0.281505523
0.131195949,0.103380616,0.483868352,0.281555082
0.131097612,0.103164778,0.484132926,0.281604685
0.1310002,0.102950558,0.484394915,0.281654326
0.130903704,0.102737959,0.484654336,0.281704002
0.13080811,0.102526981,0.484911201,0.281753708
0.130713409,0.102317623,0.485165527,0.281803441
0.130619588,0.102109886,0.485417326,0.2818532
0.130526636,0.101903766,0.485666614,0.281902983
0.130434541,0.101699263,0.485913404,0.281952791
0.130343292,0.101496374,0.48615771,0.282002624
0.130252878,0.101295095,0.486399544,0.282052483
0.130163288,0.101095423,0.486638918,0.282102371
0.130074512,0.100897354,0.486875845,0.28215229
0.129986539,0.100700882,0.487110334,0.282202245
0.129899358,0.100506003,0.487342396,0.282252242
0.12981296,0.100312714,0.487572042,0.282302284
0.129727332,0.100121011,0.487799281,0.282352376
0.129642466,0.099930891,0.488024122,0.282402522
0.129558352,0.099742349,0.488246574,0.282452725
0.129474981,0.099555382,0.488466647,0.28250299
0.129392345,0.099369984,0.488684349,0.282553321
0.129310435,0.099186151,0.488899691,0.282603723
0.129229242,0.099003876,0.489112682,0.2826542
0.129148758,0.098823153,0.489323332,0.282704757
0.129068974,0.098643977,0.48953165,0.2827554
0.128989881,0.098466341,0.489737645,0.282806134
0.128911469,0.098290243,0.489941324,0.282856963
0.128833731,0.098115681,0.490142696,0.282907892
0.128756657,0.097942656,0.490341764,0.282958922
0.128680238,0.097771172,0.490538534,0.283010056
0.128604465,0.097601231,0.49073301,0.283061294
0.128529329,0.097432837,0.490925197,0.283112638
0.128454819,0.097265996,0.491115099,0.283164086
0.128380927,0.097100714,0.491302718,0.283215641
0.128307643,0.096936999,0.491488059,0.283267299
0.128234957,0.096774857,0.491671124,0.283319061
0.12816286,0.096614298,0.491851918,0.283370925
0.128091341,0.096455326,0.492030442,0.28342289
0.128020393,0.09629795,0.492206703,0.283474953
0.127950007,0.096142176,0.492380704,0.283527114
0.127880172,0.095988008,0.49255245,0.28357937
0.127810881,0.095835454,0.492721945,0.28363172
0.127742125,0.095684521,0.492889193,0.283684161
0.127673894,0.095535216,0.493054198,0.283736692
0.127606181,0.095387545,0.493216965,0.283789309
0.127538977,0.095241514,0.493377498,0.283842011
0.127472274,0.09509713,0.493535801,0.283894794
0.127406064,0.0949544,0.49369188,0.283947656
0.127340338,0.09481333,0.493845737,0.284000595
0.127275089,0.094673927,0.493997378,0.284053607
0.127210309,0.094536196,0.494146806,0.284106689
0.127145991,0.094400144,0.494294025,0.284159839
0.127082128,0.094265777,0.494439041,0.284213054
0.127018714,0.0941331,0.494581856,0.28426633
0.126955741,0.094002119,0.494722476,0.284319664
0.126893202,0.09387284,0.494860905,0.284373053
0.126831091,0.093745269,0.494997147,0.284426492
0.126769402,0.09361941,0.495131209,0.284479979
0.126708127,0.093495268,0.495263095,0.28453351
0.12664726,0.09337285,0.49539281,0.28458708
0.126586794,0.093252163,0.495520358,0.284640685
0.126526723,0.093133214,0.495645743,0.28469432
0.126467041,0.093016009,0.49576897,0.28474798
0.126407742,0.092900556,0.495890044,0.284801659
0.126348818,0.092786861,0.496008969,0.284855352
0.126290265,0.092674929,0.496125752,0.284909054
0.126232076,0.092564768,0.496240398,0.284962758
0.126174243,0.092456383,0.496352913,0.285016461
0.126116761,0.092349778,0.496463303,0.285070157
0.126059622,0.092244961,0.496571576,0.285123841
0.126002821,0.092141936,0.496677736,0.285177506
0.12594635,0.092040709,0.496781792,0.285231148
0.125890203,0.091941285,0.49688375,0.285284762
0.125834374,0.091843667,0.496983617,0.285338343
0.125778855,0.091747858,0.497081401,0.285391886
0.125723641,0.09165386,0.49717711,0.285445389
0.125668727,0.091561675,0.497270752,0.285498847
0.125614106,0.091471303,0.497362336,0.285552256
0.125559772,0.091382743,0.497451872,0.285605613
0.125505722,0.091295996,0.497539368,0.285658914
0.125451949,0.091211058,0.497624834,0.285712158
0.12539845,0.091127928,0.49770828,0.285765342
0.125345218,0.091046604,0.497789715,0.285818462
0.125292251,0.090967082,0.497869149,0.285871517
0.125239545,0.090889362,0.49794659,0.285924503
0.125187096,0.090813438,0.498022048,0.285977418
0.125134901,0.090739309,0.498095531,0.286030259
0.125082957,0.09066697,0.49816705,0.286083023
0.125031261,0.090596417,0.498236613,0.286135708
0.124979811,0.090527646,0.498304232,0.286188311
0.124928603,0.090460653,0.498369914,0.28624083
0.124877635,0.090395433,0.498433669,0.286293263
0.124826903,0.090331984,0.498495506,0.286345606
0.124776406,0.0902703,0.498555435,0.286397859
0.124726141,0.090210376,0.498613464,0.286450019
0.124676106,0.090152208,0.498669604,0.286502082
0.124626298,0.090095791,0.498723864,0.286554047
0.124576714,0.090041123,0.498776252,0.286605911
0.12452735,0.089988201,0.498826778,0.286657671
0.124478205,0.089937025,0.498875448,0.286709322
0.124429274,0.089887594,0.498922271,0.286760861
0.124380554,0.089839906,0.498967255,0.286812285
0.124332043,0.08979396,0.499010409,0.286863588
0.124283736,0.089749754,0.499051742,0.286914769
0.12423563,0.089707284,0.499091264,0.286965822
0.124187723,0.089666548,0.499128984,0.287016745
0.124140011,0.089627545,0.499164913,0.287067531
0.124092491,0.089590272,0.499199058,0.287118179
0.124045161,0.089554726,0.49923143,0.287168682
0.123998019,0.089520907,0.499262037,0.287219038
0.123951062,0.089488809,0.499290887,0.287269242
0.123904289,0.089458432,0.499317989,0.28731929
0.123857699,0.08942977,0.499343353,0.287369178
0.123811291,0.08940282,0.499366986,0.287418903
0.123765063,0.089377577,0.499388898,0.287468462
0.123719014,0.089354036,0.499409099,0.287517852
0.123673142,0.089332192,0.499427597,0.287567069
0.123627447,0.08931204,0.499444403,0.28761611
0.123581927,0.089293576,0.499459525,0.287664972
0.123536582,0.089276796,0.499472971,0.287713651
0.123491411,0.089261694,0.499484751,0.287762144
0.123446413,0.089248266,0.499494874,0.287810447
0.25,0.25,0.25,0.25
0.25,0.25,0.25,0.25
0.25,0.25,0.25,0.25
0.25,0.25,0.25,0.25
0.25,0.25,0.25,0.25
0.25,0.25,0.25,0.25
0.25,0.25,0.25,0.25
0.25,0.25,0.25,0.25
0.25,0.25,0.25,0.25
0.25,0.25,0.25,0.25
0.25,0.25,0.25,0.25
0.25,0.25,0.25,0.25
0.25,0.25,0.25,0.25
0.25,0.25,0.25,0.25
0.25,0.25,0.25,0.25
0.25,0.25,0.25,0.25
0.25,0.25,0.25,0.25
0.25,0.25,0.25,0.25
0.25,0.25,0.25,0.25
0.25,0.25,0.25,0.25
0.25,0.25,0.25,0.25
0.25,0.25,0.25,0.25
0.25,0.25,0.25,0.25
0.25,0.25,0.25,0.25
0.25,0.25,0.25,0.25
0.25,0.25,0.25,0.25
0.25,0.25,0.25,0.25
0.25,0.25,0.25,0.25
0.25,0.25,0.25,0.25
0.25,0.25,0.25,0.25
0.25,0.25,0.25,0.25
0.25,0.25,0.25,0.25
0.25,0.25,0.25,0.25
0.25,0.25,0.25,0.25
0.25,0.25,0.25,0.25
0.25,0.25,0.25,0.25
0.25,0.25,0.25,0.25
0.25,0.25,0.25,0.25
0.25,0.25,0.25,0.25
0.25,0.25,0.25,0.25
0.25,0.25,0.25,0.25
0.25,0.25,0.25,0.25
0.25,0.25,0.25,0.25
0.25,0.25,0.25,0.25
0.25,0.25,0.25,0.25
0.25,0.25,0.25,0.25
0.25,0.25,0.25,0.25
0.25,0.25,0.25,0.25
0.25,0.25,0.25,0.25
0.25,0.25,0.25,0.25
0.25,0.25,0.25,0.25
0.25,0.25,0.25,0.25
0.25,0.25,0.25,0.25
0.25,0.25,0.25,0.25
0.25,0.25,0.25,0.25
0.25,0.25,0.25,0.25
0.25,0.25,0.25,0.25
0.25,0.25,0.25,0.25
0.25,0.25,0.25,0.25
0.25,0.25,0.25,0.25
0.25,0.25,0.25,0.25
0.25,0.25,0.25,0.25
0.25,0.25,0.25,0.25
0.25,0.25,0.25,0.25
0.25,0.25,0.25,0.25
0.25,0.25,0.25,0.25
0.25,0.25,0.25,0.25
0.25,0.25,0.25,0.25
0.25,0.25,0.25,0.25
0.25,0.25,0.25,0.25
0.25,0.25,0.25,0.25
0.25,0.25,0.25,0.25
0.25,0.25,0.25,0.25
0.25,0.25,0.25,0.25
0.25,0.25,0.25,0.25
0.25,0.25,0.25,0.25
0.25,0.25,0.25,0.25
0.25,0.25,0.25,0.25
0.25,0.25,0.25,0.25
0.25,0.25,0.25,0.25
0.25,0.25,0.25,0.25
0.25,0.25,0.25,0.25
0.25,0.25,0.25,0.25
0.25,0.25,0.25,0.25
0.25,0.25,0.25,0.25
0.25,0.25,0.25,0.25
0.25,0.25,0.25,0.25
0.25,0.25,0.25,0.25
0.25,0.25,0.25,0.25
0.25,0.25,0.25,0.25
0.25,0.25,0.25,0.25
0.25,0.25,0.25,0.25
0.25,0.25,0.25,0.25
0.25,0.25,0.25,0.25
0.25,0.25,0.25,0.25
0.25,0.25,0.25,0.25
0.25,0.25,0.25,0.25
0.25,0.25,0.25,0.25
0.25,0.25,0.25,0.25
0.25,0.25,0.25,0.25
0.25,0.25,0.25,0.25
0.25,0.25,0.25,0.25
0.25,0.25,0.25,0.25
0.25,0.25,0.25,0.25
0.25,0.25,0.25,0.25
0.25,0.25,0.25,0.25
0.25,0.25,0.25,0.25
0.25,0.25,0.25,0.25
0.25,0.25,0.25,0.25
0.25,0.25,0.25,0.25
0.25,0.25,0.25,0.25
0.25,0.25,0.25,0.25
0.25,0.25,0.25,0.25
0.25,0.25,0.25,0.25
0.25,0.25,0.25,0.25
0.25,0.25,0.25,0.25
0.25,0.25,0.25,0.25
0.25,0.25,0.25,0.25
0.25,0.25,0.25,0.25
0.25,0.25,0.25,0.25
0.25,0.25,0.25,0.25
0.25,0.25,0.25,0.25
0.25,0.25,0.25,0.25
0.25,0.25,0.25,0.25
0.25,0.25,0.25,0.25
0.25,0.25,0.25,0.25
0.25,0.25,0.25,0.25
0.25,0.25,0.25,0.25
0.25,0.25,0.25,0.25
0.25,0.25,0.25,0.25
0.25,0.25,0.25,0.25
0.25,0.25,0.25,0.25
0.25,0.25,0.25,0.25
0.25,0.25,0.25,0.25
0.25,0.25,0.25,0.25
0.25,0.25,0.25,0.25
0.25,0.25,0.25,0.25
0.25,0.25,0.25,0.25
0.25,0.25,0.25,0.25
0.25,0.25,0.25,0.25
0.25,0.25,0.25,0.25
0.25,0.25,0.25,0.25
0.25,0.25,0.25,0.25
0.25,0.25,0.25,0.25
0.25,0.25,0.25,0.25
0.25,0.25,0.25,0.25
0.25,0.25,0.25,0.25
0.25,0.25,0.25,0.25
0.25,0.25,0.25,0.25
0.25,0.25,0.25,0.25
0.25,0.25,0.25,0.25
0.25,0.25,0.25,0.25
0.25,0.25,0.25,0.25
0.25,0.25,0.25,0.25
0.25,0.25,0.25,0.25
0.25,0.25,0.25,0.25
0.25,0.25,0.25,0.25
0.25,0.25,0.25,0.25
0.25,0.25,0.25,0.25
0.25,0.25,0.25,0.25
0.25,0.25,0.25,0.25
0.25,0.25,0.25,0.25
0.25,0.25,0.25,0.25
0.25,0.25,0.25,0.25
0.25,0.25,0.25,0.25
0.25,0.25,0.25,0.25
0.25,0.25,0.25,0.25
0.25,0.25,0.25,0.25
0.25,0.25,0.25,0.25
0.25,0.25,0.25,0.25
0.25,0.25,0.25,0.25
0.25,0.25,0.25,0.25
0.25,0.25,0.25,0.25
0.25,0.25,0.25,0.25
0.25,0.25,0.25,0.25
0.25,0.25,0.25,0.25
0.25,0.25,0.25,0.25
0.25,0.25,0.25,0.25
0.25,0.25,0.25,0.25
0.25,0.25,0.25,0.25
0.25,0.25,0.25,0.25
0.25,0.25,0.25,0.25
0.25,0.25,0.25,0.25
0.25,0.25,0.25,0.25
0.25,0.25,0.25,0.25
0.25,0.25,0.25,0.25
0.25,0.25,0.25,0.25
0.25,0.25,0.25,0.25
0.25,0.25,0.25,0.25
0.25,0.25,0.25,0.25
0.25,0.25,0.25,0.25
0.25,0.25,0.25,0.25
0.25,0.25,0.25,0.25
0.25,0.25,0.25,0.25
0.25,0.25,0.25,0.25
0.25,0.25,0.25,0.25
0.25,0.25,0.25,0.25
0.25,0.25,0.25,0.25
0.25,0.25,0.25,0.25
0.25,0.25,0.25,0.25
0.25,0.25,0.25,0.25
0.25,0.25,0.25,0.25
0.25,0.25,0.25,0.25
0.25,0.25,0.25,0.25
0.25,0.25,0.25,0.25
0.25,0.25,0.25,0.25
0.25,0.25,0.25,0.25
0.25,0.25,0.25,0.25
0.25,0.25,0.25,0.25
0.25,0.25,0.25,0.25
0.25,0.25,0.25,0.25
0.25,0.25,0.25,0.25
0.25,0.25,0.25,0.25
0.25,0.25,0.25,0.25
0.25,0.25,0.25,0.25
0.25,0.25,0.25,0.25
0.25,0.25,0.25,0.25
0.25,0.25,0.25,0.25
0.25,0.25,0.25,0.25
0.25,0.25,0.25,0.25
0.25,0.25,0.25,0.25
0.25,0.25,0.25,0.25
0.25,0.25,0.25,0.25
0.25,0.25,0.25,0.25
0.25,0.25,0.25,0.25
0.25,0.25,0.25,0.25
0.25,0.25,0.25,0.25
0.25,0.25,0.25,0.25
0.25,0.25,0.25,0.25
0.25,0.25,0.25,0.25
0.25,0.25,0.25,0.25
0.25,0.25,0.25,0.25
0.25,0.25,0.25,0.25
0.25,0.25,0.25,0.25
0.25,0.25,0.25,0.25
0.25,0.25,0.25,0.25
0.25,0.25,0.25,0.25
0.25,0.25,0.25,0.25
0.25,0.25,0.25,0.25
0.25,0.25,0.25,0.25
0.25,0.25,0.25,0.25
0.25,0.25,0.25,0.25
0.25,0.25,0.25,0.25
0.25,0.25,0.25,0.25
0.25,0.25,0.25,0.25
0.25,0.25,0.25,0.25
0.25,0.25,0.25,0.25
0.25,0.25,0.25,0.25
0.25,0.25,0.25,0.25
0.25,0.25,0.25,0.25
0.25,0.25,0.25,0.25
0.25,0.25,0.25,0.25
0.25,0.25,0.25,0.25
0.25,0.25,0.25,0.25
0.25,0.25,0.25,0.25
0.25,0.25,0.25,0.25
0.25,0.25,0.25,0.25
0.25,0.25,0.25,0.25
0.25,0.25,0.25,0.25
0.25,0.25,0.25,0.25
0.25,0.25,0.25,0.25
0.25,0.25,0.25,0.25
0.25,0.25,0.25,0.25
0.25,0.25,0.25,0.25
0.25,0.25,0.25,0.25
0.25,0.25,0.25,0.25
0.25,0.25,0.25,0.25
0.25,0.25,0.25,0.25
0.25,0.25,0.25,0.25
0.25,0.25,0.25,0.25
0.25,0.25,0.25,0.25
0.25,0.25,0.25,0.25
0.25,0.25,0.25,0.25
0.25,0.25,0.25,0.25
0.25,0.25,0.25,0.25
0.25,0.25,0.25,0.25
0.25,0.25,0.25,0.25
0.25,0.25,0.25,0.25
0.25,0.25,0.25,0.25
0.25,0.25,0.25,0.25
0.25,0.25,0.25,0.25
0.25,0.25,0.25,0.25
0.25,0.25,0.25,0.25
0.25,0.25,0.25,0.25
0.25,0.25,0.25,0.25
0.25,0.25,0.25,0.25
0.25,0.25,0.25,0.25
0.25,0.25,0.25,0.25
0.25,0.25,0.25,0.25
0.25,0.25,0.25,0.25
0.25,0.25,0.25,0.25
0.25,0.25,0.25,0.25
0.25,0.25,0.25,0.25
0.25,0.25,0.25,0.25
0.25,0.25,0.25,0.25
0.25,0.25,0.25,0.25
0.25,0.25,0.25,0.25
0.25,0.25,0.25,0.25
0.25,0.25,0.25,0.25
0.25,0.25,0.25,0.25
0.25,0.25,0.25,0.25
0.25,0.25,0.25,0.25
0.25,0.25,0.25,0.25
0.25,0.25,0.25,0.25
0.25,0.25,0.25,0.25
0.25,0.25,0.25,0.25
0.25,0.25,0.25,0.25
0.25,0.25,0.25,0.25
0.25,0.25,0.25,0.25
0.25,0.25,0.25,0.25
0.25,0.25,0.25,0.25
0.25,0.25,0.25,0.25
0.25,0.25,0.25,0.25
0.25,0.25,0.25,0.25
0.25,0.25,0.25,0.25
0.25,0.25,0.25,0.25
0.25,0.25,0.25,0.25
0.25,0.25,0.25,0.25
0.25,0.25,0.25,0.25
0.25,0.25,0.25,0.25
0.25,0.25,0.25,0.25
0.25,0.25,0.25,0.25
0.25,0.25,0.25,0.25
0.25,0.25,0.25,0.25
0.25,0.25,0.25,0.25
0.25,0.25,0.25,0.25
0.25,0.25,0.25,0.25
0.25,0.25,0.25,0.25
0.25,0.25,0.25,0.25
0.25,0.25,0.25,0.25
0.25,0.25,0.25,0.25
0.25,0.25,0.25,0.25
0.25,0.25,0.25,0.25
0.25,0.25,0.25,0.25
0.25,0.25,0.25,0.25
0.25,0.25,0.25,0.25
0.25,0.25,0.25,0.25
0.25,0.25,0.25,0.25
0.25,0.25,0.25,0.25
0.25,0.25,0.25,0.25
0.25,0.25,0.25,0.25
0.25,0.25,0.25,0.25
0.25,0.25,0.25,0.25
0.25,0.25,0.25,0.25
0.25,0.25,0.25,0.25
0.25,0.25,0.25,0.25
0.25,0.25,0.25,0.25
0.25,0.25,0.25,0.25
0.25,0.25,0.25,0.25
0.25,0.25,0.25,0.25
0.25,0.25,0.25,0.25
0.25,0.25,0.25,0.25
0.25,0.25,0.25,0.25
0.25,0.25,0.25,0.25
0.25,0.25,0.25,0.25
0.25,0.25,0.25,0.25
0.25,0.25,0.25,0.25
0.25,0.25,0.25,0.25
0.25,0.25,0.25,0.25
0.25,0.25,0.25,0.25
0.25,0.25,0.25,0.25
0.25,0.25,0.25,0.25
0.25,0.25,0.25,0.25
0.25,0.25,0.25,0.25
0.25,0.25,0.25,0.25
0.25,0.25,0.25,0.25
0.25,0.25,0.25,0.25
0.25,0.25,0.25,0.25
0.25,0.25,0.25,0.25
0.25,0.25,0.25,0.25
0.25,0.25,0.25,0.25
0.25,0.25,0.25,0.25
0.25,0.25,0.25,0.25
0.25,0.25,0.25,0.25
0.25,0.25,0.25,0.25
0.25,0.25,0.25,0.25
0.25,0.25,0.25,0.25
0.25,0.25,0.25,0.25
0.25,0.25,0.25,0.25
0.25,0.25,0.25,0.25
0.25,0.25,0.25,0.25
0.25,0.25,0.25,0.25
0.25,0.25,0.25,0.25
0.25,0.25,0.25,0.25
0.25,0.25,0.25,0.25
0.25,0.25,0.25,0.25
0.25,0.25,0.25,0.25
0.25,0.25,0.25,0.25
0.25,0.25,0.25,0.25
0.25,0.25,0.25,0.25
0.25,0.25,0.25,0.25
0.25,0.25,0.25,0.25
0.25,0.25,0.25,0.25
0.25,0.25,0.25,0.25
0.25,0.25,0.25,0.25
0.25,0.25,0.25,0.25
0.25,0.25,0.25,0.25
0.25,0.25,0.25,0.25
0.25,0.25,0.25,0.25
0.25,0.25,0.25,0.25
0.152829335,0.305187803,0.434000363,0.107982498
0.152572367,0.303893948,0.434921635,0.10861205
0.152316503,0.302599572,0.435835356,0.109248569
0.152061747,0.301304847,0.436741528,0.109891878
0.151808103,0.300009942,0.437640158,0.110541797
0.151555575,0.298715022,0.438531254,0.111198149
0.151304167,0.297420252,0.439414827,0.111860755
0.151053881,0.296125793,0.440290889,0.112529437
0.150804722,0.294831805,0.441159454,0.113204019
0.150556694,0.293538448,0.442020535,0.113884323
0.150309802,0.292245879,0.442874148,0.114570171
0.150064049,0.290954255,0.443720311,0.115261385
0.149819437,0.289663732,0.444559039,0.115957791
0.149575968,0.288374465,0.445390351,0.116659216
0.149333641,0.287086605,0.446214262,0.117365492
0.149092456,0.285800302,0.447030788,0.118076454
0.14885241,0.284515703,0.447839944,0.118791942
0.148613503,0.283232955,0.448641744,0.119511798
0.148375733,0.281952199,0.449436204,0.120235864
0.148139103,0.280673574,0.450223341,0.120963982
0.147903616,0.279397212,0.451003177,0.121695995
0.147669275,0.278123243,0.451775735,0.122431747
0.147436085,0.276851792,0.45254104,0.123171083
0.147204049,0.275582979,0.45329912,0.123913852
0.146973171,0.27431692,0.454050007,0.124659902
0.14674346,0.273053724,0.454793735,0.125409081
0.146514925,0.271793495,0.455530341,0.12616124
0.146287575,0.270536332,0.456259862,0.126916231
0.146061424,0.269282336,0.456982333,0.127673907
0.145836481,0.268031602,0.457697792,0.128434124
0.145612759,0.266784228,0.458406276,0.129196738
0.145390266,0.265540307,0.459107824,0.129961604
0.14516901,0.264299933,0.459802475,0.130728582
0.144949,0.2630632,0.46049027,0.131497531
0.144730241,0.261830199,0.461171248,0.132268312
0.144512742,0.260601021,0.46184545,0.133040787
0.144296511,0.25937575,0.462512919,0.133814821
0.144081554,0.258154468,0.463173698,0.13459028
0.14386788,0.256937254,0.463827833,0.135367033
0.143655493,0.255724184,0.464475372,0.136144952
0.143444399,0.254515329,0.46511636,0.136923913
0.1432346,0.253310761,0.465750844,0.137703795
0.1430261,0.252110549,0.466378868,0.138484483
0.1428189,0.250914761,0.467000472,0.139265866
0.142613001,0.249723468,0.467615695,0.140047836
0.142408403,0.248536736,0.468224575,0.140830286
0.142205108,0.247354631,0.468827151,0.141613111
0.142003117,0.246177216,0.469423463,0.142396204
0.141802431,0.245004556,0.470013551,0.143179462
0.141603051,0.243836711,0.470597454,0.143962783
0.141404978,0.242673745,0.47117521,0.144746067
0.141208212,0.241515717,0.471746855,0.145529215
0.141012754,0.240362685,0.472312427,0.146312134
0.140818605,0.239214705,0.472871958,0.147094732
0.140625766,0.238071829,0.473425483,0.147876923
0.140434238,0.236934104,0.473973035,0.148658623
0.140244026,0.235801578,0.474514644,0.149439752
0.140055131,0.234674297,0.475050343,0.150220228
0.139867557,0.233552308,0.47558016,0.150999976
0.139681304,0.232435655,0.47610412,0.15177892
0.139496373,0.231324386,0.476622252,0.152556989
0.139312763,0.230218547,0.47713458,0.15333411
0.139130476,0.229118179,0.477641133,0.154110211
0.138949516,0.228023325,0.478141938,0.154885221
0.138769886,0.226934022,0.478637025,0.155659067
0.13859159,0.225850309,0.47912642,0.156431682
0.138414631,0.224772222,0.479610151,0.157202996
0.138239011,0.223699801,0.480088245,0.157972943
0.138064731,0.222633082,0.480560727,0.15874146
0.13789179,0.221572098,0.481027623,0.15950849
0.137720187,0.22051688,0.481488957,0.160273976
0.137549921,0.219467455,0.481944755,0.161037869
0.13738099,0.218423847,0.482395044,0.161800119
0.137213393,0.217386074,0.482839849,0.162560684
0.137047128,0.216354151,0.483279196,0.163319525
0.136882191,0.215328089,0.483713112,0.164076608
0.136718577,0.214307898,0.484141623,0.164831902
0.136556282,0.213293585,0.484564756,0.165585376
0.1363953,0.212285158,0.484982539,0.166337003
0.136235625,0.211282621,0.485394999,0.167086755
0.136077253,0.210285977,0.485802163,0.167834608
0.135920178,0.209295228,0.486204059,0.168580534
0.135764395,0.208310375,0.486600719,0.169324511
0.135609899,0.207331417,0.486992172,0.170066513
0.13545668,0.206358355,0.487378447,0.170806518
0.135304733,0.20539119,0.487759574,0.171544503
0.135154051,0.204429919,0.488135583,0.172280448
0.135004626,0.20347454,0.488506503,0.173014331
0.134856452,0.202525046,0.488872365,0.173746137
0.134709523,0.201581429,0.489233198,0.17447585
0.134563832,0.200643681,0.489589032,0.175203456
0.134419371,0.199711792,0.489939894,0.175928942
0.134276136,0.198785751,0.490285815,0.176652298
0.13413412,0.197865547,0.490626823,0.177373511
0.133993318,0.196951168,0.490962947,0.178092567
0.133853727,0.1960426,0.491294219,0.178809454
0.133715342,0.195139829,0.49162067,0.179524159
0.133578161,0.194242839,0.491942334,0.180236667
0.13344218,0.193351612,0.492259243,0.180946964
0.133307399,0.192466129,0.492571435,0.181655036
0.133173816,0.191586368,0.492878947,0.182360869
0.133041429,0.190712307,0.493181817,0.183064447
0.132910235,0.189843924,0.493480087,0.183765754
0.132780229,0.188981194,0.4937738,0.184464776
0.132651407,0.188124093,0.494062999,0.1851615
0.132523764,0.187272594,0.49434773,0.185855912
0.132397293,0.186426667,0.49462804,0.186548001
0.132271986,0.185586281,0.494903979,0.187237755
0.132147836,0.184751402,0.495175597,0.187925165
0.132024836,0.183921995,0.495442945,0.188610224
0.131902981,0.183098024,0.49570607,0.189292925
0.131782262,0.182279455,0.495965022,0.189973261
0.131662676,0.181466251,0.496219848,0.190651225
0.131544216,0.18065838,0.496470594,0.19132681
0.131426875,0.179855807,0.496717306,0.192000012
0.131310647,0.179058499,0.496960029,0.192670825
0.131195526,0.178266427,0.497198804,0.193339243
0.131081505,0.177479558,0.497433677,0.19400526
0.13096858,0.176697862,0.497664687,0.194668871
0.130856744,0.175921306,0.497891879,0.19533007
0.130745994,0.175149857,0.498115295,0.195988853
0.130636326,0.17438348,0.498334977,0.196645216
0.130527736,0.17362214,0.498550968,0.197299156
0.130420219,0.172865801,0.498763309,0.197950672
0.130313772,0.172114425,0.498972043,0.19859976
0.130208393,0.171367976,0.499177212,0.199246419
0.130104083,0.170626415,0.499378856,0.199890647
0.130000841,0.169889704,0.499577015,0.20053244
0.129898672,0.169157804,0.499771727,0.201171798
0.129797578,0.168430676,0.49996303,0.201808716
0.129697563,0.16770828,0.500150964,0.202443192
0.129598632,0.166990576,0.500335569,0.203075223
0.129500788,0.166277522,0.500516886,0.203704804
0.129404036,0.165569077,0.500694958,0.204331929
0.129308382,0.164865198,0.500869828,0.204956592
0.12921383,0.164165843,0.50104154,0.205578787
0.129120385,0.163470971,0.501210137,0.206198506
0.129028053,0.16278054,0.501375662,0.206815745
0.128936836,0.162094509,0.50153816,0.207430495
0.12884674,0.161412836,0.501697672,0.208042752
0.128757769,0.16073548,0.501854238,0.208652513
0.128669926,0.160062399,0.502007902,0.209259773
0.128583214,0.159393553,0.502158702,0.209864531
0.128497636,0.158728899,0.502306682,0.210466784
0.128413193,0.158068397,0.50245188,0.21106653
0.128329888,0.157412005,0.502594338,0.211663769
0.128247721,0.156759682,0.502734096,0.212258501
0.128166694,0.156111388,0.50287119,0.212850728
0.128086807,0.15546708,0.50300566,0.213440454
0.128008059,0.154826717,0.50313754,0.214027683
0.127930451,0.154190259,0.503266867,0.214612423
0.12785398,0.153557663,0.503393674,0.215194683
0.127778645,0.152928889,0.503517996,0.215774471
0.127704444,0.152303895,0.503639866,0.216351795
0.127631374,0.151682641,0.50375932,0.216926665
0.127559433,0.151065085,0.503876394,0.217499088
0.127488617,0.150451186,0.503991123,0.218069074
0.127418922,0.149840903,0.504103542,0.218636633
0.127350344,0.149234194,0.504213685,0.219201777
0.12728288,0.148631019,0.504321586,0.219764516
0.127216524,0.148031335,0.504427279,0.220324861
0.127151272,0.147435103,0.504530801,0.220882824
0.12708712,0.14684228,0.504632185,0.221438414
0.127024063,0.146252828,0.504731467,0.221991641
0.126962094,0.145666706,0.504828685,0.222542515
0.126901208,0.145083873,0.504923874,0.223091044
0.126841397,0.14450429,0.505017072,0.22363724
0.126782654,0.14392792,0.505108314,0.224181112
0.126724967,0.143354729,0.505197635,0.22472267
0.126668328,0.142784682,0.505285068,0.225261922
0.126612725,0.142217749,0.505370648,0.225798878
0.126558148,0.141653897,0.505454408,0.226333547
0.126504587,0.141093095,0.505536381,0.226865937
0.12645203,0.140535312,0.505616599,0.227396058
0.126400468,0.139980517,0.505695096,0.227923918
0.126349889,0.139428681,0.505771903,0.228449528
0.126300279,0.138879778,0.505847049,0.228972894
0.126251626,0.138333782,0.505920565,0.229494027
0.126203917,0.137790669,0.505992479,0.230012935
0.126157139,0.137250413,0.50606282,0.230529628
0.126111278,0.136712991,0.506131616,0.231044115
0.126066321,0.136178377,0.506198895,0.231556408
0.126022252,0.135646546,0.506264684,0.232066518
0.125979058,0.135117477,0.50632901,0.232574455
0.125936726,0.134591145,0.5063919,0.233080229
0.125895242,0.134067528,0.506453381,0.233583849
0.125854593,0.133546607,0.506513476,0.234085323
0.125814768,0.133028361,0.506572211,0.23458466
0.125775752,0.132512769,0.506629611,0.235081868
0.125737533,0.131999812,0.506685701,0.235576954
0.125700098,0.131489468,0.506740505,0.236069928
0.125663435,0.13098172,0.506794047,0.236560798
0.125627531,0.130476548,0.506846348,0.237049572
0.125592374,0.129973936,0.506897431,0.237536259
0.125557952,0.129473866,0.506947314,0.238020868
0.125524255,0.128976321,0.506996017,0.238503407
0.125491273,0.128481284,0.507043558,0.238983886
0.125458996,0.127988737,0.507089955,0.239462312
0.125427415,0.127498664,0.507135228,0.239938693
0.125396521,0.127011046,0.507179395,0.240413037
0.125366307,0.126525867,0.507222474,0.240885352
0.125336763,0.126043111,0.507264484,0.241355642
0.125307883,0.12556276,0.507305442,0.241823915
0.12527966,0.125084801,0.507345363,0.242290176
0.125252088,0.124609218,0.507384264,0.24275443
0.125225159,0.124135995,0.507422163,0.243216682
0.125198869,0.123665118,0.507459074,0.243676939
0.125173212,0.123196572,0.507495013,0.244135203
0.125148183,0.122730342,0.507529995,0.24459148
0.125123777,0.122266417,0.507564034,0.245045772
0.125099993,0.121804781,0.507597143,0.245498082
0.125076828,0.121345423,0.507629336,0.245948413
0.125054282,0.120888327,0.507660625,0.246396766
0.125032354,0.12043348,0.507691023,0.246843144
0.125011044,0.119980866,0.507720543,0.247287547
0.124990354,0.119530472,0.507749198,0.247729977
0.124970285,0.119082282,0.507776999,0.248170434
0.12495084,0.118636284,0.507803959,0.248608918
0.124932022,0.118192462,0.50783009,0.249045427
0.124913835,0.117750803,0.507855404,0.249479958
0.124896285,0.117311291,0.507879915,0.249912509
0.124879378,0.116873911,0.507903635,0.250343076
0.124863118,0.116438648,0.507926578,0.250771656
0.124847513,0.116005485,0.507948759,0.251198243
0.12483257,0.115574406,0.507970192,0.251622833
0.124818298,0.115145392,0.50799089,0.25204542
0.124804706,0.114718424,0.508010868,0.252466002
0.1247918,0.114293483,0.508030141,0.252884575
0.12477959,0.113870548,0.508048723,0.253301139
0.124768082,0.113449599,0.508066626,0.253715693
0.124757283,0.113030613,0.508083864,0.254128239
0.124747199,0.11261357,0.50810045,0.254538781
0.124737836,0.112198448,0.508116395,0.254947321
0.124729197,0.111785225,0.508131712,0.255353865
0.124721288,0.111373881,0.508146413,0.255758418
0.124714111,0.110964395,0.50816051,0.256160984
0.124707671,0.110556747,0.508174015,0.256561568
0.124701969,0.110150918,0.508186939,0.256960174
0.124697007,0.109746889,0.508199296,0.257356809
0.124692786,0.109344641,0.508211095,0.257751477
0.124689308,0.108944156,0.50822235,0.258144186
0.124686573,0.108545418,0.508233071,0.258534939
0.124684579,0.108148409,0.508243269,0.258923743
0.124683329,0.107753114,0.508252955,0.259310602
0.124682821,0.107359515,0.50826214,0.259695523
0.124683057,0.106967598,0.508270834,0.260078512
0.124684036,0.106577343,0.508279047,0.260459574
0.124685758,0.106188735,0.50828679,0.260838716
0.124688222,0.105801758,0.508294074,0.261215946
0.124691427,0.105416393,0.508300909,0.261591271
0.124695372,0.105032626,0.508307305,0.261964697
0.124700054,0.10465044,0.508313271,0.262336235
0.124705472,0.10426982,0.508318815,0.262705892
0.124711623,0.103890752,0.508323948,0.263073677
0.124718504,0.103513221,0.508328677,0.263439599
0.12472611,0.103137211,0.508333012,0.263803667
0.124734438,0.102762708,0.508336962,0.264165892
0.124743483,0.102389699,0.508340536,0.264526282
0.124753239,0.102018169,0.508343744,0.264884848
0.124763701,0.101648104,0.508346594,0.2652416
0.124774864,0.10127949,0.508349097,0.265596549
0.124786722,0.100912312,0.508351261,0.265949705
0.124799269,0.100546554,0.5083531,0.266301077
0.124812499,0.1001822,0.508354626,0.266650675
0.124826407,0.099819234,0.508355851,0.266998508
0.124840985,0.099457642,0.508356788,0.267344585
0.124856227,0.099097409,0.508357451,0.267688914
0.124872127,0.09873852,0.508357849,0.268031504
0.124888679,0.098380963,0.508357996,0.268372361
0.124905877,0.098024727,0.508357903,0.268711494
0.124923712,0.097669798,0.508357581,0.269048909
0.12494218,0.097316167,0.50835704,0.269384614
0.124961272,0.09696382,0.508356291,0.269718616
0.124980983,0.096612748,0.508355346,0.270050923
0.125001305,0.09626294,0.508354214,0.270381541
0.125022231,0.095914386,0.508352905,0.270710478
0.125043755,0.095567079,0.508351427,0.271037739
0.125065869,0.095221013,0.508349785,0.271363333
0.125088568,0.094876181,0.508347986,0.271687266
0.125111845,0.094532577,0.508346034,0.272009543
0.125135694,0.094190196,0.508343938,0.272330172
0.125160109,0.093849031,0.508341701,0.272649158
0.125185084,0.093509077,0.508339331,0.272966507
0.125210614,0.093170329,0.508336832,0.273282224
0.125236694,0.092832782,0.50833421,0.273596314
0.125263319,0.092496431,0.508331469,0.273908781
0.125290482,0.092161274,0.508328614,0.27421963
0.125318179,0.091827307,0.508325649,0.274528865
0.125346405,0.091494526,0.50832258,0.27483649
0.125375154,0.091162927,0.508319411,0.275142509
0.12540442,0.090832506,0.508316148,0.275446926
0.125434197,0.090503261,0.508312796,0.275749745
0.12546448,0.09017519,0.508309359,0.276050971
0.125495262,0.089848291,0.508305842,0.276350605
0.125526537,0.089522562,0.508302249,0.276648652
0.1255583,0.089198004,0.508298581,0.276945116
0.125590544,0.088874613,0.508294843,0.27724
0.125623263,0.088552391,0.508291037,0.277533309
0.125656452,0.088231335,0.508287167,0.277825046
0.125690103,0.087911447,0.508283233,0.278115217
0.125724209,0.087592726,0.50827924,0.278403825
0.125758763,0.087275174,0.508275187,0.278690876
0.125793758,0.086958792,0.508271076,0.278976373
0.125829187,0.086643581,0.508266909,0.279260324
0.125865041,0.08632954,0.508262685,0.279542734
0.125901314,0.086016671,0.508258407,0.279823609
0.125937997,0.085704972,0.508254076,0.280102956
0.125975083,0.085394443,0.508249693,0.280380781
0.126012563,0.085085084,0.50824526,0.280657093
0.126050431,0.084776895,0.508240776,0.280931898
0.126088679,0.084469875,0.508236243,0.281205203
0.1261273,0.084164024,0.508231662,0.281477013
0.126166287,0.083859342,0.508227033,0.281747338
0.126205634,0.083555827,0.508222357,0.282016182
0.126245335,0.083253477,0.508217635,0.282283553
0.126285386,0.08295229,0.508212866,0.282549458
0.126325782,0.082652264,0.508208052,0.282813902
0.126366518,0.082353397,0.508203194,0.283076891
0.126407593,0.082055687,0.50819829,0.28333843
0.126449001,0.081759132,0.508193341,0.283598526
0.126490739,0.08146373,0.508188349,0.283857182
0.126532803,0.081169479,0.508183312,0.284114406
0.12657519,0.080876376,0.508178233,0.284370201
0.126617895,0.08058442,0.508173111,0.284624573
0.126660914,0.080293609,0.50816795,0.284877528
0.126704242,0.080003941,0.508162749,0.285129069
0.126747876,0.079715413,0.50815751,0.285379201
0.126791812,0.079428024,0.508152236,0.285627927
0.126836048,0.07914177,0.50814693,0.285875252
0.12688058,0.078856648,0.508141594,0.286121178
0.126925406,0.078572653,0.508136232,0.286365709
0.126970522,0.078289784,0.508130845,0.286608849
0.127015925,0.078008038,0.508125436,0.286850601
0.127061613,0.077727411,0.508120008,0.287090968
0.127107581,0.077447901,0.508114563,0.287329955
0.127153828,0.077169504,0.508109103,0.287567565
0.127200349,0.076892216,0.508103631,0.287803804
0.127247143,0.076616034,0.508098149,0.288038674
0.127294206,0.076340951,0.50809266,0.288272182
0.127341536,0.076066964,0.508087166,0.288504334
0.12738913,0.075794067,0.508081669,0.288735134
0.127436985,0.075522254,0.508076171,0.288964589
0.127485099,0.075251519,0.508070676,0.289192707
0.127533467,0.074981856,0.508065185,0.289419492
0.127582089,0.07471326,0.5080597,0.289644951
0.127630961,0.074445725,0.508054224,0.28986909
0.127680082,0.074179243,0.508048759,0.290091916
0.127729449,0.073913808,0.508043307,0.290313436
0.12777906,0.073649413,0.508037872,0.290533656
0.127828911,0.073386051,0.508032456,0.290752581
0.127879001,0.073123715,0.508027064,0.29097022
0.127929327,0.0728624,0.508021696,0.291186576
0.127979886,0.072602099,0.508016357,0.291401657
0.128030676,0.072342807,0.508011048,0.291615469
0.128081692,0.072084519,0.508005771,0.291828017
0.128132933,0.071827229,0.508000529,0.292039309
0.128184395,0.071570931,0.507995323,0.292249351
0.128236075,0.071315618,0.507990157,0.29245815
0.128287969,0.071061286,0.507985033,0.292665712
0.128340076,0.070807928,0.507979953,0.292872043
0.128392391,0.07055554,0.507974919,0.29307715
0.128444912,0.070304118,0.507969932,0.293281039
0.128497636,0.070053655,0.507964994,0.293483715
0.128550561,0.069804147,0.507960107,0.293685186
0.128603683,0.069555587,0.507955273,0.293885457
0.128657001,0.069307971,0.507950494,0.294084534
0.128710511,0.069061291,0.507945772,0.294282426
0.128764211,0.068815542,0.507941109,0.294479139
0.128818097,0.068570718,0.507936505,0.294674679
0.128872168,0.068326815,0.507931963,0.294869054
0.128926421,0.068083826,0.507927483,0.29506227
0.128980853,0.067841747,0.507923066,0.295254334
0.129035461,0.067600572,0.507918715,0.295445252
0.129090242,0.067360296,0.50791443,0.295635032
0.129145194,0.067120912,0.507910215,0.295823679
0.129200312,0.066882418,0.507906069,0.296011201
0.129255593,0.066644809,0.507901995,0.296197603
0.129311034,0.066408082,0.507897994,0.29638289
0.129366632,0.066172233,0.507894066,0.296567069
0.129422384,0.065937259,0.507890212,0.296750145
0.129478286,0.065703157,0.507886433,0.296932124
0.129534336,0.065469923,0.507882729,0.297113011
0.129590531,0.065237555,0.507879103,0.297292811
0.129646866,0.06500605,0.507875553,0.297471531
0.12970334,0.064775406,0.507872081,0.297649173
0.12975995,0.06454562,0.507868686,0.297825744
0.129816692,0.064316692,0.507865369,0.298001248
0.129873563,0.06408862,0.507862129,0.298175688
0.129930562,0.063861401,0.507858968,0.298349069
0.129987685,0.063635033,0.507855885,0.298521397
0.130044931,0.063409513,0.507852881,0.298692675
0.130102296,0.063184839,0.507849957,0.298862908
0.130159779,0.062961009,0.507847112,0.2990321
0.130217376,0.06273802,0.507844348,0.299200256
0.130275085,0.062515871,0.507841665,0.299367379
0.130332903,0.062294559,0.507839064,0.299533473
0.130390827,0.062074084,0.507836546,0.299698543
0.130448853,0.061854442,0.507834112,0.299862594
0.130506977,0.06163563,0.507831763,0.30002563
0.130565197,0.061417647,0.5078295,0.300187655
0.199344396,0.334826865,0.23215822,0.233670519
0.198924716,0.334337652,0.233276606,0.233461027
0.198507952,0.333845506,0.234393871,0.233252671
0.198094115,0.333350459,0.235509971,0.233045455
0.19768321,0.332852546,0.236624863,0.232839381
0.197275242,0.332351802,0.237738505,0.232634451
0.196870214,0.33184826,0.238850859,0.232430667
0.196468126,0.331341951,0.239961894,0.232228029
0.196068979,0.330832905,0.241071575,0.232026541
0.195672772,0.330321153,0.242179872,0.231826203
0.195279502,0.329806729,0.243286751,0.231627018
0.194889167,0.329289665,0.244392179,0.231428988
0.19450176,0.328769999,0.245496125,0.231232116
0.19411727,0.328247764,0.24659856,0.231036406
0.193735685,0.327722993,0.247699455,0.230841867
0.193356989,0.327195718,0.248798785,0.230648508
0.192981167,0.326665969,0.249896522,0.230456341
0.192608203,0.326133779,0.250992639,0.230265379
0.19223808,0.325599177,0.252087111,0.230075633
0.191870781,0.325062194,0.25317991,0.229887116
0.191506288,0.324522864,0.25427101,0.229699839
0.191144582,0.323981219,0.255360386,0.229513813
0.190785644,0.323437292,0.256448013,0.22932905
0.190429455,0.322891118,0.257533865,0.229145562
0.190075993,0.322342728,0.258617918,0.22896336
0.189725241,0.321792155,0.259700145,0.228782459
0.189377177,0.321239431,0.260780519,0.228602873
0.189031781,0.32068459,0.261859013,0.228424616
0.188689031,0.320127665,0.2629356,0.228247704
0.188348905,0.31956869,0.264010251,0.228072154
0.188011382,0.319007701,0.265082934,0.227897982
0.187676442,0.318444731,0.26615362,0.227725207
0.187344065,0.317879811,0.267222277,0.227553847
0.187014232,0.317312972,0.268288876,0.227383919
0.186686926,0.316744241,0.26935339,0.227215443
0.186362128,0.316173644,0.270415792,0.227048436
0.186039817,0.315601208,0.271476058,0.226882916
0.185719973,0.315026962,0.272534162,0.226718904
0.185402574,0.314450934,0.273590075,0.226556416
0.1850876,0.313873159,0.27464377,0.226395471
0.184775028,0.313293669,0.275695217,0.226236086
0.184464839,0.312712498,0.276744388,0.226078276
0.184157012,0.31212968,0.277791253,0.225922054
0.18385153,0.311545251,0.278835784,0.225767435
0.183548372,0.310959249,0.27987795,0.22561443
0.183247518,0.310371711,0.280917721,0.22546305
0.182948947,0.309782678,0.281955068,0.225313307
0.18265264,0.309192193,0.282989957,0.225165209
0.182358577,0.308600299,0.284022359,0.225018766
0.182066735,0.308007036,0.285052244,0.224873984
0.181777096,0.307412448,0.286079585,0.224730872
0.181489636,0.306816576,0.287104355,0.224589433
0.181204337,0.30621946,0.28812653,0.224449673
0.180921174,0.305621144,0.289146086,0.224311596
0.180640128,0.305021667,0.290163,0.224175205
0.180361174,0.304421069,0.291177253,0.224040504
0.18008429,0.303819392,0.292188824,0.223907494
0.179809454,0.303216674,0.293197696,0.223776177
0.179536644,0.302612954,0.294203848,0.223646554
0.179265838,0.30200827,0.295207265,0.223518626
0.178997015,0.301402663,0.29620793,0.223392393
0.178730149,0.30079617,0.297205826,0.223267856
0.178465215,0.300188831,0.298200941,0.223145013
0.178202187,0.299580689,0.299193262,0.223023862
0.177941038,0.298971785,0.300182775,0.222904402
0.17768174,0.29836216,0.301169467,0.222786633
0.177424265,0.297751854,0.302153325,0.222670555
0.177168586,0.297140906,0.303134337,0.222556171
0.176914676,0.296529351,0.304112489,0.222443484
0.176662509,0.295917226,0.305087769,0.222332497
0.176412059,0.295304568,0.306060161,0.222223211
0.176163305,0.294691416,0.307029649,0.22211563
0.175916223,0.294077808,0.307996216,0.222009753
0.175670793,0.293463781,0.308959844,0.221905582
0.175426996,0.292849373,0.309920516,0.221803115
0.175184813,0.29223462,0.310878214,0.221702354
0.174944226,0.291619559,0.31183292,0.221603296
0.174705215,0.291004228,0.312784617,0.221505941
0.174467761,0.290388667,0.313733286,0.221410287
0.174231845,0.289772917,0.314678909,0.221316328
0.173997449,0.289157022,0.315621468,0.221224062
0.173764552,0.288541022,0.316560943,0.221133482
0.173533137,0.287924961,0.317497318,0.221044584
0.173303184,0.287308879,0.318430575,0.220957362
0.173074676,0.286692816,0.319360697,0.220871811
0.172847594,0.286076813,0.320287667,0.220787927
0.17262192,0.285460909,0.321211468,0.220705703
0.172397637,0.284845148,0.322132082,0.220625133
0.172174724,0.284229572,0.323049491,0.220546212
0.171953164,0.283614225,0.323963677,0.220468934
0.171732939,0.28299915,0.324874622,0.22039329
0.171514029,0.282384388,0.325782309,0.220319274
0.171296417,0.281769982,0.326686722,0.220246879
0.171080085,0.281155971,0.327587846,0.220176099
0.170865015,0.280542396,0.328485662,0.220106926
0.170651191,0.2799293,0.329380156,0.220039353
0.170438593,0.279316724,0.33027131,0.219973373
0.170227206,0.27870471,0.331159109,0.219908975
0.170017012,0.278093301,0.332043535,0.219846151
0.169807998,0.277482539,0.332924572,0.219784891
0.169600145,0.276872463,0.333802207,0.219725185
0.16939344,0.276263114,0.334676424,0.219667023
0.169187866,0.27565453,0.335547211,0.219610394
0.168983411,0.27504675,0.336414553,0.219555287
0.16878006,0.274439813,0.337278436,0.219501691
0.168577802,0.273833759,0.338138847,0.219449592
0.168376628,0.273228625,0.33899577,0.219398978
0.168176525,0.272624448,0.339849192,0.219349834
0.167977488,0.272021264,0.3406991,0.219302149
0.167779507,0.271419107,0.341545479,0.219255907
0.167582576,0.27081801,0.342388316,0.219211098
0.167386688,0.270218008,0.343227598,0.219167706
0.167191837,0.269619133,0.34406331,0.21912572
0.16699802,0.269021417,0.344895438,0.219085126
0.166805232,0.268424891,0.345723967,0.21904591
0.166613472,0.267829585,0.346548883,0.219008059
0.166422738,0.267235527,0.347370174,0.218971562
0.166233027,0.266642741,0.348187827,0.218936405
0.166044336,0.266051254,0.349001832,0.218902578
0.165856663,0.265461088,0.349812178,0.21887007
0.165670008,0.264872267,0.350618856,0.218838868
0.16548437,0.264284815,0.351421856,0.21880896
0.165299748,0.263698754,0.352221169,0.218780329
0.165116142,0.263114106,0.35301679,0.218752962
0.164933552,0.262530892,0.353808715,0.218726841
0.164751976,0.261949133,0.354596942,0.21870195
0.164571413,0.261368845,0.355381471,0.218678271
0.164391861,0.260790048,0.356162304,0.218655787
0.164213313,0.260212759,0.356939447,0.218634481
0.164035765,0.259636996,0.357712906,0.218614334
0.163859207,0.259062776,0.358482689,0.218595328
0.163683633,0.258490118,0.359248802,0.218577448
0.163509032,0.257919039,0.360011254,0.218560675
0.163335397,0.257349556,0.360770052,0.218544995
0.163162718,0.256781685,0.361525205,0.218530392
0.162990987,0.25621544,0.362276721,0.218516852
0.162820193,0.255650838,0.363024608,0.218504361
0.162650329,0.255087893,0.363768874,0.218492904
0.162481383,0.254526623,0.364509528,0.218482466
0.162313347,0.253967043,0.365246576,0.218473035
0.162146211,0.253409169,0.365980025,0.218464594
0.161979966,0.252853017,0.366709885,0.218457131
0.161814604,0.252298602,0.367436162,0.218450632
0.161650116,0.251745937,0.368158865,0.218445083
0.161486492,0.251195036,0.368878002,0.21844047
0.161323725,0.250645916,0.36959358,0.218436779
0.161161806,0.250098591,0.370305605,0.218433997
0.161000728,0.249553077,0.371014085,0.21843211
0.160840484,0.249009388,0.371719025,0.218431103
0.160681067,0.248467539,0.372420432,0.218430961
0.160522471,0.247927543,0.373118314,0.218431672
0.160364689,0.247389411,0.373812677,0.218433222
0.160207715,0.246853157,0.37450353,0.218435598
0.160051542,0.246318792,0.37519088,0.218438786
0.159896164,0.24578633,0.375874733,0.218442773
0.159741576,0.245255783,0.376555096,0.218447545
0.159587772,0.244727165,0.377231975,0.218453088
0.159434748,0.244200486,0.377905377,0.218459389
0.159282501,0.243675758,0.378575308,0.218466434
0.159131025,0.24315299,0.379241775,0.21847421
0.158980318,0.242632192,0.379904785,0.218482704
0.158830373,0.242113374,0.380564346,0.218491906
0.158681186,0.241596547,0.381220464,0.218501803
0.158532752,0.24108172,0.381873146,0.218512382
0.158385067,0.240568904,0.382522396,0.218523633
0.158238126,0.240058111,0.383168221,0.218535542
0.158091927,0.239549348,0.383810627,0.218548098
0.157946467,0.239042623,0.38444962,0.218561289
0.157801744,0.238537946,0.385085207,0.218575103
0.157657754,0.238035323,0.385717393,0.21858953
0.157514496,0.237534763,0.386346184,0.218604557
0.157371965,0.237036275,0.386971587,0.218620174
0.157230158,0.236539867,0.387593605,0.218636369
0.157089075,0.236045548,0.388212247,0.218653131
0.156948713,0.235553323,0.388827517,0.218670447
0.156809069,0.235063199,0.389439425,0.218688306
0.156670143,0.234575181,0.39004798,0.218706697
0.15653193,0.234089271,0.390653191,0.218725608
0.15639443,0.233605476,0.391255068,0.218745027
0.156257637,0.233123797,0.391853623,0.218764943
0.15612155,0.23264424,0.392448868,0.218785342
0.155986164,0.23216681,0.393040815,0.218806212
0.155851476,0.231691508,0.393629476,0.21882754
0.155717482,0.231218339,0.394214865,0.218849315
0.155584177,0.230747303,0.394796995,0.218871525
0.155451558,0.230278402,0.395375881,0.218894158
0.155319622,0.229811637,0.395951536,0.218917205
0.155188365,0.229347008,0.396523974,0.218940654
0.155057785,0.228884516,0.397093206,0.218964494
0.154927879,0.228424161,0.397659245,0.218988715
0.154798646,0.227965943,0.398222103,0.219013307
0.154670084,0.227509861,0.398781795,0.219038259
0.154542191,0.227055912,0.399338335,0.219063562
0.154414965,0.226604091,0.399891737,0.219089207
0.154288407,0.226154395,0.400442015,0.219115183
0.154162515,0.225706817,0.400989186,0.219141482
0.154037293,0.225261352,0.401533261,0.219168094
0.153912739,0.224817997,0.402074256,0.219195008
0.153788856,0.224376747,0.402612183,0.219222214
0.153665645,0.223937597,0.403147055,0.219249703
0.153543106,0.223500542,0.403678887,0.219277465
0.15342124,0.223065576,0.404207691,0.219305493
0.153300047,0.222632692,0.404733482,0.219333778
0.153179529,0.222201884,0.405256275,0.219362312
0.153059687,0.221773145,0.405776083,0.219391085
0.152940522,0.22134647,0.40629292,0.219420088
0.152822037,0.220921853,0.406806798,0.219449312
0.152704235,0.220499286,0.407317731,0.219478748
0.152587117,0.220078764,0.40782573,0.219508389
0.152470685,0.219660276,0.408330809,0.219538229
0.152354942,0.219243816,0.40883298,0.219568262
0.152239889,0.218829377,0.409332254,0.21959848
0.152125526,0.218416952,0.409828643,0.219628879
0.152011853,0.218006535,0.41032216,0.219659452
0.151898871,0.217598121,0.410812815,0.219690193
0.15178658,0.217191705,0.41130062,0.219721095
0.151674981,0.21678728,0.411785586,0.219752153
0.151564072,0.216384839,0.412267726,0.219783363
0.151453856,0.215984374,0.412747051,0.21981472
0.15134433,0.215585879,0.413223572,0.219846219
0.151235495,0.215189346,0.413697301,0.219877857
0.151127349,0.21479477,0.414168251,0.21990963
0.15101989,0.214402143,0.414636434,0.219941534
0.150913116,0.214011461,0.415101861,0.219973563
0.150807023,0.213622719,0.415564547,0.220005712
0.150701608,0.21323591,0.416024506,0.220037976
0.150596868,0.212851029,0.416481753,0.220070349
0.150492799,0.21246807,0.416936303,0.220102828
0.150389396,0.212087027,0.417388171,0.220135405
0.150286656,0.211707894,0.417837373,0.220168076
0.150184574,0.211330668,0.418283923,0.220200835
0.150083144,0.210955342,0.418727839,0.220233674
0.149982362,0.210581913,0.419169138,0.220266587
0.149882222,0.210210375,0.419607837,0.220299566
0.149782718,0.209840719,0.420043955,0.220332608
0.149683846,0.209472935,0.420477509,0.22036571
0.149585599,0.209107015,0.420908514,0.220398872
0.149487975,0.208742948,0.421336985,0.220432092
0.14939097,0.208380725,0.421762936,0.220465369
0.149294582,0.208020335,0.422186381,0.220498702
0.149198808,0.207661768,0.422607334,0.22053209
0.149103646,0.207305014,0.423025809,0.220565531
0.149009095,0.206950063,0.423441818,0.220599024
0.148915152,0.206596902,0.423855378,0.220632567
0.148821815,0.206245523,0.424266502,0.22066616
0.148729082,0.205895914,0.424675205,0.220699799
0.14863695,0.205548066,0.4250815,0.220733483
0.148545416,0.205201972,0.425485402,0.22076721
0.148454479,0.204857623,0.425886923,0.220800975
0.148364136,0.204515009,0.426286077,0.220834778
0.148274385,0.204174121,0.426682878,0.220868616
0.148185224,0.203834949,0.42707734,0.220902487
0.148096649,0.203497484,0.427469476,0.22093639
0.148008659,0.203161717,0.4278593,0.220970324
0.14792125,0.20282764,0.428246823,0.221004287
0.147834418,0.202495246,0.428632059,0.221038277
0.147748162,0.202164527,0.429015019,0.221072292
0.147662479,0.201835477,0.429395714,0.22110633
0.147577366,0.201508088,0.429774157,0.221140389
0.147492822,0.201182352,0.430150359,0.221174467
0.147408845,0.200858261,0.430524332,0.221208562
0.147325432,0.20053581,0.430896088,0.22124267
0.147242582,0.200214991,0.431265638,0.22127679
0.147160292,0.199895798,0.431632991,0.221310918
0.147078563,0.199578227,0.431998156,0.221345054
0.146997394,0.19926227,0.432361142,0.221379194
0.146916786,0.19894792,0.432721957,0.221413338
0.146836738,0.19863517,0.433080607,0.221447485
0.146757251,0.198324013,0.433437103,0.221481633
0.146678326,0.19801444,0.433791451,0.221515783
0.146599964,0.197706445,0.434143659,0.221549933
0.146522164,0.197400022,0.434493732,0.221584083
0.146444927,0.197095164,0.434841678,0.221618232
0.146368255,0.196791865,0.435187501,0.22165238
0.146292149,0.196490118,0.435531208,0.221686525
0.14621661,0.196189916,0.435872805,0.221720668
0.14614164,0.195891253,0.436212299,0.221754808
0.14606724,0.195594121,0.436549696,0.221788944
0.145993409,0.195298513,0.436885001,0.221823077
0.145920149,0.195004426,0.43721822,0.221857205
0.145847461,0.194711853,0.437549357,0.221891328
0.145775345,0.19442079,0.437878418,0.221925446
0.145703803,0.194131232,0.438205409,0.221959557
0.145632836,0.193843171,0.438530333,0.22199366
0.145562445,0.193556603,0.438853196,0.222027756
0.145492632,0.19327152,0.439174003,0.222061845
0.145423398,0.192987916,0.43949276,0.222095926
0.145354744,0.192705786,0.439809471,0.222129999
0.145286673,0.192425125,0.440124138,0.222164063
0.145219188,0.192145926,0.440436766,0.222198119
0.145152293,0.191868184,0.440747358,0.222232165
0.145085992,0.19159189,0.441055916,0.222266202
0.14502029,0.191317039,0.441362443,0.222300228
0.14495519,0.191043622,0.441666945,0.222334243
0.144890699,0.190771631,0.441969423,0.222368247
0.144826821,0.190501062,0.442269881,0.222402236
0.14476356,0.190231906,0.442568322,0.222436211
0.144700923,0.18996416,0.442864749,0.222470168
0.144638912,0.189697816,0.443159164,0.222504107
0.144577534,0.189432869,0.443451571,0.222538026
0.144516793,0.189169312,0.443741972,0.222571923
0.144456694,0.188907136,0.444030372,0.222605797
0.144397241,0.188646336,0.444316776,0.222639647
0.144338437,0.188386905,0.444601186,0.222673472
0.144280288,0.188128834,0.444883608,0.22270727
0.144222798,0.187872118,0.445164045,0.222741039
0.144165969,0.18761675,0.445442503,0.222774778
0.144109807,0.187362722,0.445718987,0.222808484
0.144054315,0.187110026,0.445993503,0.222842157
0.143999496,0.186858655,0.446266056,0.222875793
0.143945355,0.186608601,0.446536652,0.222909392
0.143891893,0.186359858,0.446805297,0.222942952
0.143839116,0.186112417,0.447071997,0.22297647
0.143787026,0.185866272,0.447336758,0.223009944
0.143735626,0.185621416,0.447599587,0.223043371
0.143684921,0.185377843,0.44786049,0.223076747
0.143634912,0.185135545,0.448119474,0.223110069
0.143585603,0.184894516,0.448376547,0.223143334
0.143536998,0.184654747,0.448631717,0.223176538
0.1434891,0.184416231,0.448884992,0.223209677
0.143441914,0.184178962,0.449136377,0.223242747
0.143395442,0.183942932,0.44938588,0.223275746
0.14334969,0.183708134,0.449633507,0.223308669
0.143304662,0.183474563,0.449879263,0.223341512
0.143260364,0.18324221,0.450123155,0.223374271
0.143216799,0.183011069,0.45036519,0.223406942
0.143173974,0.182781131,0.450605374,0.223439522
0.143131893,0.182552387,0.450843714,0.223472006
0.143090564,0.182324831,0.451080217,0.223504389
0.143049993,0.182098453,0.451314889,0.223536666
0.143010188,0.181873245,0.451547734,0.223568833
0.142971156,0.1816492,0.451778759,0.223600885
0.142932904,0.181426309,0.452007968,0.223632819
0.142895441,0.181204562,0.452235365,0.223664632
0.142858772,0.180983951,0.452460957,0.22369632
0.142822905,0.180764467,0.452684748,0.223727881
0.142787847,0.1805461,0.452906743,0.22375931
0.142753604,0.180328843,0.453126947,0.223790606
0.142720185,0.180112688,0.453345362,0.223821765
0.142687597,0.179897628,0.453561992,0.223852784
0.142655848,0.179683654,0.453776838,0.22388366
0.142624948,0.17947076,0.453989902,0.22391439
0.142594904,0.179258936,0.454201188,0.223944972
0.142565724,0.179048176,0.454410697,0.223975402
0.142537417,0.178838472,0.454618433,0.224005678
0.142509989,0.178629819,0.454824396,0.224035796
0.142483448,0.17842221,0.455028589,0.224065753
0.142457799,0.178215643,0.455231013,0.224095544
0.142433049,0.178010113,0.45543167,0.224125167
0.142409204,0.177805616,0.455630562,0.224154617
0.142386271,0.177602148,0.45582769,0.224183891
0.142364257,0.177399703,0.456023057,0.224212984
0.142343166,0.177198277,0.456216665,0.224241892
0.142323007,0.176997866,0.456408514,0.224270613
0.142303783,0.176798467,0.456598607,0.224299142
0.142285502,0.176600078,0.456786945,0.224327476
0.142268167,0.176402696,0.456973528,0.22435561
0.142251782,0.176206319,0.457158357,0.224383542
0.142236354,0.176010945,0.457341434,0.224411268
0.142221885,0.17581657,0.45752276,0.224438785
0.142208379,0.175623192,0.457702337,0.224466091
0.142195843,0.175430809,0.457880167,0.224493181
0.142184278,0.175239419,0.45805625,0.224520052
0.142173691,0.175049022,0.458230588,0.2245467
0.142164084,0.174859616,0.45840318,0.224573121
0.14215546,0.174671202,0.458574027,0.224599311
0.142147824,0.174483778,0.45874313,0.224625268
0.142141177,0.174297345,0.458910492,0.224650987
0.142135524,0.1741119,0.459076112,0.224676465
0.142130867,0.173927442,0.459239992,0.224701698
0.14212721,0.173743972,0.459402132,0.224726685
0.142124558,0.173561488,0.459562533,0.224751422
0.142122913,0.17337999,0.459721192,0.224775905
0.14212228,0.173199478,0.459878111,0.22480013
0.142122665,0.173019953,0.460033287,0.224824096
0.14212407,0.172841413,0.460186721,0.224847797
0.1421265,0.172663856,0.460338412,0.224871231
0.14212996,0.172487283,0.460488361,0.224894396
0.142134455,0.172311692,0.460636567,0.224917286
0.142139989,0.172137084,0.460783028,0.224939899
0.142146566,0.17196346,0.460927742,0.224962231
0.142154191,0.171790821,0.461070708,0.22498428
0.142162868,0.171619167,0.461211922,0.225006043
0.142172599,0.171448499,0.461351386,0.225027516
0.142183389,0.171278817,0.461489096,0.225048698
0.14219524,0.171110122,0.461625054,0.225069585
0.142208155,0.170942413,0.461759257,0.225090176
0.142222136,0.170775693,0.461891704,0.225110467
0.142237186,0.170609963,0.462022394,0.225130457
0.142253307,0.170445225,0.462151326,0.225150143
0.142270504,0.170281479,0.462278496,0.225169521
0.142288779,0.170118727,0.462403904,0.225188591
0.142308134,0.169956969,0.462527547,0.225207349
0.142328575,0.169796205,0.462649426,0.225225794
0.142350103,0.169636436,0.462769537,0.225243924
0.142372723,0.169477661,0.46288788,0.225261736
0.142396439,0.169319883,0.46300445,0.225279229
0.142421255,0.169163101,0.463119244,0.2252964
0.142447176,0.169007317,0.463232258,0.225313249
0.142474208,0.168852531,0.463343486,0.225329775
