processed_ch1,processed_ch2,processed_ch3,processed_ch4
0.090085175,0.078111257,0.116147732,0.049910505
0.090075081,0.078064136,0.116196395,0.049920733
0.090065041,0.078017261,0.11624501,0.049931129
0.090055054,0.077970633,0.11629357,0.049941694
0.090045118,0.077924253,0.11634207,0.049952424
0.090035229,0.077878121,0.116390502,0.049963318
0.090025387,0.077832239,0.11643886,0.049974375
0.090015589,0.077786605,0.116487138,0.049985592
0.090005833,0.077741222,0.116535329,0.049996968
0.089996117,0.077696088,0.116583425,0.050008501
0.089986438,0.077651205,0.11663142,0.05002019
0.089976796,0.077606572,0.116679308,0.050032033
0.089967188,0.077562189,0.11672708,0.050044029
0.089957612,0.077518056,0.116774731,0.050056176
0.089948069,0.077474173,0.116822253,0.050068473
0.089938555,0.07743054,0.116869639,0.05008092
0.08992907,0.077387157,0.116916883,0.050093514
0.089919611,0.077344021,0.116963978,0.050106255
0.089910178,0.077301135,0.117010916,0.050119143
0.089900769,0.077258496,0.11705769,0.050132175
0.089891383,0.077216106,0.117104294,0.050145351
0.089882016,0.077173962,0.11715072,0.050158669
0.089872669,0.077132066,0.117196962,0.050172128
0.08986334,0.077090416,0.117243012,0.050185726
0.089854027,0.077049012,0.117288866,0.050199461
0.089844729,0.077007853,0.117334515,0.050213332
0.089835443,0.07696694,0.117379953,0.050227336
0.089826169,0.076926271,0.117425172,0.050241472
0.089816905,0.076885846,0.117470167,0.050255737
0.089807648,0.076845666,0.11751493,0.050270129
0.089798397,0.07680573,0.117559454,0.050284646
0.08978915,0.076766037,0.117603734,0.050299285
0.089779906,0.076726588,0.117647762,0.050314044
0.089770663,0.076687382,0.117691532,0.050328921
0.089761418,0.076648418,0.117735037,0.050343914
0.089752171,0.076609697,0.117778272,0.050359021
0.089742919,0.076571218,0.117821231,0.050374242
0.08973366,0.076532981,0.117863906,0.050389573
0.089724394,0.076494987,0.117906294,0.050405015
0.089715117,0.076457238,0.117948388,0.050420566
0.089705827,0.076419733,0.117990183,0.050436224
0.089696524,0.076382475,0.118031673,0.050451989
0.089687204,0.076345464,0.118072853,0.050467857
0.089677865,0.0763087,0.118113717,0.050483828
0.089668506,0.076272186,0.118154261,0.0504999
0.089659123,0.076235919,0.118194478,0.050516072
0.089649716,0.076199903,0.118234365,0.050532341
0.08964028,0.076164135,0.118273914,0.050548705
0.089630815,0.076128617,0.118313123,0.050565164
0.089621319,0.076093348,0.118351985,0.050581714
0.089611788,0.076058329,0.118390495,0.050598354
0.089602221,0.07602356,0.11842865,0.050615081
0.089592616,0.07598904,0.118466445,0.050631892
0.08958297,0.07595477,0.118503874,0.050648784
0.089573282,0.07592075,0.118540933,0.050665755
0.089563549,0.075886979,0.118577617,0.050682803
0.089553769,0.075853458,0.118613922,0.050699925
0.08954394,0.075820187,0.118649844,0.050717119
0.089534059,0.075787165,0.118685379,0.050734384
0.089524125,0.075754393,0.118720522,0.050751717
0.089514134,0.075721871,0.11875527,0.050769117
0.089504087,0.075689598,0.118789619,0.050786581
0.089493979,0.075657574,0.118823565,0.050804107
0.089483809,0.075625798,0.118857104,0.050821693
0.089473575,0.07559427,0.118890232,0.050839335
0.089463274,0.075562989,0.118922946,0.050857033
0.089452904,0.075531954,0.11895524,0.050874782
0.089442462,0.075501165,0.118987112,0.050892581
0.089431947,0.075470621,0.119018556,0.050910426
0.089421356,0.075440321,0.119049569,0.050928315
0.089410687,0.075410264,0.119080147,0.050946246
0.089399937,0.075380451,0.119110287,0.050964216
0.089389103,0.075350882,0.119139983,0.050982223
0.089378183,0.075321555,0.119169232,0.051000265
0.089367175,0.075292471,0.119198031,0.051018338
0.089356075,0.075263629,0.119226374,0.051036441
0.089344881,0.07523503,0.119254259,0.051054573
0.08933359,0.075206672,0.119281682,0.051072731
0.089322199,0.075178556,0.119308639,0.051090915
0.089310705,0.075150682,0.119335125,0.051109122
0.089299105,0.075123047,0.119361137,0.051127352
0.089287397,0.075095653,0.119386671,0.051145604
0.089275576,0.075068497,0.119411722,0.051163876
0.089263641,0.07504158,0.119436287,0.051182168
0.089251591,0.0750149,0.119460363,0.051200479
0.089239423,0.074988455,0.119483945,0.051218808
0.089227135,0.074962244,0.119507033,0.051237153
0.089214728,0.074936267,0.119529622,0.051255514
0.089202201,0.07491052,0.119551709,0.05127389
0.089189552,0.074885003,0.119573294,0.05129228
0.089176784,0.074859714,0.119594372,0.051310683
0.089163897,0.07483465,0.119614943,0.0513291
0.08915089,0.07480981,0.119635005,0.05134753
0.089137767,0.074785191,0.119654556,0.051365974
0.089124526,0.074760791,0.119673596,0.051384431
0.08911117,0.074736609,0.119692123,0.051402901
0.0890977,0.074712641,0.119710137,0.051421385
0.089084117,0.074688886,0.119727637,0.051439882
0.089070421,0.074665341,0.119744622,0.051458391
0.089056615,0.074642005,0.119761092,0.051476913
0.0890427,0.074618876,0.119777048,0.051495445
0.089028677,0.074595952,0.119792489,0.051513988
0.089014548,0.07457323,0.119807416,0.051532539
0.089000314,0.074550708,0.119821829,0.051551098
0.088985976,0.074528384,0.119835728,0.051569663
0.088971535,0.074506255,0.119849113,0.051588232
0.088956994,0.074484318,0.119861984,0.051606804
0.088942353,0.07446257,0.119874342,0.051625378
0.088927613,0.074441009,0.119886187,0.051643952
0.088912776,0.074419631,0.119897519,0.051662525
0.088897844,0.074398436,0.119908339,0.051681095
0.088882817,0.074377418,0.119918646,0.051699662
0.088867698,0.074356577,0.119928443,0.051718225
0.088852489,0.074335908,0.119937729,0.051736783
0.088837192,0.07431541,0.119946504,0.051755335
0.088821808,0.074295079,0.11995477,0.05177388
0.088806339,0.074274913,0.119962526,0.051792418
0.088790788,0.074254909,0.119969773,0.051810949
0.088775157,0.074235064,0.119976511,0.051829471
0.088759448,0.074215374,0.11998274,0.051847984
0.088743663,0.074195838,0.11998846,0.051866488
0.088727803,0.074176453,0.119993671,0.051884983
0.088711871,0.074157214,0.119998372,0.051903469
0.088695867,0.074138121,0.120002563,0.051921946
0.088679793,0.074119171,0.120006244,0.051940415
0.088663651,0.074100363,0.120009413,0.051958874
0.088647441,0.074081695,0.120012071,0.051977324
0.088631164,0.074063167,0.120014218,0.051995765
0.088614822,0.074044778,0.120015851,0.052014194
0.088598416,0.074026528,0.120016972,0.052032614
0.088581945,0.074008417,0.120017579,0.052051022
0.088565412,0.073990445,0.120017673,0.052069419
0.088548815,0.073972613,0.120017252,0.052087804
0.088532157,0.073954921,0.120016317,0.052106178
0.088515437,0.073937368,0.120014869,0.052124539
0.088498656,0.073919956,0.120012906,0.052142885
0.088481816,0.073902684,0.12001043,0.052161218
0.088464917,0.073885552,0.120007441,0.052179534
0.088447959,0.073868559,0.120003938,0.052197834
0.088430945,0.073851707,0.119999922,0.052216116
0.088413874,0.073834993,0.119995392,0.052234379
0.088396748,0.073818418,0.11999035,0.052252622
0.088379568,0.073801981,0.119984796,0.052270842
0.088362336,0.073785682,0.119978731,0.052289039
0.088345054,0.07376952,0.119972156,0.052307212
0.088327721,0.073753495,0.119965073,0.052325359
0.08831034,0.073737607,0.119957482,0.05234348
0.088292912,0.073721856,0.119949384,0.052361573
0.088275439,0.073706241,0.119940782,0.052379637
0.088257921,0.073690762,0.119931676,0.052397672
0.088240361,0.073675418,0.119922067,0.052415675
0.088222759,0.07366021,0.119911958,0.052433645
0.088205117,0.073645137,0.11990135,0.052451582
0.088187436,0.073630199,0.119890245,0.052469484
0.088169718,0.073615395,0.119878643,0.052487349
0.088151962,0.073600725,0.119866547,0.052505175
0.088134171,0.073586188,0.119853959,0.052522962
0.088116344,0.073571781,0.119840878,0.052540707
0.088098484,0.073557506,0.119827307,0.052558408
0.088080591,0.07354336,0.119813247,0.052576065
0.088062665,0.073529341,0.1197987,0.052593674
0.088044707,0.07351545,0.119783668,0.052611236
0.088026719,0.073501684,0.119768152,0.052628748
0.088008701,0.073488043,0.119752155,0.05264621
0.087990655,0.073474526,0.119735677,0.05266362
0.087972581,0.073461132,0.119718722,0.052680976
0.087954481,0.073447858,0.11970129,0.052698277
0.087936355,0.073434705,0.119683384,0.052715521
0.087918206,0.07342167,0.119665005,0.052732707
0.087900033,0.073408752,0.119646154,0.052749834
0.087881839,0.073395949,0.119626834,0.0527669
0.087863625,0.07338326,0.119607046,0.052783905
0.087845391,0.073370682,0.11958679,0.052800848
0.087827139,0.073358215,0.11956607,0.052817729
0.087808871,0.073345856,0.119544886,0.052834546
0.087790586,0.073333602,0.119523239,0.052851299
0.087772286,0.073321453,0.119501133,0.052867987
0.087753972,0.073309406,0.119478567,0.052884611
0.087735644,0.07329746,0.119455545,0.052901169
0.087717305,0.073285611,0.119432066,0.052917659
0.087698956,0.073273858,0.119408133,0.052934082
0.087680598,0.073262199,0.119383749,0.052950434
0.087662234,0.073250632,0.119358913,0.052966716
0.087643864,0.073239155,0.119333628,0.052982926
0.087625492,0.073227767,0.119307896,0.052999063
0.08760712,0.073216466,0.119281718,0.053015126
0.087588749,0.073205251,0.119255096,0.053031114
0.087570382,0.07319412,0.119228033,0.053047029
0.087552019,0.073183072,0.11920053,0.05306287
0.087533664,0.073172106,0.11917259,0.053078637
0.087515317,0.073161219,0.119144215,0.053094333
0.087496981,0.073150411,0.119115409,0.053109958
0.087478655,0.073139679,0.119086173,0.053125512
0.087460343,0.073129024,0.11905651,0.053140996
0.087442045,0.073118442,0.119026425,0.053156413
0.087423761,0.073107934,0.11899592,0.053171763
0.087405494,0.073097497,0.118964999,0.053187047
0.087387245,0.07308713,0.118933665,0.053202266
0.087369013,0.073076831,0.118901923,0.053217422
0.0873508,0.0730666,0.118869776,0.053232516
0.087332607,0.073056434,0.118837228,0.053247547
0.087314433,0.073046333,0.118804281,0.053262518
0.087296281,0.073036293,0.118770941,0.05327743
0.087278149,0.073026314,0.118737209,0.053292284
0.08726004,0.073016393,0.118703089,0.053307081
0.087241953,0.073006528,0.118668584,0.053321823
0.087223889,0.072996717,0.118633695,0.053336511
0.087205849,0.072986957,0.118598427,0.053351146
0.087187833,0.072977247,0.118562781,0.053365728
0.087169841,0.072967584,0.11852676,0.053380258
0.087151874,0.072957965,0.118490367,0.053394737
0.087133931,0.072948388,0.118453604,0.053409164
0.087116014,0.07293885,0.118416473,0.05342354
0.087098121,0.072929347,0.118378977,0.053437865
0.087080253,0.072919878,0.118341118,0.053452139
0.08706241,0.072910438,0.118302899,0.053466364
0.087044592,0.072901025,0.118264321,0.053480539
0.087026799,0.072891636,0.118225387,0.053494666
0.087009031,0.072882268,0.118186099,0.053508746
0.086991287,0.072872916,0.118146459,0.053522778
0.086973568,0.072863579,0.118106471,0.053536764
0.086955874,0.072854253,0.118066136,0.053550705
0.086938203,0.072844935,0.118025457,0.053564602
0.086920555,0.072835621,0.117984437,0.053578454
0.086902931,0.07282631,0.117943079,0.053592263
0.08688533,0.072816998,0.117901385,0.053606028
0.086867751,0.072807682,0.117859359,0.053619748
0.086850194,0.07279836,0.117817002,0.053633425
0.08683266,0.072789029,0.117774318,0.053647056
0.086815147,0.072779686,0.117731308,0.053660643
0.086797656,0.072770328,0.117687975,0.053674184
0.086780187,0.072760952,0.117644321,0.05368768
0.086762738,0.072751555,0.117600348,0.053701129
0.086745311,0.072742134,0.117556057,0.053714531
0.086727904,0.072732685,0.11751145,0.053727886
0.086710517,0.072723205,0.117466529,0.053741193
0.08669315,0.072713692,0.117421296,0.053754452
0.086675803,0.072704144,0.117375752,0.053767664
0.086658474,0.07269456,0.117329898,0.05378083
0.086641164,0.07268494,0.117283735,0.05379395
0.086623872,0.072675281,0.117237266,0.053807025
0.086606598,0.072665585,0.117190492,0.053820056
0.086589342,0.072655851,0.117143413,0.053833044
0.086572103,0.072646078,0.117096033,0.053845988
0.086554881,0.072636266,0.117048353,0.053858889
0.086537675,0.072626415,0.117000377,0.053871748
0.086520485,0.072616525,0.116952106,0.053884563
0.08650331,0.072606594,0.116903544,0.053897334
0.086486149,0.072596623,0.116854696,0.053910062
0.086469001,0.07258661,0.116805565,0.053922744
0.086451867,0.072576556,0.116756155,0.053935381
0.086434745,0.072566459,0.116706469,0.05394797
0.086417634,0.07255632,0.11665651,0.053960513
0.086400534,0.072546139,0.116606283,0.053973006
0.086383443,0.072535917,0.11655579,0.05398545
0.086366362,0.072525653,0.116505035,0.053997843
0.086349289,0.072515349,0.116454022,0.054010184
0.086332224,0.072505008,0.116402752,0.054022472
0.086315165,0.07249463,0.116351232,0.054034706
0.086298113,0.072484218,0.116299464,0.054046884
0.086281067,0.072473773,0.116247452,0.054059005
0.086264026,0.072463298,0.116195202,0.054071068
0.086246989,0.072452793,0.116142718,0.054083073
0.086229956,0.072442261,0.116090003,0.054095018
0.086212925,0.072431703,0.116037062,0.054106902
0.086195895,0.072421119,0.115983901,0.054118725
0.086178867,0.072410512,0.115930522,0.054130484
0.086161838,0.072399883,0.11587693,0.054142178
0.086144809,0.072389232,0.11582313,0.054153807
0.086127779,0.072378562,0.115769126,0.054165368
0.086110748,0.072367873,0.115714922,0.054176859
0.086093713,0.072357168,0.11566052,0.05418828
0.086076677,0.072346447,0.115605926,0.054199629
0.086059636,0.072335712,0.115551143,0.054210903
0.086042592,0.072324966,0.115496173,0.054222103
0.086025543,0.072314209,0.11544102,0.054233225
0.086008489,0.072303445,0.115385687,0.054244269
0.08599143,0.072292673,0.115330177,0.054255233
0.085974364,0.072281898,0.115274493,0.054266114
0.085957292,0.07227112,0.115218637,0.054276911
0.085940211,0.072260342,0.115162612,0.054287622
0.085923123,0.072249566,0.11510642,0.054298246
0.085906026,0.072238795,0.115050064,0.05430878
0.08588892,0.072228029,0.114993547,0.054319222
0.085871804,0.072217271,0.11493687,0.054329571
0.085854678,0.072206522,0.114880037,0.054339824
0.085837542,0.072195783,0.114823048,0.054349981
0.085820396,0.072185056,0.114765908,0.054360039
0.085803241,0.072174342,0.114708617,0.054369998
0.085786076,0.072163641,0.114651181,0.054379859
0.085768901,0.072152955,0.114593601,0.05438962
0.085751718,0.072142283,0.11453588,0.054399283
0.085734526,0.072131628,0.114478022,0.054408847
0.085717327,0.072120989,0.114420029,0.054418313
0.08570012,0.072110367,0.114361906,0.05442768
0.085682907,0.072099763,0.114303655,0.05443695
0.085665688,0.072089177,0.11424528,0.054446121
0.085648464,0.07207861,0.114186784,0.054455195
0.085631235,0.072068063,0.11412817,0.054464171
0.085614004,0.072057537,0.114069443,0.054473049
0.085596772,0.072047032,0.114010605,0.054481828
0.085579541,0.072036551,0.113951661,0.054490509
0.085562313,0.072026093,0.113892616,0.054499092
0.08554509,0.07201566,0.113833472,0.054507574
0.085527876,0.072005254,0.113774236,0.054515958
0.085510674,0.071994877,0.113714911,0.054524241
0.085493485,0.071984529,0.113655503,0.054532425
0.085476315,0.071974212,0.113596015,0.05454051
0.085459164,0.07196393,0.113536453,0.054548496
0.085442037,0.071953683,0.113476821,0.054556383
0.085424936,0.071943473,0.113417125,0.054564172
0.085407864,0.071933304,0.113357368,0.054571863
0.085390824,0.071923175,0.113297555,0.054579455
0.085373817,0.07191309,0.113237692,0.054586949
0.085356846,0.071903051,0.113177781,0.054594345
0.085339914,0.071893058,0.113117828,0.054601643
0.085323022,0.071883114,0.113057837,0.054608844
0.085306173,0.07187322,0.112997811,0.054615947
0.085289368,0.071863377,0.112937754,0.054622952
0.085272609,0.071853587,0.112877671,0.054629862
0.085255897,0.071843851,0.112817563,0.054636675
0.085239234,0.07183417,0.112757436,0.054643393
0.08522262,0.071824545,0.112697292,0.054650015
0.085206058,0.071814978,0.112637135,0.054656541
0.085189547,0.071805468,0.112576968,0.054662973
0.085173088,0.071796018,0.112516794,0.05466931
0.085156684,0.071786629,0.112456616,0.054675553
0.085140334,0.071777303,0.112396437,0.0546817
0.085124039,0.071768041,0.11233626,0.054687752
0.085107801,0.071758847,0.112276088,0.054693708
0.085091621,0.071749724,0.112215924,0.054699568
0.085075498,0.071740675,0.112155772,0.054705332
0.085059434,0.071731704,0.112095634,0.054711001
0.08504343,0.071722813,0.112035513,0.054716573
0.085027487,0.071714006,0.111975414,0.054722049
0.085011604,0.071705286,0.111915338,0.054727428
0.084995785,0.071696654,0.11185529,0.05473271
0.084980029,0.071688114,0.111795272,0.054737894
0.084964338,0.071679669,0.111735287,0.054742979
0.084948712,0.071671319,0.111675337,0.054747964
0.084933154,0.071663069,0.111615426,0.054752847
0.084917663,0.071654919,0.111555555,0.054757629
0.084902241,0.071646873,0.111495727,0.054762307
0.08488689,0.071638933,0.111435944,0.054766882
0.08487161,0.071631101,0.111376208,0.054771353
0.084856403,0.071623378,0.111316523,0.054775719
0.08484127,0.071615768,0.11125689,0.054779981
0.084826213,0.071608271,0.111197313,0.054784138
0.084811235,0.07160089,0.111137795,0.054788189
0.084796335,0.071593628,0.111078339,0.054792132
0.084781518,0.071586487,0.111018947,0.054795968
0.084766784,0.071579469,0.110959625,0.054799694
0.084752136,0.071572577,0.110900374,0.054803311
0.084737575,0.071565815,0.110841199,0.054806815
0.084723104,0.071559185,0.110782102,0.054810207
0.084708726,0.07155269,0.110723086,0.054813485
0.084694444,0.071546335,0.110664153,0.054816648
0.08468026,0.071540123,0.110605307,0.054819696
0.084666177,0.071534057,0.110546549,0.054822627
0.0846522,0.071528141,0.110487882,0.054825441
0.084638329,0.071522381,0.110429307,0.054828138
0.08462457,0.071516779,0.110370828,0.054830716
0.084610923,0.07151134,0.110312447,0.054833175
0.084597394,0.071506068,0.110254166,0.054835514
0.084583983,0.071500965,0.110195987,0.054837732
0.084570696,0.071496037,0.110137913,0.05483983
0.084557533,0.071491285,0.110079946,0.054841805
0.084544499,0.071486713,0.110022088,0.054843659
0.084531595,0.071482324,0.109964339,0.05484539
0.084518825,0.07147812,0.109906703,0.054846998
0.084506189,0.071474104,0.10984918,0.054848484
0.084493692,0.071470279,0.109791774,0.054849848
0.084481334,0.071466646,0.109734485,0.05485109
0.084469118,0.071463208,0.109677315,0.054852211
0.084457045,0.071459966,0.109620267,0.054853211
0.084445117,0.071456924,0.109563343,0.054854091
0.084433337,0.071454084,0.109506545,0.054854853
0.084421704,0.071451446,0.109449875,0.054855497
0.084410221,0.071449013,0.109393335,0.054856023
0.084398888,0.071446786,0.109336928,0.054856431
0.084387708,0.071444767,0.109280654,0.054856723
0.084376681,0.071442957,0.109224518,0.054856898
0.084365809,0.071441357,0.10916852,0.054856957
0.084355091,0.071439968,0.109112662,0.054856899
0.08434453,0.071438791,0.109056946,0.054856727
0.084334126,0.071437826,0.109001375,0.05485644
0.08432388,0.071437074,0.10894595,0.054856039
0.084313792,0.071436535,0.108890673,0.054855525
0.084303863,0.071436209,0.108835545,0.054854898
0.084294095,0.071436097,0.108780567,0.054854158
0.084284486,0.071436199,0.108725742,0.054853305
0.084275039,0.071436513,0.10867107,0.05485234
0.084265753,0.071437041,0.108616551,0.054851263
0.084256629,0.071437782,0.108562188,0.054850073
0.084247666,0.071438735,0.10850798,0.054848772
0.084238865,0.0714399,0.108453928,0.054847359
0.084230226,0.071441276,0.108400033,0.054845835
0.084221749,0.071442863,0.108346296,0.054844199
0.084213434,0.071444661,0.108292716,0.054842451
0.084205281,0.07144667,0.108239294,0.054840593
0.084197289,0.071448887,0.10818603,0.054838624
0.084189457,0.071451313,0.108132925,0.054836545
0.084181786,0.071453946,0.108079979,0.054834356
0.084174274,0.071456785,0.108027191,0.054832058
0.084166921,0.071459828,0.107974564,0.054829652
0.084159726,0.071463076,0.107922096,0.054827137
0.084152687,0.071466526,0.107869787,0.054824514
0.084145803,0.071470176,0.107817639,0.054821782
0.084139075,0.071474027,0.107765651,0.054818942
0.0841325,0.071478077,0.107713823,0.054815993
0.084126079,0.071482326,0.107662155,0.054812935
0.084119812,0.071486772,0.107610647,0.054809768
0.084113698,0.071491415,0.1075593,0.05480649
0.084107737,0.071496255,0.107508114,0.054803103
0.084101931,0.071501291,0.107457088,0.054799606
0.084096279,0.071506523,0.107406223,0.054795999
0.084090783,0.071511953,0.107355518,0.054792282
0.084085444,0.071517579,0.107304974,0.054788457
0.084080261,0.071523403,0.10725459,0.054784522
0.084075237,0.071529423,0.107204365,0.054780479
0.084070373,0.07153564,0.107154301,0.054776325
0.084065671,0.071542053,0.107104396,0.054772062
0.084061132,0.071548662,0.10705465,0.054767689
0.084056757,0.071555465,0.107005063,0.054763207
0.08405255,0.071562462,0.106955635,0.054758616
0.084048511,0.071569652,0.106906365,0.054753915
0.084044643,0.071577034,0.106857254,0.054749107
0.084040948,0.071584606,0.106808299,0.054744191
0.084037428,0.071592367,0.106759503,0.054739167
0.084034085,0.071600316,0.106710863,0.054734035
0.084030921,0.071608451,0.106662379,0.054728795
0.084027939,0.07161677,0.106614051,0.054723446
0.08402514,0.071625272,0.10656588,0.054717989
0.084022527,0.071633954,0.106517864,0.054712423
0.084020102,0.071642815,0.106470004,0.054706748
0.084017867,0.071651852,0.106422299,0.054700961
0.084015825,0.071661064,0.10637475,0.054695064
0.084013978,0.071670448,0.106327358,0.054689055
0.084012327,0.071680002,0.106280122,0.054682934
0.084010875,0.071689723,0.106233044,0.054676699
0.084009623,0.07169961,0.106186123,0.054670352
0.084008574,0.07170966,0.10613936,0.054663891
0.084007729,0.071719873,0.106092757,0.054657317
0.084007091,0.071730246,0.106046313,0.054650629
0.084006662,0.071740778,0.106000031,0.054643829
0.084006443,0.071751467,0.105953913,0.054636914
0.084006438,0.071762312,0.105907959,0.054629886
0.084006648,0.07177331,0.105862172,0.054622744
0.084007075,0.07178446,0.105816553,0.054615487
0.08400772,0.071795761,0.105771104,0.054608116
0.084008585,0.07180721,0.105725826,0.05460063
0.084009672,0.071818805,0.105680723,0.05459303
0.084010981,0.071830544,0.105635795,0.054585315
0.084012514,0.071842426,0.105591045,0.054577484
0.084014272,0.071854447,0.105546475,0.054569537
0.084016257,0.071866606,0.105502088,0.054561475
0.084018468,0.071878899,0.105457884,0.054553296
0.084020908,0.071891325,0.105413866,0.054545001
0.084023579,0.071903881,0.105370035,0.054536591
0.084026483,0.071916564,0.105326394,0.054528065
0.08402962,0.071929371,0.105282944,0.054519423
0.084032995,0.0719423,0.105239686,0.054510664
0.084036608,0.071955347,0.105196623,0.054501787
0.084040463,0.07196851,0.105153757,0.054492793
0.084044561,0.071981785,0.105111089,0.054483679
0.084048905,0.071995171,0.105068622,0.054474445
0.084053498,0.072008663,0.105026359,0.054465089
0.084058341,0.072022261,0.104984301,0.054455611
0.084063437,0.072035962,0.10494245,0.054446008
0.084068788,0.072049764,0.104900809,0.054436281
0.084074396,0.072063667,0.104859381,0.054426426
0.084080263,0.072077667,0.104818168,0.054416444
0.084086392,0.072091764,0.104777171,0.054406331
0.084092784,0.072105956,0.104736394,0.054396087
0.084099443,0.072120241,0.104695837,0.05438571
0.08410637,0.072134618,0.104655503,0.054375198
0.084113567,0.072149085,0.104615393,0.05436455
0.084121037,0.072163641,0.10457551,0.054353765
0.084128783,0.072178282,0.104535854,0.05434284
0.084136806,0.072193009,0.104496427,0.054331775
0.084145108,0.072207819,0.104457231,0.054320568
0.084153691,0.07222271,0.104418266,0.054309217
0.084162558,0.072237679,0.104379533,0.054297721
0.084171709,0.072252726,0.104341035,0.054286079
0.084181146,0.072267849,0.10430277,0.054274291
0.084190871,0.072283044,0.10426474,0.054262353
0.084200886,0.072298311,0.104226946,0.054250266
0.084211191,0.072313647,0.104189387,0.054238028
0.084221788,0.072329053,0.104152064,0.054225638
0.084232677,0.072344526,0.104114977,0.054213095
0.084243861,0.072360065,0.104078127,0.054200397
0.08425534,0.072375671,0.104041514,0.054187545
0.084267114,0.072391341,0.104005137,0.054174536
0.084279187,0.072407074,0.103968997,0.054161369
0.084291557,0.07242287,0.103933093,0.054148043
0.084304227,0.072438728,0.103897425,0.054134557
0.084317197,0.072454646,0.103861991,0.054120907
0.084330469,0.072470624,0.103826792,0.054107093
0.084344043,0.072486659,0.103791826,0.054093114
0.084357921,0.072502752,0.103757092,0.054078967
0.084372104,0.072518901,0.103722589,0.054064651
0.084386591,0.072535105,0.103688316,0.054050166
0.084401385,0.072551363,0.103654272,0.054035513
0.084416484,0.072567674,0.103620456,0.054020691
0.084431891,0.072584038,0.103586866,0.0540057
0.084447605,0.072600452,0.103553502,0.053990539
0.084463626,0.072616915,0.103520364,0.05397521
0.084479956,0.072633428,0.103487449,0.053959712
0.084496593,0.072649987,0.103454759,0.053944045
0.084513539,0.072666592,0.103422291,0.053928208
0.084530792,0.072683243,0.103390046,0.053912201
0.084548355,0.072699938,0.103358022,0.053896025
0.084566225,0.072716678,0.103326219,0.053879677
0.084584404,0.072733461,0.103294636,0.053863157
0.084602892,0.072750288,0.103263272,0.053846466
0.084621687,0.072767159,0.103232126,0.053829601
0.08464079,0.072784071,0.103201196,0.053812562
0.0846602,0.072801025,0.103170481,0.053795349
0.084679916,0.07281802,0.103139981,0.053777961
0.084699937,0.072835054,0.103109694,0.053760397
0.084720264,0.072852126,0.10307962,0.053742656
0.084740894,0.072869236,0.103049758,0.053724737
0.084761827,0.072886383,0.103020106,0.053706639
0.084783062,0.072903567,0.102990665,0.053688361
0.084804598,0.072920786,0.102961432,0.053669902
0.084826434,0.07293804,0.102932407,0.053651261
0.084848569,0.072955328,0.102903589,0.053632437
0.084871001,0.072972651,0.102874975,0.053613429
0.084893729,0.072990006,0.102846565,0.053594239
0.084916752,0.073007392,0.102818356,0.053574864
0.084940069,0.07302481,0.102790348,0.053555305
0.084963676,0.073042257,0.102762537,0.053535561
0.084987574,0.073059733,0.102734923,0.053515633
0.085011759,0.073077236,0.102707503,0.053495521
0.085036231,0.073094765,0.102680275,0.053475223
0.085060987,0.073112319,0.102653237,0.05345474
0.085086026,0.073129896,0.102626387,0.053434072
0.085111346,0.073147495,0.102599722,0.05341322
0.085136945,0.073165115,0.10257324,0.053392182
0.08516282,0.073182753,0.102546941,0.053370961
0.08518897,0.073200408,0.10252082,0.053349557
0.085215393,0.073218078,0.102494877,0.05332797
0.085242086,0.073235761,0.10246911,0.0533062
0.085269048,0.073253456,0.102443516,0.053284248
0.085296277,0.073271159,0.102418094,0.053262115
0.085323772,0.07328887,0.102392842,0.053239799
0.085351531,0.073306587,0.102367757,0.053217302
0.085379554,0.073324308,0.10234284,0.053194624
0.085407839,0.073342032,0.102318087,0.053171765
0.085436388,0.073359759,0.102293498,0.053148727
0.085465199,0.073377485,0.102269072,0.053125509
0.085494273,0.073395211,0.102244807,0.053102112
0.085523611,0.073412934,0.102220704,0.053078537
0.085553212,0.073430653,0.10219676,0.053054785
0.085583076,0.073448365,0.102172976,0.053030854
0.085613204,0.07346607,0.102149349,0.053006746
0.085643596,0.073483765,0.102125879,0.052982462
0.085674251,0.073501449,0.102102565,0.052958
0.085705171,0.073519121,0.102079406,0.052933362
0.085736355,0.073536779,0.102056401,0.052908549
0.085767803,0.073554423,0.102033547,0.05288356
0.085799515,0.073572051,0.102010845,0.052858397
0.08583149,0.073589662,0.101988292,0.052833059
0.085863727,0.073607256,0.101965888,0.052807546
0.085896228,0.07362483,0.101943632,0.052781859
0.085928989,0.073642384,0.101921522,0.052755996
0.085962012,0.073659917,0.101899557,0.052729959
0.085995294,0.073677428,0.101877736,0.052703745
0.086028835,0.073694916,0.101856058,0.052677356
0.086062634,0.07371238,0.101834521,0.05265079
0.086096689,0.073729818,0.101813125,0.052624048
0.086130999,0.073747229,0.101791866,0.05259713
0.086165564,0.073764612,0.101770744,0.052570037
0.08620038,0.073781964,0.101749757,0.05254277
0.086235447,0.073799285,0.101728903,0.05251533
0.086270762,0.073816572,0.101708179,0.052487717
0.086306324,0.073833825,0.101687584,0.052459932
0.086342131,0.073851042,0.101667116,0.052431975
0.08637818,0.073868221,0.101646772,0.052403848
0.086414468,0.073885362,0.10162655,0.052375549
0.086450994,0.073902463,0.101606448,0.05234708
0.086487754,0.073919522,0.101586464,0.052318439
0.086524745,0.07393654,0.101566596,0.052289628
0.086561965,0.073953514,0.101546841,0.052260647
0.08659941,0.073970443,0.101527197,0.052231495
0.086637078,0.073987326,0.101507662,0.052202174
0.086674964,0.074004162,0.101488233,0.052172684
0.086713065,0.074020949,0.101468908,0.052143024
0.086751379,0.074037687,0.101449684,0.052113196
0.0867899,0.074054373,0.10143056,0.0520832
0.086828626,0.074071009,0.101411532,0.052053035
0.086867553,0.074087593,0.101392597,0.052022703
0.086906677,0.074104126,0.101373754,0.051992203
0.086945995,0.07412061,0.101354999,0.051961537
0.086985502,0.074137044,0.101336329,0.051930703
0.087025196,0.074153429,0.101317742,0.051899704
0.087065071,0.074169765,0.101299233,0.051868538
0.087105124,0.074186052,0.101280801,0.051837205
0.087145351,0.074202291,0.101262442,0.051805706
0.087185747,0.074218481,0.101244153,0.051774041
0.087226308,0.074234622,0.101225929,0.051742209
0.087267031,0.074250714,0.101207769,0.051710212
0.08730791,0.074266756,0.101189669,0.051678049
0.087348943,0.07428275,0.101171625,0.051645721
0.087390125,0.074298695,0.101153633,0.051613228
0.087431451,0.074314591,0.101135692,0.05158057
0.087472918,0.074330439,0.101117796,0.051547749
0.08751452,0.074346239,0.101099944,0.051514765
0.087556253,0.074361992,0.101082131,0.051481619
0.087598113,0.074377698,0.101064355,0.051448312
0.087640096,0.074393357,0.101046611,0.051414845
0.087682197,0.07440897,0.101028898,0.051381219
0.087724412,0.074424535,0.101011211,0.051347435
0.087766738,0.074440054,0.100993547,0.051313493
0.08780917,0.074455525,0.100975904,0.051279396
0.087851704,0.074470948,0.100958277,0.051245143
0.087894338,0.074486322,0.100940664,0.051210737
0.087937067,0.074501646,0.100923062,0.051176179
0.087979889,0.07451692,0.100905466,0.051141471
0.088022799,0.074532142,0.100887874,0.051106614
0.088065794,0.074547312,0.100870283,0.05107161
0.088108871,0.074562428,0.100852688,0.051036461
0.088152026,0.074577489,0.100835087,0.051001167
0.088195255,0.074592495,0.100817477,0.050965731
0.088238557,0.074607445,0.100799854,0.050930153
0.088281927,0.074622339,0.100782217,0.050894435
0.088325361,0.074637177,0.100764564,0.050858577
0.088368858,0.074651959,0.100746891,0.050822582
0.088412412,0.074666685,0.100729197,0.050786449
0.08845602,0.074681355,0.10071148,0.050750181
0.088499679,0.074695968,0.100693736,0.050713778
0.088543385,0.074710525,0.100675965,0.050677241
0.088587134,0.074725023,0.100658163,0.050640571
0.088630922,0.074739464,0.100640327,0.050603769
0.088674745,0.074753845,0.100622456,0.050566836
0.088718599,0.074768165,0.100604547,0.050529773
0.088762481,0.074782425,0.100586596,0.050492582
0.088806385,0.074796622,0.100568603,0.050455264
0.08885031,0.074810756,0.100550565,0.050417819
0.08889425,0.074824826,0.10053248,0.05038025
0.088938202,0.074838831,0.100514346,0.050342556
0.088982165,0.074852769,0.100496162,0.050304739
0.089026133,0.074866638,0.100477927,0.050266799
0.089070105,0.074880439,0.100459637,0.050228738
0.089114077,0.074894168,0.100441292,0.050190556
0.089158047,0.074907826,0.100422889,0.050152253
0.089202013,0.074921409,0.100404427,0.050113831
0.089245972,0.074934918,0.100385905,0.05007529
0.089289922,0.074948351,0.100367322,0.050036631
0.08933386,0.074961706,0.100348677,0.049997855
0.089377783,0.074974982,0.100329969,0.049958962
0.089421691,0.074988179,0.100311198,0.049919955
0.08946558,0.075001294,0.100292363,0.049880833
0.089509449,0.075014326,0.100273466,0.049841597
0.089553298,0.075027273,0.100254506,0.049802249
0.089597123,0.075040135,0.100235486,0.049762788
0.089640924,0.07505291,0.100216406,0.049723215
0.089684701,0.075065596,0.100197268,0.04968353
0.089728451,0.075078193,0.100178075,0.049643734
0.089772174,0.075090699,0.100158829,0.049603826
0.089815869,0.075103113,0.100139533,0.049563807
0.089859535,0.075115434,0.100120189,0.049523676
0.089903171,0.07512766,0.100100801,0.049483434
0.089946776,0.075139789,0.100081371,0.049443081
0.089990349,0.075151821,0.100061904,0.049402618
0.090033888,0.075163754,0.100042401,0.049362046
0.090077393,0.075175587,0.100022865,0.049321364
0.090120862,0.075187319,0.1000033,0.049280575
0.090164293,0.075198949,0.099983707,0.04923968
0.090207686,0.075210477,0.09996409,0.049198681
0.090251038,0.075221901,0.099944451,0.049157578
0.090294348,0.07523322,0.099924792,0.049116373
0.090337615,0.075244434,0.099905116,0.049075067
0.090380837,0.075255541,0.099885425,0.049033662
0.090424013,0.07526654,0.099865722,0.048992158
0.090467139,0.075277429,0.099846009,0.048950558
0.090510215,0.075288208,0.099826289,0.048908861
0.090553239,0.075298876,0.099806563,0.048867071
0.090596209,0.075309431,0.099786834,0.048825189
0.090639123,0.075319875,0.099767103,0.048783217
0.090681979,0.075330205,0.099747374,0.048741156
0.090724774,0.075340422,0.099727647,0.048699007
0.090767508,0.075350526,0.099707925,0.048656773
0.090810176,0.075360516,0.099688208,0.048614453
0.090852778,0.075370393,0.0996685,0.04857205
0.09089531,0.075380156,0.099648799,0.048529566
0.090937769,0.075389806,0.099629109,0.048487001
0.090980153,0.075399342,0.09960943,0.048444358
0.091022459,0.075408764,0.099589763,0.048401638
0.091064684,0.075418072,0.09957011,0.048358843
0.091106825,0.075427264,0.09955047,0.048315973
0.091148879,0.075436341,0.099530846,0.048273032
0.091190843,0.075445302,0.099511239,0.048230019
0.091232715,0.075454147,0.099491647,0.048186936
0.091274491,0.075462874,0.099472073,0.048143785
0.091316169,0.075471483,0.099452517,0.048100565
0.091357746,0.075479974,0.099432979,0.048057279
0.091399219,0.075488346,0.09941346,0.048013928
0.091440587,0.075496597,0.099393958,0.047970513
0.091481849,0.075504728,0.099374476,0.047927035
0.091523002,0.075512737,0.099355013,0.047883496
0.091564045,0.075520624,0.099335571,0.047839898
0.091604978,0.075528389,0.09931615,0.047796242
0.0916458,0.075536031,0.09929675,0.047752528
0.091686509,0.075543549,0.099277374,0.047708758
0.091727105,0.075550943,0.099258022,0.047664933
0.091767587,0.075558212,0.099238697,0.047621052
0.091807956,0.075565356,0.099219398,0.047577118
0.091848209,0.075572374,0.09920013,0.047533131
0.091888346,0.075579266,0.099180892,0.04748909
0.091928366,0.075586032,0.099161688,0.047444999
0.091968269,0.075592669,0.099142519,0.047400857
0.092008053,0.075599179,0.099123387,0.047356666
0.092047718,0.075605559,0.099104293,0.047312428
0.092087262,0.07561181,0.09908524,0.047268144
0.092126687,0.075617929,0.099066228,0.047223816
0.092165993,0.075623916,0.099047259,0.047179444
0.092205179,0.07562977,0.099028334,0.047135031
0.092244246,0.07563549,0.099009456,0.047090577
0.092283197,0.075641074,0.098990626,0.047046084
0.09232203,0.075646522,0.098971848,0.047001553
0.092360748,0.075651832,0.098953122,0.046956985
0.09239935,0.075657004,0.098934451,0.046912381
0.092437838,0.075662036,0.098915838,0.046867742
0.092476212,0.075666928,0.098897284,0.046823069
0.092514473,0.07567168,0.098878793,0.046778363
0.092552622,0.07567629,0.098860364,0.046733624
0.092590659,0.075680757,0.098842002,0.046688853
0.092628585,0.075685081,0.098823707,0.046644051
0.0926664,0.075689259,0.098805482,0.046599219
0.092704106,0.07569329,0.098787328,0.046554358
0.092741702,0.075697174,0.098769246,0.046509469
0.092779189,0.075700909,0.09875124,0.046464554
0.092816566,0.075704493,0.098733308,0.046419611
0.092853833,0.075707926,0.098715455,0.046374643
0.092890991,0.075711206,0.098697679,0.046329649
0.092928039,0.075714332,0.098679984,0.046284631
0.092964978,0.075717303,0.098662371,0.046239588
0.093001807,0.07572012,0.09864484,0.046194522
0.093038525,0.075722781,0.098627394,0.046149433
0.093075133,0.075725286,0.098610032,0.046104322
0.093111629,0.075727635,0.098592758,0.046059189
0.093148014,0.075729826,0.09857557,0.046014036
0.093184286,0.07573186,0.098558471,0.045968864
0.093220446,0.075733736,0.098541462,0.045923674
0.093256493,0.075735452,0.098524545,0.045878465
0.093292427,0.075737008,0.098507721,0.045833241
0.09332825,0.075738403,0.098490993,0.045788002
0.093363962,0.075739635,0.098474363,0.045742747
0.093399564,0.075740705,0.098457835,0.04569748
0.093435057,0.07574161,0.098441411,0.045652199
0.093470443,0.075742351,0.098425096,0.045606906
0.093505723,0.075742926,0.098408894,0.0455616
0.093540899,0.075743334,0.098392808,0.045516282
0.09357597,0.075743573,0.098376842,0.045470952
0.093610939,0.075743644,0.098361001,0.045425611
0.093645806,0.075743544,0.09834529,0.045380259
0.093680571,0.075743273,0.098329711,0.045334896
0.093715235,0.07574283,0.098314271,0.045289523
0.093749797,0.075742213,0.098298971,0.045244139
0.093784259,0.075741421,0.098283818,0.045198745
0.093818619,0.075740453,0.098268814,0.04515334
0.093852879,0.075739308,0.098253964,0.045107924
0.093887038,0.075737984,0.098239274,0.045062496
0.093921096,0.07573648,0.098224747,0.045017056
0.093955054,0.075734794,0.098210387,0.044971604
0.093988911,0.075732925,0.0981962,0.044926141
0.094022667,0.075730871,0.098182188,0.044880668
0.094056324,0.075728631,0.098168357,0.044835185
0.09408988,0.075726204,0.098154709,0.044789694
0.094123337,0.075723589,0.098141249,0.044744197
0.094156695,0.075720785,0.098127981,0.044698695
0.094189954,0.07571779,0.098114907,0.044653189
0.094223115,0.075714604,0.098102032,0.04460768
0.094256179,0.075711224,0.09808936,0.044562171
0.094289145,0.07570765,0.098076893,0.044516662
0.094322015,0.075703881,0.098064635,0.044471154
0.094354788,0.075699914,0.098052588,0.04442565
0.094387465,0.075695749,0.098040756,0.044380148
0.094420047,0.075691384,0.098029142,0.044334651
0.094452532,0.075686818,0.098017748,0.044289157
0.094484923,0.075682049,0.098006578,0.044243669
0.094517217,0.075677076,0.097995634,0.044198184
0.094549416,0.075671898,0.097984919,0.044152706
0.09458152,0.075666512,0.097974435,0.044107232
0.094613527,0.075660917,0.097964183,0.044061766
0.094645438,0.075655111,0.097954166,0.044016306
0.094677252,0.075649094,0.097944384,0.043970854
0.094708968,0.075642862,0.09793484,0.043925411
0.094740587,0.075636415,0.097925533,0.043879977
0.094772107,0.07562975,0.097916466,0.043834555
0.094803529,0.075622867,0.097907638,0.043789143
0.094834851,0.075615763,0.09789905,0.043743745
0.094866072,0.075608438,0.097890703,0.04369836
0.094897191,0.075600889,0.097882597,0.04365299
0.094928208,0.075593116,0.097874731,0.043607635
0.094959121,0.075585116,0.097867108,0.043562296
0.094989929,0.07557689,0.097859725,0.043516975
0.09502063,0.075568435,0.097852584,0.043471672
0.095051225,0.075559751,0.097845684,0.04342639
0.095081712,0.075550837,0.097839026,0.043381129
0.095112089,0.075541692,0.097832611,0.043335891
0.095142357,0.075532315,0.097826439,0.043290677
0.095172513,0.075522704,0.097820511,0.043245488
0.095202558,0.075512859,0.097814828,0.043200325
0.095232489,0.075502779,0.097809391,0.043155189
0.095262307,0.075492461,0.097804199,0.043110081
0.09529201,0.075481904,0.097799256,0.043065
0.095321598,0.075471108,0.097794561,0.043019949
0.09535107,0.075460071,0.097790116,0.042974926
0.095380425,0.075448793,0.097785922,0.042929934
0.095409662,0.075437274,0.097781981,0.042884971
0.095438781,0.075425515,0.097778292,0.04284004
0.095467781,0.075413514,0.097774857,0.04279514
0.095496661,0.075401272,0.097771677,0.042750273
0.095525419,0.075388791,0.097768754,0.04270544
0.095554055,0.075376069,0.097766088,0.042660642
0.095582568,0.075363108,0.097763681,0.042615879
0.095610958,0.075349909,0.097761534,0.04257115
0.095639223,0.075336472,0.097759647,0.042526458
0.095667362,0.075322798,0.097758021,0.042481802
0.095695375,0.075308887,0.097756657,0.042437182
0.095723261,0.075294742,0.097755554,0.042392599
0.095751019,0.075280363,0.097754715,0.042348055
0.095778648,0.075265751,0.09775414,0.04230355
0.095806149,0.075250907,0.097753828,0.042259085
0.095833519,0.075235832,0.097753782,0.042214663
0.095860758,0.075220528,0.097754002,0.042170283
0.095887866,0.075204995,0.097754488,0.042125949
0.095914842,0.075189235,0.09775524,0.04208166
0.095941685,0.075173248,0.09775626,0.042037418
0.095968394,0.075157035,0.097757546,0.041993224
0.09599497,0.075140598,0.097759099,0.041949079
0.09602141,0.075123936,0.097760919,0.041904984
0.096047715,0.075107051,0.097763004,0.041860938
0.096073883,0.075089945,0.097765355,0.041816943
0.096099913,0.07507262,0.09776797,0.041772999
0.096125803,0.075055075,0.097770848,0.041729107
0.096151553,0.075037313,0.09777399,0.041685267
0.09617716,0.075019335,0.097777392,0.041641482
0.096202622,0.075001142,0.097781055,0.041597753
0.096227939,0.074982735,0.097784976,0.041554082
0.096253107,0.074964115,0.097789155,0.041510472
0.096278126,0.074945283,0.097793591,0.041466923
0.096302992,0.07492624,0.097798281,0.04142344
0.096327704,0.074906987,0.097803224,0.041380022
0.096352259,0.074887523,0.09780842,0.041336671
0.096376655,0.07486785,0.097813865,0.041293389
0.096400889,0.074847968,0.09781956,0.041250176
0.096424961,0.074827878,0.097825502,0.041207034
0.096448866,0.074807579,0.097831689,0.041163962
0.096472604,0.074787073,0.097838122,0.041120962
0.096496171,0.074766359,0.097844797,0.041078033
0.096519566,0.074745438,0.097851713,0.041035175
0.096542785,0.07472431,0.097858868,0.040992389
0.096565826,0.074702975,0.097866261,0.040949674
0.096588686,0.074681433,0.097873889,0.040907031
0.096611363,0.074659683,0.09788175,0.040864459
0.096633854,0.074637727,0.097889844,0.040821959
0.096656156,0.074615563,0.097898167,0.04077953
0.096678266,0.074593193,0.097906719,0.040737173
0.096700181,0.074570616,0.097915498,0.040694886
0.096721898,0.074547834,0.097924503,0.04065267
0.096743415,0.074524845,0.09793373,0.040610525
0.096764728,0.074501652,0.097943179,0.040568451
0.096785835,0.074478254,0.097952847,0.040526447
0.096806733,0.074454652,0.097962732,0.040484515
0.096827418,0.074430846,0.097972832,0.040442653
0.096847887,0.074406837,0.097983144,0.040400861
0.096868138,0.074382626,0.097993666,0.04035914
0.096888167,0.074358213,0.098004396,0.04031749
0.096907972,0.074333599,0.098015333,0.04027591
0.096927549,0.074308783,0.098026473,0.0402344
0.096946895,0.074283767,0.098037815,0.04019296
0.096966008,0.07425855,0.098049356,0.04015159
0.096984884,0.074233133,0.098061094,0.040110291
0.097003521,0.074207517,0.098073026,0.04006906
0.097021917,0.074181701,0.09808515,0.040027899
0.097040067,0.074155687,0.098097463,0.039986806
0.097057969,0.074129475,0.098109961,0.039945782
0.097075621,0.074103066,0.098122643,0.039904825
0.097093019,0.074076461,0.098135506,0.039863935
0.097110161,0.074049661,0.098148549,0.039823112
0.097127046,0.074022668,0.09816177,0.039782355
0.097143669,0.073995482,0.098175168,0.039741664
0.09716003,0.073968105,0.098188742,0.039701039
0.097176126,0.073940537,0.098202491,0.03966048
0.097191956,0.073912781,0.098216414,0.039619985
0.097207519,0.073884836,0.098230513,0.039579556
0.097222814,0.073856704,0.098244788,0.039539191
0.09723784,0.073828386,0.098259239,0.03949889
0.097252597,0.073799883,0.098273867,0.039458652
0.097267083,0.073771197,0.098288674,0.039418479
0.097281297,0.07374233,0.09830366,0.039378369
0.097295239,0.073713281,0.098318826,0.039338323
0.097308908,0.073684053,0.098334172,0.03929834
0.097322302,0.073654647,0.098349698,0.039258422
0.09733542,0.073625064,0.098365405,0.039218566
0.097348262,0.073595307,0.098381293,0.039178774
0.097360826,0.073565377,0.098397362,0.039139045
0.097373112,0.073535276,0.098413612,0.039099378
0.097385118,0.073505006,0.098430042,0.039059775
0.097396845,0.07347457,0.098446654,0.039020234
0.09740829,0.07344397,0.098463447,0.038980757
0.097419453,0.073413208,0.098480422,0.038941344
0.097430332,0.073382286,0.09849758,0.038901996
0.097440927,0.073351206,0.09851492,0.038862714
0.097451237,0.07331997,0.098532444,0.038823498
0.097461261,0.07328858,0.09855015,0.038784351
0.097470997,0.073257038,0.098568041,0.038745271
0.097480444,0.073225346,0.098586115,0.038706261
0.097489602,0.073193506,0.098604374,0.038667321
0.09749847,0.073161519,0.098622817,0.038628452
0.097507046,0.073129388,0.098641444,0.038589655
0.097515331,0.073097114,0.098660256,0.038550929
0.097523324,0.073064697,0.098679251,0.038512275
0.097531023,0.073032139,0.098698431,0.038473694
0.097538428,0.072999441,0.098717793,0.038435186
0.09754554,0.072966604,0.098737339,0.038396753
0.097552356,0.072933628,0.098757067,0.038358395
0.097558877,0.072900514,0.098776978,0.038320114
0.097565101,0.072867262,0.098797071,0.038281911
0.097571028,0.072833874,0.098817345,0.038243789
0.097576657,0.072800349,0.098837801,0.038205749
0.097581988,0.072766688,0.098858436,0.038167791
0.097587019,0.07273289,0.098879251,0.038129917
0.09759175,0.072698958,0.098900245,0.038092127
0.09759618,0.07266489,0.098921416,0.038054423
0.097600308,0.072630687,0.098942764,0.038016805
0.097604133,0.072596351,0.098964286,0.037979275
0.097607655,0.07256188,0.098985982,0.037941832
0.097610872,0.072527275,0.099007851,0.037904479
0.097613784,0.072492537,0.099029889,0.037867217
0.097616389,0.072457666,0.099052096,0.037830047
0.097618688,0.072422662,0.09907447,0.03779297
0.097620678,0.072387527,0.099097009,0.037755987
0.09762236,0.072352261,0.099119713,0.0377191
0.097623733,0.072316865,0.099142578,0.037682309
0.097624795,0.072281339,0.099165604,0.037645615
0.097625546,0.072245685,0.099188788,0.037609018
0.097625984,0.072209902,0.099212129,0.037572519
0.097626109,0.072173992,0.099235624,0.037536119
0.097625919,0.072137954,0.099259273,0.037499817
0.097625413,0.07210179,0.099283071,0.037463615
0.09762459,0.072065498,0.099307017,0.037427512
0.097623449,0.072029079,0.09933111,0.037391509
0.097621988,0.071992533,0.099355346,0.037355607
0.097620206,0.07195586,0.099379723,0.037319804
0.097618102,0.071919059,0.099404241,0.037284102
0.097615674,0.07188213,0.099428897,0.037248499
0.097612922,0.071845073,0.099453688,0.037212996
0.097609844,0.071807888,0.099478614,0.037177591
0.097606439,0.071770574,0.099503673,0.037142285
0.097602704,0.071733131,0.099528862,0.037107076
0.097598639,0.071695558,0.099554179,0.037071965
0.097594242,0.071657855,0.099579624,0.037036949
0.097589513,0.071620021,0.099605193,0.03700203
0.097584451,0.071582055,0.099630885,0.036967206
0.097579053,0.071543958,0.099656699,0.036932477
0.097573321,0.071505729,0.099682631,0.036897843
0.097567252,0.071467367,0.099708681,0.036863304
0.097560847,0.071428872,0.099734846,0.036828858
0.097554104,0.071390243,0.099761124,0.036794506
0.097547023,0.071351481,0.099787513,0.036760247
0.097539602,0.071312586,0.099814012,0.036726082
0.09753184,0.071273557,0.099840617,0.036692009
0.097523737,0.071234395,0.099867328,0.036658029
0.09751529,0.071195102,0.099894141,0.036624141
0.097506499,0.071155677,0.099921057,0.036590344
0.097497362,0.071116122,0.099948072,0.036556639
0.097487879,0.071076439,0.099975184,0.036523025
0.097478049,0.071036627,0.100002393,0.036489504
0.09746787,0.070996688,0.100029696,0.036456074
0.097457341,0.070956621,0.100057093,0.036422737
0.097446462,0.070916428,0.100084581,0.036389491
0.097435232,0.070876109,0.100112161,0.036356338
0.097423651,0.070835663,0.100139831,0.036323277
0.097411716,0.070795092,0.10016759,0.036290307
0.097399427,0.070754395,0.100195435,0.036257429
0.097386784,0.070713573,0.100223366,0.036224642
0.097373786,0.070672627,0.100251382,0.036191946
0.097360433,0.070631557,0.10027948,0.03615934
0.097346723,0.070590363,0.100307659,0.036126825
0.097332656,0.070549046,0.100335917,0.036094399
0.097318232,0.070507606,0.100364253,0.036062062
0.097303451,0.070466043,0.100392665,0.036029813
0.097288312,0.070424357,0.10042115,0.035997654
0.097272815,0.07038255,0.100449706,0.035965584
0.09725696,0.070340621,0.100478331,0.035933603
0.097240745,0.07029857,0.100507024,0.035901714
0.097224172,0.070256399,0.10053578,0.035869914
0.097207239,0.070214107,0.100564599,0.035838206
0.097189946,0.070171694,0.100593476,0.035806588
0.097172292,0.070129162,0.10062241,0.035775061
0.097154278,0.07008651,0.100651398,0.035743624
0.097135902,0.070043739,0.100680436,0.035712277
0.097117165,0.07000085,0.100709521,0.035681019
0.097098066,0.069957843,0.100738651,0.03564985
0.097078606,0.069914719,0.100767822,0.035618771
0.097058784,0.069871477,0.10079703,0.03558778
0.097038601,0.069828118,0.100826274,0.03555688
0.097018057,0.069784642,0.100855551,0.035526069
0.096997153,0.069741048,0.100884856,0.035495348
0.096975889,0.069697338,0.100914189,0.035464717
0.096954266,0.069653512,0.100943544,0.035434177
0.096932283,0.069609571,0.10097292,0.035403728
0.096909942,0.069565515,0.101002313,0.035373371
0.096887243,0.069521347,0.101031719,0.035343106
0.096864185,0.069477066,0.101061137,0.035312934
0.09684077,0.069432676,0.101090561,0.035282855
0.096816998,0.069388175,0.10111999,0.035252869
0.096792869,0.069343567,0.10114942,0.035222976
0.096768384,0.069298854,0.101178848,0.035193177
0.096743544,0.069254036,0.10120827,0.035163471
0.096718348,0.069209118,0.101237683,0.035133858
0.096692799,0.069164102,0.101267084,0.035104338
0.096666897,0.069118991,0.101296469,0.035074911
0.096640644,0.069073786,0.101325835,0.035045576
0.096614041,0.069028491,0.10135518,0.035016334
0.096587091,0.068983107,0.1013845,0.034987183
0.096559795,0.068937639,0.101413791,0.034958125
0.096532154,0.068892087,0.101443051,0.034929158
0.096504171,0.068846455,0.101472277,0.034900282
0.096475848,0.068800747,0.101501465,0.034871498
0.096447186,0.068754965,0.101530612,0.034842805
0.096418188,0.068709114,0.101559715,0.034814204
0.096388854,0.068663196,0.101588771,0.034785696
0.096359187,0.068617215,0.101617777,0.034757281
0.096329188,0.068571175,0.10164673,0.034728962
0.096298858,0.068525078,0.101675629,0.034700738
0.096268199,0.068478928,0.101704469,0.034672611
0.096237213,0.068432729,0.101733247,0.034644581
0.0962059,0.068386482,0.101761963,0.03461665
0.096174264,0.068340192,0.101790611,0.034588817
0.096142305,0.06829386,0.10181919,0.034561084
0.096110025,0.068247491,0.101847696,0.034533451
0.096077425,0.068201087,0.101876127,0.034505917
0.096044506,0.06815465,0.101904479,0.034478485
0.096011272,0.068108184,0.10193275,0.034451153
0.095977722,0.068061691,0.101960935,0.034423924
0.095943858,0.068015173,0.101989033,0.034396797
0.095909683,0.067968634,0.102017039,0.034369772
0.095875199,0.067922076,0.102044951,0.034342851
0.095840406,0.067875502,0.102072765,0.034316035
0.095805307,0.067828912,0.102100477,0.034289322
0.095769903,0.067782311,0.102128086,0.034262715
0.095734196,0.067735699,0.102155588,0.034236212
0.095698188,0.067689079,0.102182979,0.034209815
0.095661879,0.067642453,0.102210256,0.034183523
0.095625271,0.067595823,0.102237415,0.034157338
0.095588366,0.067549192,0.102264454,0.034131259
0.095551164,0.067502561,0.102291369,0.034105288
0.095513667,0.06745593,0.102318157,0.034079424
0.095475875,0.067409303,0.102344816,0.034053668
0.095437791,0.067362681,0.102371341,0.03402802
0.095399415,0.067316065,0.102397731,0.03400248
0.095360748,0.067269456,0.102423983,0.03397705
0.095321793,0.067222857,0.102450094,0.033951728
0.09528255,0.067176267,0.102476062,0.033926516
0.095243022,0.06712969,0.102501882,0.033901415
0.095203212,0.067083126,0.102527552,0.033876424
0.09516312,0.067036576,0.10255307,0.033851544
0.095122751,0.066990044,0.102578432,0.033826775
0.095082106,0.066943531,0.102603635,0.03380212
0.09504119,0.066897039,0.102628678,0.033777579
0.095000005,0.066850569,0.102653557,0.033753154
0.094958555,0.066804124,0.102678271,0.033728846
0.094916842,0.066757704,0.102702816,0.033704657
0.094874871,0.066711312,0.10272719,0.033680589
0.094832645,0.066664948,0.102751392,0.033656645
0.094790166,0.066618616,0.102775419,0.033632827
0.094747439,0.066572316,0.102799268,0.033609138
0.094704466,0.066526051,0.102822939,0.033585581
0.09466125,0.066479823,0.102846428,0.033562159
0.094617794,0.066433632,0.102869734,0.033538877
0.0945741,0.066387482,0.102892853,0.033515738
0.094530172,0.066341374,0.102915785,0.033492745
0.094486011,0.066295308,0.102938527,0.033469901
0.09444162,0.066249287,0.102961077,0.033447211
0.094397002,0.066203312,0.102983434,0.033424679
0.094352157,0.066157383,0.103005594,0.033402306
0.094307089,0.066111503,0.103027557,0.033380097
0.094261799,0.066065671,0.103049319,0.033358056
0.09421629,0.066019888,0.103070879,0.033336184
0.094170563,0.065974156,0.103092234,0.033314486
0.094124619,0.065928476,0.103113381,0.033292963
0.09407846,0.065882848,0.103134318,0.033271621
0.094032088,0.065837273,0.103155042,0.03325046
0.093985504,0.065791752,0.10317555,0.033229485
0.093938709,0.065746286,0.103195839,0.033208698
0.093891704,0.065700876,0.103215907,0.033188103
0.093844491,0.065655523,0.103235752,0.033167703
0.09379707,0.065610229,0.10325537,0.033147501
0.093749443,0.065564994,0.103274761,0.033127501
0.09370161,0.065519821,0.10329392,0.033107705
0.093653572,0.06547471,0.103312847,0.033088116
0.093605331,0.065429663,0.103331538,0.033068738
0.093556888,0.06538468,0.103349991,0.033049573
0.093508243,0.065339763,0.103368204,0.033030624
0.093459399,0.065294914,0.103386173,0.033011893
0.093410356,0.065250135,0.103403898,0.032993382
0.093361116,0.065205428,0.103421374,0.032975094
0.09331168,0.065160796,0.103438599,0.032957031
0.093262052,0.065116241,0.103455571,0.032939193
0.093212231,0.065071766,0.103472286,0.032921584
0.093162221,0.065027373,0.103488743,0.032904205
0.093112023,0.064983066,0.103504939,0.032887058
0.093061639,0.064938847,0.103520871,0.032870144
0.093011072,0.064894718,0.103536536,0.032853467
0.092960322,0.064850682,0.103551931,0.032837027
0.092909394,0.064806742,0.103567054,0.032820826
0.092858289,0.0647629,0.103581901,0.032804867
0.092807009,0.064719157,0.10359647,0.032789149
0.092755555,0.064675517,0.103610757,0.032773676
0.092703932,0.064631982,0.10362476,0.032758449
0.092652139,0.064588553,0.103638475,0.032743468
0.092600179,0.064545232,0.1036519,0.032728736
0.092548055,0.064502023,0.103665031,0.032714252
0.092495768,0.064458927,0.103677865,0.03270002
0.09244332,0.064415946,0.103690399,0.032686039
0.092390712,0.064373083,0.103702629,0.032672312
0.092337946,0.06433034,0.103714552,0.03265884
0.092285024,0.064287719,0.103726165,0.032645626
0.092231947,0.064245221,0.103737466,0.03263267
0.092178716,0.06420285,0.103748452,0.032619975
0.092125334,0.064160606,0.103759121,0.032607542
0.092071802,0.064118492,0.103769469,0.032595374
0.092018122,0.064076508,0.103779496,0.032583472
0.091964294,0.064034658,0.1037892,0.032571838
0.091910321,0.063992942,0.103798577,0.032560474
0.091856204,0.063951362,0.103807628,0.03254938
0.091801946,0.063909919,0.103816349,0.032538559
0.091747547,0.063868614,0.10382474,0.032528011
0.091693009,0.063827449,0.103832798,0.032517738
0.091638335,0.063786423,0.103840523,0.03250774
0.091583524,0.063745538,0.103847913,0.03249802
0.09152858,0.063704795,0.103854967,0.032488578
0.091473504,0.063664193,0.103861685,0.032479416
0.091418296,0.063623733,0.103868065,0.032470536
0.091362959,0.063583416,0.103874107,0.03246194
0.091307493,0.063543244,0.103879809,0.032453629
0.091251901,0.063503218,0.103885171,0.032445605
0.091196184,0.063463338,0.103890191,0.032437869
0.091140344,0.063423606,0.103894869,0.032430422
0.091084384,0.063384023,0.103899202,0.032423264
0.091028305,0.06334459,0.10390319,0.032416396
0.090972109,0.063305307,0.103906832,0.032409819
0.090915799,0.063266176,0.103910127,0.032403533
0.090859378,0.063227198,0.103913073,0.032397538
0.090802847,0.063188374,0.103915668,0.032391836
0.09074621,0.063149703,0.103917912,0.032386425
0.090689469,0.063111189,0.103919804,0.032381307
0.090632627,0.063072831,0.103921342,0.032376482
0.090575687,0.063034631,0.103922526,0.03237195
0.090518651,0.06299659,0.103923355,0.032367712
0.090461522,0.062958709,0.10392383,0.032363768
0.090404304,0.06292099,0.103923949,0.03236012
0.090346998,0.062883432,0.103923712,0.032356766
0.090289607,0.062846037,0.103923121,0.032353708
0.090232134,0.062808805,0.103922173,0.032350944
0.090174581,0.062771737,0.103920869,0.032348476
0.090116949,0.062734832,0.103919209,0.032346301
0.090059242,0.062698092,0.103917191,0.032344423
0.090001462,0.062661515,0.103914817,0.03234284
0.089943609,0.062625103,0.103912085,0.032341554
0.089885686,0.062588855,0.103908995,0.032340567
0.089827695,0.062552771,0.103905547,0.032339879
0.089769637,0.062516852,0.10390174,0.032339492
0.089711513,0.062481097,0.103897574,0.032339406
0.089653326,0.062445506,0.103893048,0.032339623
0.089595076,0.062410079,0.103888161,0.032340143
0.089536765,0.062374817,0.103882913,0.032340969
0.089478395,0.06233972,0.103877303,0.0323421
0.089419966,0.062304789,0.103871332,0.032343538
0.089361481,0.062270025,0.103865,0.032345283
0.089302941,0.062235429,0.103858306,0.032347338
0.089244348,0.062201002,0.103851251,0.032349703
0.089185703,0.062166743,0.103843837,0.032352379
0.089127009,0.062132653,0.103836063,0.032355368
0.089068267,0.062098734,0.10382793,0.03235867
0.089009478,0.062064984,0.103819439,0.032362287
0.088950645,0.062031404,0.103810592,0.03236622
0.088891768,0.061997993,0.10380139,0.032370469
0.088832849,0.061964753,0.103791832,0.032375033
0.08877389,0.061931683,0.103781921,0.032379915
0.088714891,0.061898782,0.103771658,0.032385114
0.088655854,0.061866051,0.103761044,0.03239063
0.088596781,0.061833491,0.10375008,0.032396465
0.088537671,0.061801101,0.103738767,0.03240262
0.088478527,0.061768882,0.103727105,0.032409095
0.08841935,0.061736835,0.103715096,0.032415892
0.08836014,0.06170496,0.103702741,0.032423011
0.088300898,0.061673257,0.103690041,0.032430453
0.088241626,0.061641726,0.103676995,0.032438219
0.088182324,0.061610369,0.103663606,0.032446309
0.088122992,0.061579184,0.103649874,0.032454722
0.088063633,0.061548172,0.103635799,0.032463459
0.088004247,0.061517333,0.103621381,0.032472521
0.087944835,0.061486668,0.103606622,0.032481908
0.087885398,0.061456176,0.103591521,0.03249162
0.087825937,0.061425859,0.10357608,0.032501658
0.087766452,0.061395717,0.103560298,0.032512022
0.087706945,0.061365749,0.103544177,0.032522713
0.087647416,0.061335957,0.103527717,0.03253373
0.087587865,0.061306341,0.103510917,0.032545075
0.087528294,0.061276901,0.103493779,0.032556746
0.087468702,0.061247638,0.103476303,0.032568744
0.087409089,0.061218551,0.10345849,0.032581069
0.087349457,0.061189642,0.103440338,0.032593723
0.087289804,0.061160911,0.10342185,0.032606706
0.087230131,0.061132358,0.103403025,0.032620017
0.087170438,0.061103985,0.103383864,0.032633658
0.087110724,0.061075791,0.103364366,0.032647629
0.08705099,0.061047778,0.103344532,0.032661929
0.086991236,0.061019945,0.103324362,0.032676559
0.086931461,0.060992296,0.103303855,0.03269152
0.086871666,0.060964829,0.103283013,0.032706811
0.086811849,0.060937547,0.103261835,0.032722431
0.08675201,0.06091045,0.103240321,0.032738381
0.086692149,0.060883539,0.103218472,0.03275466
0.086632265,0.060856816,0.103196288,0.032771267
0.086572358,0.06083028,0.103173769,0.032788202
0.086512427,0.060803933,0.103150915,0.032805464
0.086452471,0.060777777,0.103127728,0.032823052
0.086392491,0.06075181,0.103104207,0.032840965
0.086332486,0.060726036,0.103080354,0.032859203
0.086272455,0.060700455,0.103056167,0.032877764
0.086212399,0.060675068,0.103031649,0.032896647
0.086152316,0.060649876,0.103006799,0.032915851
0.086092207,0.060624881,0.102981619,0.032935374
0.086032072,0.060600084,0.102956109,0.032955217
0.085971911,0.060575486,0.10293027,0.032975377
0.085911722,0.060551091,0.102904105,0.032995854
0.085851507,0.060526898,0.102877613,0.033016646
0.085791264,0.06050291,0.102850797,0.033037752
0.085730995,0.06047913,0.102823657,0.033059172
0.085670697,0.060455559,0.102796196,0.033080903
0.085610373,0.060432199,0.102768414,0.033102944
0.085550021,0.060409053,0.102740312,0.033125293
0.085489643,0.060386123,0.102711893,0.033147948
0.085429238,0.060363409,0.102683157,0.033170908
0.085368808,0.060340915,0.102654107,0.033194169
0.085308353,0.060318641,0.102624745,0.03321773
0.085247874,0.060296591,0.102595072,0.033241588
0.085187371,0.060274765,0.102565091,0.033265742
0.085126846,0.060253167,0.102534804,0.033290191
0.085066299,0.060231796,0.102504213,0.033314933
0.085005731,0.060210657,0.10247332,0.033339967
0.084945144,0.06018975,0.102442128,0.033365292
0.084884538,0.060169077,0.10241064,0.033390907
0.084823914,0.060148639,0.102378857,0.03341681
0.084763272,0.060128439,0.102346782,0.033443
0.084702613,0.060108477,0.102314417,0.033469475
0.084641937,0.060088756,0.102281766,0.033496234
0.084581245,0.060069276,0.102248829,0.033523275
0.084520537,0.060050038,0.102215609,0.033550596
0.084459815,0.060031044,0.102182108,0.033578197
0.084399078,0.060012294,0.102148328,0.033606075
0.084338326,0.05999379,0.102114271,0.033634231
0.084277562,0.059975533,0.102079939,0.033662661
0.084216784,0.059957523,0.102045333,0.033691365
0.084155994,0.059939764,0.102010455,0.033720343
0.084095192,0.059922254,0.101975306,0.033749591
0.084034379,0.059904995,0.10193989,0.03377911
0.083973555,0.059887989,0.101904207,0.033808897
0.083912722,0.059871236,0.10186826,0.033838951
0.083851881,0.059854737,0.10183205,0.03386927
0.083791032,0.059838492,0.101795579,0.033899852
0.083730177,0.059822503,0.101758851,0.033930694
0.083669317,0.05980677,0.101721865,0.033961796
0.083608453,0.059791293,0.101684624,0.033993155
0.083547585,0.059776075,0.101647129,0.034024771
0.083486714,0.059761113,0.101609382,0.034056641
0.083425841,0.05974641,0.101571384,0.034088766
0.083364968,0.059731966,0.101533138,0.034121144
0.083304095,0.05971778,0.101494644,0.034153773
0.083243223,0.059703854,0.101455906,0.034186653
0.083182356,0.059690187,0.101416924,0.03421978
0.083121493,0.059676779,0.1013777,0.034253154
0.083060636,0.05966363,0.101338236,0.034286772
0.082999787,0.05965074,0.101298535,0.034320632
0.082938946,0.059638109,0.101258597,0.034354732
0.082878116,0.059625736,0.101218424,0.034389069
0.082817296,0.059613622,0.101178018,0.034423643
0.08275649,0.059601766,0.10113738,0.03445845
0.082695697,0.059590167,0.101096512,0.034493488
0.08263492,0.059578826,0.101055417,0.034528757
0.08257416,0.059567742,0.101014095,0.034564252
0.082513419,0.059556915,0.10097255,0.034599972
0.082452698,0.059546344,0.100930784,0.034635916
0.082391999,0.05953603,0.100888799,0.034672081
0.082331326,0.059525972,0.100846597,0.034708465
0.082270679,0.05951617,0.100804181,0.034745065
0.082210063,0.059506625,0.100761554,0.034781879
0.082149479,0.059497335,0.100718717,0.034818906
0.082088932,0.0594883,0.100675672,0.03485614
0.082028424,0.059479519,0.100632422,0.034893581
0.081967959,0.059470993,0.100588968,0.034931226
0.081907538,0.05946272,0.100545312,0.034969072
0.081847167,0.059454699,0.100501457,0.035007118
0.081786847,0.059446929,0.100457405,0.035045362
0.081726582,0.059439411,0.100413158,0.035083802
0.081666376,0.059432142,0.100368717,0.035122437
0.081606231,0.059425124,0.100324086,0.035161264
0.081546152,0.059418354,0.100279265,0.035200283
0.081486141,0.059411832,0.100234257,0.035239491
0.081426202,0.059405559,0.100189064,0.035278885
0.081366339,0.059399532,0.100143688,0.035318463
0.081306554,0.059393753,0.100098131,0.035358222
0.081246852,0.05938822,0.100052394,0.035398159
0.081187234,0.059382934,0.100006481,0.035438272
0.081127705,0.059377895,0.099960392,0.035478557
0.081068268,0.059373101,0.099914129,0.035519012
0.081008925,0.059368554,0.099867694,0.035559634
0.08094968,0.059364253,0.099821088,0.03560042
0.080890535,0.059360198,0.099774315,0.035641367
0.080831493,0.059356391,0.099727375,0.035682473
0.080772558,0.059352832,0.09968027,0.035723735
0.08071373,0.059349523,0.099633003,0.035765148
0.080655012,0.059346463,0.099585574,0.035806711
0.080596407,0.059343655,0.099537986,0.03584842
0.080537917,0.059341098,0.099490239,0.035890272
0.080479542,0.059338793,0.099442335,0.035932264
0.080421285,0.059336741,0.099394275,0.035974393
0.080363148,0.059334942,0.099346059,0.036016655
0.080305132,0.059333396,0.09929769,0.036059048
0.080247239,0.059332103,0.099249167,0.036101569
0.080189469,0.059331064,0.099200492,0.036144213
0.080131825,0.05933028,0.099151665,0.036186978
0.080074308,0.059329751,0.099102687,0.036229859
0.080016918,0.059329476,0.09905356,0.036272854
0.079959658,0.059329457,0.099004283,0.036315959
0.079902527,0.059329693,0.098954858,0.036359171
0.079845528,0.059330185,0.098905286,0.036402486
0.079788659,0.059330933,0.098855568,0.036445902
0.079731923,0.059331937,0.098805706,0.036489415
0.079675318,0.059333196,0.098755702,0.036533023
0.079618846,0.059334711,0.098705556,0.036576721
0.079562506,0.05933648,0.098655273,0.036620507
0.0795063,0.059338504,0.098604854,0.036664376
0.079450226,0.059340781,0.098554302,0.036708326
0.079394286,0.05934331,0.09850362,0.036752351
0.079338479,0.059346091,0.09845281,0.036796449
0.079282807,0.059349121,0.098401874,0.036840615
0.079227268,0.059352401,0.098350816,0.036884845
0.079171863,0.059355929,0.098299636,0.036929136
0.079116593,0.059359704,0.098248339,0.036973483
0.079061456,0.059363725,0.098196925,0.037017884
0.079006454,0.05936799,0.098145397,0.037062335
0.078951586,0.0593725,0.098093758,0.037106833
0.078896853,0.059377252,0.09804201,0.037151375
0.078842257,0.059382245,0.097990155,0.037195958
0.078787797,0.059387478,0.097938196,0.037240581
0.078733476,0.059392949,0.097886137,0.03728524
0.078679295,0.059398658,0.097833978,0.037329933
0.078625255,0.059404602,0.097781724,0.037374657
0.078571358,0.05941078,0.097729378,0.03741941
0.078517606,0.05941719,0.097676941,0.037464189
0.078464002,0.05942383,0.097624417,0.037508991
0.078410546,0.059430698,0.097571809,0.037553814
0.078357241,0.059437793,0.097519119,0.037598654
0.078304089,0.059445112,0.09746635,0.037643508
0.078251092,0.059452653,0.097413506,0.037688373
0.078198251,0.059460415,0.097360588,0.037733248
0.078145569,0.059468394,0.097307601,0.037778128
0.078093048,0.059476589,0.097254548,0.03782301
0.07804069,0.059484997,0.097201431,0.037867894
0.077988496,0.059493617,0.097148253,0.037912775
0.077936468,0.059502444,0.097095017,0.037957652
0.077884608,0.059511477,0.097041725,0.038002522
0.077832917,0.059520713,0.096988381,0.038047383
0.077781398,0.05953015,0.096934987,0.038092233
0.077730052,0.059539787,0.096881546,0.038137069
0.077678881,0.05954962,0.096828061,0.03818189
0.077627887,0.05955965,0.096774537,0.038226696
0.07757707,0.059569874,0.096720975,0.038271485
0.077526432,0.059580292,0.096667379,0.038316259
0.077475975,0.059590904,0.096613753,0.038361017
0.0774257,0.059601709,0.096560099,0.038405758
0.077375608,0.059612706,0.09650642,0.038450481
0.0773257,0.059623895,0.09645272,0.038495188
0.077275979,0.059635275,0.096399002,0.038539878
0.077226445,0.059646844,0.096345269,0.038584551
0.0771771,0.059658604,0.096291523,0.038629209
0.077127945,0.059670553,0.096237768,0.038673852
0.077078983,0.05968269,0.096184006,0.03871848
0.077030214,0.059695015,0.096130242,0.038763095
0.07698164,0.059707528,0.096076477,0.038807696
0.076933263,0.059720229,0.096022716,0.038852283
0.076885083,0.059733115,0.095968961,0.038896857
0.076837103,0.059746187,0.095915216,0.038941418
0.076789322,0.059759443,0.095861483,0.038985967
0.076741742,0.059772883,0.095807766,0.039030503
0.076694364,0.059786505,0.095754068,0.039075027
0.076647189,0.059800307,0.095700391,0.03911954
0.076600218,0.05981429,0.095646739,0.039164041
0.076553451,0.059828451,0.095593115,0.039208533
0.07650689,0.059842789,0.095539522,0.039253016
0.076460536,0.059857303,0.095485962,0.039297489
0.076414389,0.059871991,0.09543244,0.039341953
0.076368449,0.059886851,0.095378956,0.03938641
0.076322719,0.059901882,0.095325515,0.039430859
0.076277198,0.059917082,0.095272117,0.0394753
0.076231886,0.059932448,0.095218767,0.039519735
0.076186786,0.059947979,0.095165464,0.039564163
0.076141895,0.059963673,0.095112213,0.039608585
0.076097217,0.059979528,0.095059015,0.039653
0.076052749,0.059995542,0.095005873,0.039697409
0.076008494,0.060011712,0.094952788,0.039741811
0.075964452,0.060028037,0.094899762,0.039786208
0.075920623,0.060044514,0.094846798,0.039830599
0.075877007,0.060061141,0.094793898,0.039874985
0.075833604,0.060077916,0.094741063,0.039919365
0.075790416,0.060094836,0.094688297,0.03996374
0.075747443,0.060111899,0.094635601,0.04000811
0.075704685,0.060129105,0.094582977,0.040052475
0.075662144,0.06014645,0.094530426,0.040096833
0.075619819,0.060163934,0.09447795,0.040141184
0.075577712,0.060181555,0.094425552,0.040185528
0.075535823,0.060199311,0.094373232,0.040229864
0.075494154,0.060217202,0.094320994,0.040274192
0.075452707,0.060235225,0.094268837,0.040318512
0.075411481,0.06025338,0.094216765,0.040362824
0.07537048,0.060271664,0.094164777,0.040407128
0.075329704,0.060290076,0.094112877,0.040451424
0.075289156,0.060308615,0.094061064,0.040495714
0.075248835,0.060327278,0.09400934,0.040539996
0.075208744,0.060346065,0.093957707,0.040584273
0.075168885,0.060364974,0.093906164,0.040628545
0.075129257,0.060384003,0.093854714,0.040672812
0.075089862,0.060403151,0.093803358,0.040717077
0.075050702,0.060422415,0.093752097,0.040761341
0.075011776,0.060441795,0.093700931,0.040805605
0.074973086,0.060461288,0.093649861,0.040849871
0.074934631,0.060480894,0.093598888,0.040894142
0.074896414,0.060500611,0.093548012,0.040938417
0.074858433,0.060520438,0.093497235,0.040982698
0.07482069,0.060540374,0.093446556,0.041026986
0.074783184,0.060560418,0.093395976,0.041071283
0.074745917,0.060580567,0.093345496,0.041115589
0.074708889,0.060600822,0.093295115,0.041159906
0.0746721,0.06062118,0.093244835,0.041204235
0.074635549,0.060641642,0.093194656,0.041248576
0.074599239,0.060662205,0.093144576,0.041292931
0.074563168,0.060682869,0.093094597,0.041337301
0.074527336,0.060703633,0.093044719,0.041381686
0.074491743,0.060724496,0.092994942,0.041426087
0.07445639,0.060745457,0.092945267,0.041470505
0.074421276,0.060766514,0.092895693,0.041514942
0.0743864,0.060787665,0.092846222,0.041559399
0.074351762,0.060808911,0.092796853,0.041603875
0.074317362,0.060830248,0.092747586,0.041648373
0.074283199,0.060851676,0.092698421,0.041692893
0.074249273,0.060873193,0.092649358,0.041737436
0.074215583,0.060894798,0.092600395,0.041782005
0.074182129,0.060916489,0.092551534,0.0418266
0.074148911,0.060938264,0.092502773,0.041871224
0.074115926,0.060960122,0.092454111,0.041915878
0.074083175,0.060982061,0.092405548,0.041960563
0.074050656,0.06100408,0.092357083,0.042005281
0.07401837,0.061026175,0.092308715,0.042050032
0.073986315,0.061048347,0.092260443,0.042094817
0.07395449,0.061070592,0.092212267,0.042139638
0.073922894,0.06109291,0.092164184,0.042184493
0.073891528,0.061115299,0.092116194,0.042229384
0.07386039,0.061137757,0.092068297,0.04227431
0.073829481,0.061160283,0.09202049,0.042319272
0.073798802,0.061182875,0.091972773,0.042364269
0.073768352,0.06120553,0.091925146,0.042409301
0.073738132,0.061228247,0.091877608,0.042454369
0.073708143,0.061251024,0.091830158,0.042499471
0.073678388,0.06127386,0.091782797,0.042544607
0.073648866,0.061296751,0.091735524,0.042589778
0.073619581,0.061319696,0.091688339,0.042634982
0.073590533,0.061342694,0.091641243,0.04268022
0.073561725,0.061365741,0.091594236,0.04272549
0.073533158,0.061388837,0.091547318,0.042770793
0.073504834,0.061411978,0.09150049,0.042816128
0.073476754,0.061435164,0.091453754,0.042861495
0.073448921,0.061458392,0.091407108,0.042906894
0.073421335,0.061481661,0.091360555,0.042952327
0.073393999,0.061504968,0.091314093,0.042997795
0.073366913,0.061528311,0.091267724,0.043043299
0.073340078,0.061551688,0.091221448,0.04308884
0.073313496,0.061575097,0.091175264,0.043134418
0.073287168,0.061598537,0.091129174,0.043180035
0.073261094,0.061622005,0.091083176,0.043225691
0.073235276,0.0616455,0.091037271,0.043271388
0.073209716,0.061669019,0.09099146,0.043317126
0.073184414,0.061692561,0.090945744,0.043362905
0.073159372,0.061716123,0.090900124,0.043408727
0.07313459,0.061739705,0.090854602,0.043454592
0.073110072,0.061763303,0.090809179,0.043500499
0.073085817,0.061786916,0.090763857,0.043546449
0.073061828,0.061810543,0.09071864,0.043592442
0.073038105,0.061834181,0.090673529,0.043638476
0.073014651,0.061857828,0.090628526,0.043684552
0.072991465,0.061881483,0.090583634,0.043730668
0.07296855,0.061905144,0.090538856,0.043776824
0.072945906,0.061928809,0.090494194,0.043823019
0.072923534,0.061952476,0.090449651,0.043869253
0.072901436,0.061976144,0.09040523,0.043915522
0.072879611,0.061999811,0.090360932,0.043961828
0.07285806,0.062023476,0.090316762,0.044008169
0.072836784,0.062047139,0.09027272,0.044054544
0.072815782,0.062070798,0.09022881,0.044100953
0.072795056,0.062094453,0.090185032,0.044147394
0.072774604,0.062118104,0.090141389,0.044193868
0.072754427,0.06214175,0.090097883,0.044240374
0.072734523,0.06216539,0.090054514,0.044286911
0.072714894,0.062189024,0.090011284,0.04433348
0.072695538,0.06221265,0.089968193,0.044380079
0.072676456,0.06223627,0.089925244,0.044426708
0.072657646,0.06225988,0.089882437,0.044473367
0.07263911,0.062283481,0.089839773,0.044520053
0.072620846,0.062307072,0.089797254,0.044566767
0.072602854,0.062330651,0.089754881,0.044613505
0.072585136,0.062354216,0.089712655,0.044660269
0.072567691,0.062377767,0.089670579,0.044707055
0.072550519,0.062401302,0.089628654,0.044753864
0.072533621,0.062424819,0.089586883,0.044800693
0.072516996,0.062448318,0.089545268,0.044847543
0.072500646,0.062471797,0.08950381,0.04489441
0.072484569,0.062495255,0.089462514,0.044941296
0.072468767,0.06251869,0.08942138,0.044988198
0.072453239,0.062542102,0.08938041,0.045035116
0.072437985,0.062565488,0.089339608,0.045082048
0.072423006,0.062588846,0.089298974,0.045128993
0.072408303,0.062612176,0.08925851,0.045175949
0.072393875,0.062635474,0.089218218,0.045222914
0.072379723,0.062658738,0.089178099,0.045269886
0.072365847,0.062681967,0.089138155,0.045316863
0.072352247,0.062705158,0.089098386,0.045363844
0.072338924,0.062728309,0.089058795,0.045410828
0.072325878,0.062751418,0.089019382,0.045457811
0.072313107,0.062774482,0.088980149,0.045504794
0.072300612,0.0627975,0.088941097,0.045551773
0.072288392,0.062820468,0.088902229,0.045598747
0.072276446,0.062843384,0.088863546,0.045645715
0.072264774,0.062866246,0.088825049,0.045692675
0.072253375,0.062889053,0.088786739,0.045739625
0.072242247,0.062911801,0.088748618,0.045786565
0.072231391,0.06293449,0.088710687,0.045833495
0.072220805,0.062957119,0.088672947,0.045880411
0.072210487,0.062979684,0.088635398,0.045927315
0.072200438,0.063002185,0.088598042,0.045974203
0.072190657,0.06302462,0.08856088,0.046021076
0.072181142,0.063046988,0.088523912,0.04606793
0.072171892,0.063069287,0.08848714,0.046114765
0.072162908,0.063091515,0.088450564,0.046161577
0.072154187,0.063113671,0.088414186,0.046208367
0.072145729,0.063135753,0.088378008,0.04625513
0.072137533,0.063157758,0.088342029,0.046301867
0.072129599,0.063179686,0.088306251,0.046348574
0.072121924,0.063201534,0.088270676,0.046395251
0.072114509,0.063223299,0.088235304,0.046441894
0.072107351,0.063244981,0.088200137,0.046488502
0.072100451,0.063266578,0.088165175,0.046535073
0.072093808,0.063288089,0.088130418,0.046581604
0.07208742,0.063309512,0.088095868,0.046628094
0.072081288,0.063330846,0.088061526,0.046674542
0.072075412,0.063352092,0.088027391,0.046720945
0.072069792,0.063373247,0.087993464,0.046767302
0.072064427,0.063394311,0.087959746,0.046813611
0.072059319,0.063415285,0.087926237,0.046859871
0.072054468,0.063436168,0.087892937,0.046906081
0.072049875,0.063456959,0.087859847,0.046952239
0.07204554,0.06347766,0.087826966,0.046998343
0.072041464,0.063498271,0.087794296,0.047044392
0.072037648,0.063518791,0.087761836,0.047090385
0.072034091,0.063539222,0.087729588,0.047136319
0.072030794,0.063559563,0.08769755,0.047182195
0.072027756,0.063579814,0.087665724,0.047228009
0.072024979,0.063599976,0.087634109,0.047273761
0.072022461,0.06362005,0.087602706,0.047319449
0.072020202,0.063640035,0.087571514,0.047365071
0.072018201,0.063659932,0.087540534,0.047410626
0.072016458,0.06367974,0.087509766,0.047456111
0.072014972,0.063699461,0.087479208,0.047501524
0.072013742,0.063719093,0.087448861,0.047546862
0.072012766,0.063738638,0.087418724,0.047592124
0.072012044,0.063758093,0.087388797,0.047637305
0.072011575,0.06377746,0.08735908,0.047682404
0.072011357,0.063796738,0.08732957,0.047727418
0.072011389,0.063815925,0.087300269,0.047772344
0.07201167,0.063835022,0.087271174,0.04781718
0.0720122,0.063854028,0.087242286,0.047861923
0.072012976,0.063872943,0.087213603,0.047906571
0.072013997,0.063891765,0.087185125,0.047951124
0.072015261,0.063910495,0.08715685,0.047995578
0.072016768,0.063929132,0.087128778,0.048039932
0.072018516,0.063947675,0.087100907,0.048084184
0.072020502,0.063966124,0.087073236,0.048128333
0.072022726,0.063984478,0.087045763,0.048172377
0.072025185,0.064002737,0.087018489,0.048216315
0.072027879,0.0640209,0.08699141,0.048260146
0.072030804,0.064038967,0.086964526,0.048303867
0.07203396,0.064056935,0.086937835,0.048347478
0.072037345,0.064074805,0.086911335,0.048390976
0.072040956,0.064092576,0.086885025,0.048434361
0.072044791,0.064110246,0.086858902,0.048477629
0.07204885,0.064127814,0.086832966,0.048520779
0.072053128,0.064145281,0.086807212,0.048563809
0.072057626,0.064162646,0.086781641,0.048606717
0.072062341,0.064179909,0.08675625,0.0486495
0.072067271,0.064197068,0.086731038,0.048692158
0.072072415,0.064214124,0.086706002,0.048734687
0.07207777,0.064231075,0.086681141,0.048777085
0.072083335,0.064247922,0.086656453,0.048819352
0.072089108,0.064264662,0.086631936,0.048861484
0.072095086,0.064281296,0.086607588,0.048903479
0.072101268,0.064297821,0.086583409,0.048945336
0.072107651,0.064314238,0.086559396,0.048987052
0.072114234,0.064330544,0.086535549,0.049028626
0.072121013,0.06434674,0.086511867,0.049070055
0.072127989,0.064362825,0.086488351,0.049111336
0.072135157,0.064378798,0.086464998,0.049152469
0.072142517,0.064394661,0.08644181,0.04919345
0.072150067,0.064410413,0.086418785,0.049234277
0.072157806,0.064426056,0.086395924,0.049274949
0.072165731,0.064441589,0.086373227,0.049315462
0.072173842,0.064457012,0.086350693,0.049355815
0.072182137,0.064472327,0.086328323,0.049396004
0.072190616,0.064487533,0.086306117,0.049436027
0.072199278,0.064502632,0.086284074,0.049475882
0.072208123,0.064517623,0.086262194,0.049515565
0.07221715,0.064532508,0.086240478,0.049555074
0.072226359,0.064547287,0.086218924,0.049594406
0.07223575,0.064561962,0.086197534,0.04963356
0.072245322,0.064576533,0.086176306,0.049672531
0.072255077,0.064591002,0.086155242,0.049711318
0.072265014,0.06460537,0.086134341,0.049749918
0.072275133,0.06461964,0.086113604,0.04978833
0.072285434,0.064633813,0.086093032,0.049826551
0.072295915,0.06464789,0.086072625,0.04986458
0.072306578,0.064661873,0.086052383,0.049902415
0.072317421,0.064675764,0.086032308,0.049940053
0.072328443,0.064689565,0.086012399,0.049977493
0.072339645,0.064703275,0.085992656,0.050014733
0.072351025,0.064716898,0.08597308,0.050051771
0.072362583,0.064730435,0.08595367,0.050088606
0.072374318,0.064743886,0.085934427,0.050125236
0.07238623,0.064757254,0.085915351,0.050161658
0.072398319,0.06477054,0.085896441,0.050197872
0.072410584,0.064783745,0.085877698,0.050233874
0.072423025,0.064796871,0.085859122,0.050269664
0.072435643,0.064809918,0.085840715,0.050305238
0.072448436,0.064822887,0.085822475,0.050340596
0.072461405,0.064835779,0.085804404,0.050375735
0.072474549,0.064848595,0.085786504,0.050410655
0.07248787,0.064861335,0.085768774,0.050445355
0.072501365,0.064873999,0.085751215,0.050479833
0.072515036,0.064886588,0.085733828,0.050514088
0.072528882,0.064899102,0.085716613,0.050548119
0.072542902,0.064911542,0.08569957,0.050581924
0.072557097,0.064923906,0.085682701,0.050615502
0.072571465,0.064936197,0.085666004,0.050648851
0.072586006,0.064948412,0.08564948,0.050681969
0.072600718,0.064960551,0.08563313,0.050714855
0.072615602,0.064972615,0.085616953,0.050747506
0.072630657,0.064984603,0.085600948,0.050779921
0.07264588,0.064996513,0.085585117,0.050812098
0.072661272,0.065008346,0.085569457,0.050844036
0.072676831,0.065020102,0.08555397,0.050875735
0.072692556,0.06503178,0.085538655,0.050907192
0.072708445,0.065043382,0.085523511,0.050938405
0.072724499,0.065054906,0.085508537,0.050969374
0.072740715,0.065066354,0.085493734,0.051000097
0.072757093,0.065077726,0.085479102,0.051030573
0.072773632,0.065089021,0.085464639,0.051060799
0.072790332,0.06510024,0.085450346,0.051090775
0.072807192,0.065111382,0.085436223,0.0511205
0.072824212,0.065122448,0.08542227,0.051149973
0.07284139,0.065133437,0.085408487,0.051179192
0.072858727,0.065144349,0.085394877,0.051208158
0.072876222,0.065155183,0.085381441,0.051236868
0.072893873,0.065165939,0.085368181,0.051265321
0.072911681,0.065176617,0.085355098,0.051293516
0.072929644,0.065187215,0.085342194,0.051321451
0.072947762,0.065197734,0.085329471,0.051349124
0.072966034,0.065208174,0.08531693,0.051376532
0.07298446,0.065218533,0.085304574,0.051403675
0.073003039,0.065228812,0.085292405,0.051430551
0.07302177,0.065239011,0.085280426,0.051457157
0.073040653,0.065249131,0.085268638,0.051483493
0.073059685,0.065259171,0.085257044,0.051509557
0.073078867,0.065269132,0.085245648,0.051535346
0.073098198,0.065279015,0.085234453,0.05156086
0.073117675,0.065288821,0.08522346,0.051586096
0.073137298,0.06529855,0.085212674,0.051611054
0.073157066,0.065308203,0.085202098,0.051635732
0.073176976,0.06531778,0.085191733,0.051660129
0.073197027,0.065327283,0.085181583,0.051684244
0.073217217,0.065336712,0.08517165,0.051708078
0.073237546,0.065346067,0.085161936,0.05173163
0.073258011,0.065355349,0.085152444,0.0517549
0.07327861,0.065364559,0.085143175,0.05177789
0.073299343,0.065373696,0.085134133,0.051800598
0.073320206,0.065382762,0.085125319,0.051823026
0.0733412,0.065391757,0.085116735,0.051845174
0.073362321,0.065400682,0.085108384,0.051867043
0.073383568,0.065409536,0.085100268,0.051888633
0.073404939,0.06541832,0.085092389,0.051909943
0.073426432,0.065427033,0.085084749,0.051930974
0.073448045,0.065435678,0.085077349,0.051951726
0.073469777,0.065444254,0.085070193,0.051972199
0.073491625,0.065452763,0.085063282,0.051992393
0.073513589,0.065461207,0.085056619,0.052012308
0.073535667,0.065469589,0.085050206,0.052031945
0.073557858,0.065477911,0.085044047,0.052051303
0.07358016,0.065486176,0.085038146,0.052070382
0.073602573,0.065494386,0.085032505,0.052089182
0.073625095,0.065502544,0.085027127,0.052107702
0.073647725,0.065510651,0.085022016,0.052125945
0.073670462,0.065518711,0.085017176,0.05214391
0.073693304,0.065526724,0.085012608,0.0521616
0.073716251,0.065534693,0.085008316,0.052179013
0.0737393,0.065542619,0.085004304,0.052196151
0.073762451,0.065550503,0.085000574,0.052213015
0.073785701,0.065558348,0.084997129,0.052229604
0.073809048,0.065566155,0.084993972,0.05224592
0.073832492,0.065573924,0.084991106,0.052261961
0.07385603,0.065581657,0.084988533,0.052277729
0.07387966,0.065589355,0.084986256,0.052293223
0.07390338,0.065597017,0.084984279,0.052308444
0.073927189,0.065604645,0.084982604,0.052323392
0.073951085,0.06561224,0.084981233,0.052338066
0.073975064,0.0656198,0.08498017,0.052352468
0.073999126,0.065627328,0.084979415,0.052366598
0.074023267,0.065634822,0.084978973,0.052380455
0.074047485,0.065642285,0.084978843,0.052394041
0.074071779,0.065649717,0.084979028,0.052407355
0.074096145,0.065657119,0.084979529,0.052420397
0.074120582,0.065664493,0.084980348,0.052433168
0.074145086,0.065671839,0.084981485,0.052445666
0.074169656,0.065679158,0.084982942,0.052457893
0.074194289,0.065686453,0.084984719,0.052469848
0.074218982,0.065693723,0.084986818,0.05248153
0.074243732,0.06570097,0.084989238,0.05249294
0.074268538,0.065708193,0.08499198,0.052504077
0.074293394,0.065715394,0.084995045,0.052514939
0.0743183,0.065722573,0.084998434,0.052525527
0.074343252,0.06572973,0.085002146,0.052535838
0.074368246,0.065736864,0.085006183,0.052545873
0.074393279,0.065743977,0.085010546,0.052555629
0.07441835,0.065751067,0.085015236,0.052565105
0.074443454,0.065758134,0.085020253,0.052574301
0.074468588,0.065765179,0.0850256,0.052583215
0.074493751,0.0657722,0.085031277,0.052591846
0.074518937,0.065779198,0.085037286,0.052600192
0.074544145,0.065786172,0.085043627,0.052608253
0.074569372,0.065793123,0.085050302,0.052616027
0.074594614,0.06580005,0.085057312,0.052623515
0.074619869,0.065806953,0.085064657,0.052630715
0.074645135,0.065813833,0.085072338,0.052637628
0.074670409,0.065820688,0.085080356,0.052644253
0.074695688,0.065827519,0.085088713,0.05265059
0.074720971,0.065834325,0.08509741,0.052656639
0.074746255,0.065841107,0.085106448,0.052662399
0.074771538,0.065847864,0.085115827,0.052667871
0.074796819,0.065854596,0.08512555,0.052673054
0.074822094,0.065861304,0.085135617,0.05267795
0.074847363,0.065867986,0.085146029,0.052682556
0.074872624,0.065874643,0.085156788,0.052686874
0.074897876,0.065881276,0.085167895,0.052690903
0.074923118,0.065887883,0.085179352,0.052694641
0.074948351,0.065894466,0.085191158,0.052698088
0.074973573,0.065901024,0.085203316,0.052701244
0.074998784,0.065907556,0.085215827,0.052704108
0.075023985,0.065914063,0.08522869,0.052706679
0.075049175,0.065920544,0.085241908,0.052708956
0.075074355,0.065926998,0.08525548,0.052710939
0.075099526,0.065933427,0.085269409,0.052712628
0.075124687,0.065939829,0.085283695,0.052714022
0.07514984,0.065946204,0.08529834,0.052715121
0.075174986,0.065952554,0.085313343,0.052715927
0.075200125,0.065958876,0.085328708,0.052716438
0.075225257,0.065965172,0.085344433,0.052716655
0.075250385,0.065971441,0.08536052,0.052716579
0.075275508,0.065977682,0.085376971,0.052716209
0.075300628,0.065983896,0.085393785,0.052715547
0.075325745,0.065990082,0.085410963,0.052714593
0.07535086,0.06599624,0.085428506,0.052713348
0.075375974,0.066002368,0.085446413,0.052711813
0.075401088,0.066008468,0.085464686,0.052709988
0.075426202,0.066014536,0.085483323,0.052707874
0.075451315,0.066020574,0.085502326,0.052705473
0.075476429,0.06602658,0.085521693,0.052702783
0.075501544,0.066032554,0.085541425,0.052699806
0.07552666,0.066038493,0.085561521,0.052696543
0.075551776,0.066044399,0.08558198,0.052692993
0.075576893,0.06605027,0.085602802,0.052689157
0.075602011,0.066056108,0.085623985,0.052685038
0.075627129,0.06606191,0.08564553,0.052680635
0.075652247,0.066067678,0.085667435,0.05267595
0.075677366,0.066073411,0.085689699,0.052670984
0.075702486,0.06607911,0.085712322,0.052665738
0.075727606,0.066084773,0.085735303,0.052660213
0.075752725,0.066090402,0.08575864,0.052654411
0.075777845,0.066095996,0.085782332,0.052648331
0.075802966,0.066101555,0.085806378,0.052641977
0.075828086,0.066107079,0.085830778,0.052635348
0.075853207,0.066112567,0.085855529,0.052628445
0.075878328,0.066118019,0.085880629,0.05262127
0.07590345,0.066123435,0.085906078,0.052613822
0.075928571,0.066128813,0.085931872,0.052606104
0.075953691,0.066134154,0.085958011,0.052598115
0.07597881,0.066139458,0.085984492,0.052589856
0.076003928,0.066144724,0.086011312,0.05258133
0.076029043,0.066149952,0.08603847,0.052572538
0.076054155,0.066155143,0.086065961,0.05256348
0.076079264,0.066160297,0.086093785,0.052554157
0.076104369,0.066165412,0.086121937,0.052544572
0.076129468,0.066170489,0.086150414,0.052534724
0.076154562,0.066175527,0.086179214,0.052524614
0.076179649,0.066180527,0.086208333,0.052514244
0.076204729,0.066185488,0.086237767,0.052503615
0.076229801,0.066190412,0.086267513,0.052492728
0.076254864,0.066195297,0.086297568,0.052481583
0.076279917,0.066200145,0.086327927,0.052470183
0.076304959,0.066204955,0.086358588,0.052458527
0.07632999,0.066209726,0.086389547,0.052446616
0.076355007,0.06621446,0.086420802,0.052434451
0.076380009,0.066219157,0.086452347,0.052422034
0.076404995,0.066223815,0.086484181,0.052409365
0.076429963,0.066228435,0.0865163,0.052396447
0.076454911,0.066233017,0.086548699,0.05238328
0.076479838,0.066237561,0.086581376,0.052369868
0.076504741,0.066242066,0.086614326,0.052356211
0.07652962,0.066246533,0.086647545,0.052342311
0.076554471,0.066250961,0.08668103,0.05232817
0.076579293,0.066255349,0.086714775,0.052313789
0.076604084,0.066259697,0.086748778,0.052299169
0.076628842,0.066264005,0.086783034,0.052284312
0.076653564,0.066268273,0.086817539,0.052269217
0.076678248,0.066272499,0.086852289,0.052253887
0.076702892,0.066276684,0.08688728,0.052238321
0.076727493,0.066280828,0.086922507,0.05222252
0.07675205,0.06628493,0.086957966,0.052206485
0.07677656,0.066288991,0.086993653,0.052190216
0.076801021,0.066293009,0.087029564,0.052173713
0.076825431,0.066296986,0.087065694,0.052156977
0.076849786,0.06630092,0.087102039,0.052140007
0.076874086,0.066304811,0.087138595,0.052122806
0.076898328,0.066308659,0.087175358,0.052105373
0.076922509,0.066312462,0.087212325,0.052087708
0.076946627,0.066316221,0.08724949,0.052069813
0.07697068,0.066319936,0.087286851,0.052051688
0.076994666,0.066323605,0.087324404,0.052033334
0.077018581,0.066327229,0.087362146,0.05201475
0.077042425,0.066330807,0.087400075,0.051995938
0.077066194,0.06633434,0.087438186,0.051976899
0.077089887,0.066337825,0.087476479,0.051957633
0.077113502,0.066341264,0.087514951,0.05193814
0.077137037,0.066344654,0.087553599,0.051918422
0.077160491,0.066347996,0.087592421,0.051898479
0.077183863,0.066351288,0.087631414,0.05187831
0.077207151,0.06635453,0.087670575,0.051857917
0.077230353,0.06635772,0.087709903,0.051837301
0.07725347,0.06636086,0.087749395,0.05181646
0.077276498,0.066363946,0.087789047,0.051795397
0.077299438,0.066366979,0.087828858,0.051774112
0.077322287,0.066369957,0.087868824,0.051752606
0.077345044,0.066372879,0.087908941,0.051730879
0.077367708,0.066375745,0.087949208,0.051708931
0.077390276,0.066378552,0.087989621,0.051686764
0.077412746,0.0663813,0.088030177,0.051664377
0.077435117,0.066383986,0.088070873,0.051641772
0.077457387,0.06638661,0.088111706,0.051618949
0.077479553,0.066389171,0.088152673,0.051595908
0.077501614,0.066391667,0.088193771,0.051572652
0.077523568,0.066394096,0.088234996,0.051549179
0.077545413,0.066396456,0.088276346,0.051525492
0.077567147,0.066398748,0.088317816,0.051501589
0.077588767,0.066400969,0.088359405,0.051477471
0.077610273,0.066403118,0.088401108,0.051453141
0.077631662,0.066405195,0.088442922,0.051428597
0.077652931,0.0664072,0.088484844,0.051403842
0.07767408,0.06640913,0.08852687,0.051378877
0.077695104,0.066410985,0.088568998,0.051353703
0.077716003,0.066412764,0.088611223,0.05132832
0.077736774,0.066414466,0.088653543,0.051302731
0.077757415,0.066416088,0.088695955,0.051276934
0.077777923,0.06641763,0.088738456,0.051250931
0.077798296,0.066419091,0.088781042,0.051224723
0.077818531,0.06642047,0.08882371,0.051198311
0.077838626,0.066421766,0.088866456,0.051171694
0.077858579,0.066422978,0.088909277,0.051144874
0.077878386,0.066424104,0.088952169,0.05111785
0.077898045,0.066425144,0.088995129,0.051090623
0.077917554,0.066426097,0.089038153,0.051063192
0.077936909,0.066426962,0.089081238,0.051035557
0.07795611,0.066427737,0.089124379,0.051007719
0.077975151,0.066428423,0.089167574,0.050979677
0.077994032,0.066429019,0.089210818,0.050951431
0.07801275,0.066429525,0.089254107,0.050922981
0.078031301,0.066429941,0.089297439,0.050894328
0.078049684,0.066430267,0.089340811,0.050865471
0.078067896,0.066430503,0.08938422,0.050836411
0.078085934,0.06643065,0.089427662,0.050807149
0.078103796,0.066430708,0.089471136,0.050777685
0.07812148,0.066430679,0.08951464,0.05074802
0.078138985,0.066430563,0.089558171,0.050718155
0.078156307,0.066430361,0.089601728,0.05068809
0.078173445,0.066430073,0.089645311,0.050657826
0.078190397,0.0664297,0.089688918,0.050627363
0.078207161,0.066429244,0.08973255,0.050596702
0.078223736,0.066428704,0.089776206,0.050565842
0.078240119,0.066428082,0.089819886,0.050534785
0.078256308,0.066427379,0.089863589,0.05050353
0.078272302,0.066426595,0.089907315,0.050472077
0.078288097,0.066425732,0.089951063,0.050440428
0.078303693,0.066424789,0.089994834,0.050408582
0.078319087,0.06642377,0.090038626,0.050376539
0.078334276,0.066422674,0.090082439,0.0503443
0.078349259,0.066421502,0.090126272,0.050311864
0.078364034,0.066420256,0.090170124,0.050279233
0.078378599,0.066418937,0.090213995,0.050246405
0.07839295,0.066417545,0.090257884,0.05021338
0.078407087,0.066416083,0.090301788,0.050180159
0.078421008,0.06641455,0.090345708,0.05014674
0.078434709,0.066412948,0.090389641,0.050113123
0.078448189,0.066411279,0.090433585,0.050079308
0.078461446,0.066409543,0.09047754,0.050045294
0.078474478,0.066407741,0.090521503,0.05001108
0.078487283,0.066405875,0.090565472,0.049976666
0.078499861,0.066403945,0.090609445,0.04994205
0.07851221,0.066401953,0.09065342,0.049907232
0.078524328,0.0663999,0.090697394,0.049872212
0.078536215,0.066397787,0.090741364,0.049836987
0.078547868,0.066395614,0.090785329,0.049801559
0.078559287,0.066393382,0.090829286,0.049765926
0.078570471,0.066391092,0.090873231,0.049730088
0.078581417,0.066388745,0.090917162,0.049694045
0.078592125,0.066386342,0.090961076,0.049657795
0.078602593,0.066383885,0.09100497,0.049621339
0.078612821,0.066381374,0.091048841,0.049584675
0.078622806,0.066378813,0.091092685,0.049547804
0.078632549,0.066376202,0.0911365,0.049510727
0.078642047,0.066373546,0.091180282,0.049473442
0.0786513,0.066370846,0.091224028,0.049435952
0.078660305,0.066368104,0.091267736,0.049398256
0.078669061,0.066365324,0.091311402,0.049360353
0.078677568,0.066362507,0.091355022,0.049322245
0.078685823,0.066359656,0.091398595,0.049283931
0.078693825,0.066356773,0.091442116,0.04924541
0.078701572,0.066353859,0.091485583,0.049206684
0.078709063,0.066350917,0.091528995,0.049167751
0.078716296,0.066347949,0.091572347,0.049128613
0.07872327,0.066344955,0.09161564,0.049089269
0.078729982,0.066341938,0.091658872,0.049049719
0.078736431,0.066338899,0.09170204,0.049009964
0.078742615,0.066335839,0.091745143,0.048970003
0.078748534,0.06633276,0.09178818,0.048929837
0.078754185,0.066329662,0.091831148,0.048889466
0.078759567,0.066326548,0.091874046,0.048848889
0.078764678,0.066323417,0.091916872,0.048808107
0.078769516,0.066320271,0.091959624,0.04876712
0.07877408,0.066317112,0.092002301,0.048725927
0.078778367,0.066313939,0.0920449,0.048684529
0.078782376,0.066310754,0.092087422,0.048642926
0.078786105,0.066307558,0.092129864,0.048601117
0.078789551,0.066304351,0.092172225,0.048559102
0.078792713,0.066301135,0.092214505,0.04851688
0.078795589,0.06629791,0.092256703,0.048474451
0.078798176,0.066294676,0.092298818,0.048431816
0.078800472,0.066291434,0.092340852,0.048388972
0.078802476,0.066288185,0.092382802,0.04834592
0.078804186,0.066284928,0.092424669,0.048302661
0.0788056,0.066281663,0.092466454,0.048259192
0.078806716,0.066278392,0.092508155,0.048215515
0.078807534,0.066275113,0.092549774,0.048171629
0.078808051,0.066271827,0.09259131,0.048127534
0.078808267,0.066268534,0.092632764,0.048083229
0.078808178,0.066265235,0.092674135,0.048038716
0.078807784,0.066261929,0.092715423,0.047993994
0.078807083,0.066258616,0.092756627,0.047949062
0.078806074,0.066255296,0.092797748,0.047903922
0.078804756,0.06625197,0.092838783,0.047858574
0.078803126,0.066248637,0.092879733,0.047813018
0.078801185,0.066245296,0.092920596,0.047767254
0.07879893,0.066241947,0.092961371,0.047721282
0.078796361,0.066238589,0.093002056,0.047675103
0.078793475,0.066235222,0.093042651,0.047628717
0.078790272,0.066231846,0.093083152,0.047582125
0.07878675,0.066228458,0.09312356,0.047535326
0.078782908,0.066225058,0.093163871,0.04748832
0.078778744,0.066221646,0.093204084,0.047441109
0.078774256,0.066218219,0.093244199,0.047393692
0.078769444,0.066214777,0.093284212,0.04734607
0.078764305,0.066211318,0.093324122,0.047298243
0.078758838,0.066207841,0.093363928,0.047250214
0.078753041,0.066204345,0.093403627,0.047201982
0.078746912,0.066200828,0.093443217,0.04715355
0.078740451,0.06619729,0.093482697,0.047104918
0.078733656,0.06619373,0.093522064,0.047056089
0.078726525,0.066190147,0.093561318,0.047007063
0.078719059,0.066186541,0.093600455,0.046957842
0.078711255,0.066182912,0.093639476,0.046908427
0.078703113,0.066179258,0.093678377,0.046858819
0.078694631,0.066175581,0.093717158,0.046809019
0.078685809,0.066171878,0.093755817,0.046759029
0.078676644,0.06616815,0.093794352,0.04670885
0.078667136,0.066164397,0.093832762,0.046658483
0.078657284,0.066160619,0.093871045,0.046607928
0.078647086,0.066156815,0.093909199,0.046557188
0.078636543,0.066152988,0.093947224,0.046506263
0.078625653,0.066149137,0.093985116,0.046455155
0.078614417,0.066145262,0.094022875,0.046403865
0.078602836,0.066141365,0.0940605,0.046352394
0.07859091,0.066137448,0.094097989,0.046300745
0.078578639,0.066133509,0.094135341,0.046248918
0.078566024,0.066129552,0.094172556,0.046196916
0.078553067,0.066125577,0.094209633,0.046144741
0.078539768,0.066121586,0.094246571,0.046092394
0.078526128,0.066117579,0.09428337,0.046039878
0.078512149,0.066113557,0.09432003,0.045987195
0.078497832,0.066109522,0.094356551,0.045934347
0.078483178,0.066105475,0.094392933,0.045881337
0.078468187,0.066101416,0.094429176,0.045828167
0.078452862,0.066097346,0.094465281,0.045774838
0.078437202,0.066093266,0.094501247,0.045721354
0.07842121,0.066089177,0.094537075,0.045667717
0.078404885,0.066085079,0.094572764,0.045613928
0.07838823,0.066080972,0.094608314,0.045559989
0.078371245,0.066076858,0.094643724,0.045505904
0.078353931,0.066072737,0.094678993,0.045451675
0.07833629,0.066068611,0.094714122,0.045397304
0.078318323,0.06606448,0.094749109,0.045342793
0.078300032,0.066060347,0.094783953,0.045288145
0.078281419,0.066056214,0.094818653,0.045233364
0.078262484,0.066052083,0.094853209,0.045178452
0.07824323,0.066047956,0.094887618,0.045123413
0.078223658,0.066043836,0.094921879,0.045068251
0.07820377,0.066039724,0.094955992,0.04501297
0.078183567,0.066035623,0.094989954,0.044957573
0.07816305,0.066031532,0.095023765,0.044902063
0.078142221,0.066027456,0.095057423,0.044846447
0.078121081,0.066023395,0.095090925,0.044790727
0.078099632,0.066019353,0.095124272,0.044734909
0.078077875,0.066015329,0.095157461,0.044678997
0.07805581,0.066011328,0.095190491,0.044622995
0.078033439,0.066007351,0.09522336,0.044566909
0.078010763,0.066003399,0.095256067,0.044510742
0.077987784,0.065999475,0.09528861,0.044454498
0.077964502,0.065995579,0.095320988,0.044398181
0.077940918,0.065991714,0.095353197,0.044341796
0.077917034,0.06598788,0.095385237,0.044285346
0.077892851,0.065984079,0.095417104,0.044228835
0.077868369,0.065980312,0.095448797,0.044172266
0.07784359,0.06597658,0.095480314,0.044115643
0.077818514,0.065972884,0.095511651,0.044058971
0.077793142,0.065969226,0.095542808,0.044002253
0.077767475,0.065965607,0.095573781,0.043945494
0.077741515,0.065962027,0.095604569,0.043888697
0.07771526,0.065958488,0.095635169,0.043831868
0.077688713,0.065954992,0.095665579,0.043775011
0.077661875,0.065951538,0.095695798,0.043718131
0.077634745,0.065948129,0.095725824,0.043661233
0.077607324,0.065944764,0.095755654,0.04360432
0.077579614,0.065941445,0.095785286,0.043547398
0.077551616,0.065938172,0.095814718,0.043490472
0.07752333,0.065934947,0.095843948,0.043433544
0.077494757,0.065931771,0.095872974,0.043376621
0.0774659,0.065928645,0.095901793,0.043319705
0.077436758,0.065925569,0.095930405,0.043262801
0.077407332,0.065922545,0.095958805,0.043205912
0.077377625,0.065919572,0.095986993,0.043149043
0.077347637,0.065916653,0.096014965,0.043092198
0.077317369,0.065913787,0.096042719,0.04303538
0.077286822,0.065910975,0.096070252,0.042978595
0.077255998,0.065908218,0.096097563,0.042921847
0.077224897,0.065905515,0.096124647,0.04286514
0.077193521,0.065902868,0.096151502,0.042808479
0.077161871,0.065900276,0.096178125,0.042751867
0.077129948,0.065897739,0.096204512,0.042695308
0.077097754,0.065895258,0.096230662,0.042638807
0.07706529,0.065892832,0.096256571,0.042582367
0.077032557,0.06589046,0.096282236,0.042525991
0.076999558,0.065888143,0.096307654,0.042469684
0.076966292,0.06588588,0.096332823,0.042413451
0.076932763,0.065883671,0.09635774,0.042357294
0.076898973,0.065881514,0.096382403,0.042301219
0.076864922,0.065879409,0.096406808,0.042245229
0.076830614,0.065877355,0.096430954,0.042189327
0.07679605,0.065875351,0.096454837,0.042133518
0.076761232,0.065873396,0.096478455,0.042077804
0.076726163,0.065871488,0.096501805,0.04202219
0.076690844,0.065869626,0.096524884,0.041966678
0.076655278,0.065867808,0.096547688,0.041911273
0.076619466,0.065866034,0.096570215,0.041855978
0.076583411,0.065864301,0.096592463,0.041800797
0.076547114,0.06586261,0.096614427,0.041745733
0.076510578,0.06586096,0.096636107,0.041690791
0.076473806,0.065859352,0.096657498,0.041635974
0.076436798,0.065857784,0.0966786,0.041581286
0.076399559,0.065856257,0.09669941,0.041526729
0.07636209,0.065854771,0.096719924,0.041472308
0.076324393,0.065853325,0.096740142,0.041418024
0.076286473,0.065851919,0.096760059,0.041363881
0.07624833,0.065850552,0.096779674,0.041309881
0.076209968,0.065849224,0.096798984,0.041256027
0.07617139,0.065847933,0.096817987,0.041202322
0.076132598,0.065846678,0.096836682,0.041148769
0.076093595,0.06584546,0.096855065,0.041095371
0.076054385,0.065844277,0.096873135,0.041042133
0.076014969,0.065843128,0.09689089,0.040989058
0.075975351,0.065842013,0.096908328,0.040936149
0.075935534,0.065840931,0.096925449,0.04088341
0.075895519,0.065839882,0.096942251,0.040830844
0.075855311,0.065838863,0.096958734,0.040778454
0.075814911,0.065837876,0.096974895,0.040726243
0.075774321,0.065836919,0.096990735,0.040674213
0.075733544,0.065835992,0.097006251,0.040622368
0.075692583,0.065835095,0.097021444,0.04057071
0.075651439,0.065834228,0.097036312,0.040519243
0.075610115,0.06583339,0.097050855,0.040467968
0.075568614,0.06583258,0.097065073,0.040416889
0.075526937,0.0658318,0.097078964,0.040366007
0.075485088,0.065831048,0.097092527,0.040315325
0.075443068,0.065830325,0.097105763,0.040264847
0.075400879,0.06582963,0.097118669,0.040214573
0.075358525,0.065828965,0.097131245,0.040164507
0.075316006,0.065828331,0.09714349,0.040114652
0.075273325,0.065827727,0.097155402,0.040065009
0.075230484,0.065827154,0.097166981,0.04001558
0.075187487,0.065826613,0.097178226,0.039966368
0.075144334,0.065826104,0.097189136,0.039917374
0.075101029,0.065825628,0.09719971,0.0398686
0.075057574,0.065825186,0.097209948,0.039820048
0.075013972,0.065824777,0.097219849,0.03977172
0.074970225,0.065824403,0.097229413,0.039723616
0.074926336,0.065824065,0.097238638,0.03967574
0.074882309,0.065823763,0.097247525,0.039628093
0.074838146,0.065823501,0.097256073,0.039580676
0.07479385,0.06582328,0.09726428,0.039533491
0.074749423,0.065823103,0.097272148,0.039486539
0.074704869,0.065822974,0.097279673,0.039439823
0.07466019,0.065822895,0.097286856,0.039393344
0.074615388,0.06582287,0.097293696,0.039347103
0.074570467,0.0658229,0.097300192,0.039301101
0.074525428,0.065822988,0.097306343,0.03925534
0.074480275,0.065823137,0.09731215,0.039209821
0.07443501,0.065823349,0.097317612,0.039164544
0.074389637,0.065823628,0.097322728,0.03911951
0.074344157,0.065823975,0.097327498,0.03907472
0.074298574,0.065824394,0.097331923,0.039030174
0.074252891,0.065824887,0.097336001,0.038985874
0.07420711,0.065825456,0.097339733,0.038941821
0.074161235,0.065826105,0.097343118,0.038898015
0.074115269,0.065826837,0.097346158,0.038854457
0.074069215,0.065827653,0.097348853,0.038811149
0.074023075,0.065828557,0.097351203,0.038768091
0.073976855,0.065829551,0.097353209,0.038725284
0.073930556,0.065830637,0.097354872,0.038682728
0.073884183,0.065831816,0.097356193,0.038640425
0.073837738,0.065833091,0.097357173,0.038598376
0.073791225,0.065834464,0.097357814,0.038556581
0.073744647,0.065835937,0.097358116,0.038515041
0.073698007,0.065837511,0.097358081,0.038473758
0.073651309,0.065839189,0.09735771,0.038432731
0.073604556,0.065840973,0.097357004,0.038391961
0.073557751,0.065842865,0.097355965,0.03835145
0.073510898,0.065844866,0.097354593,0.038311198
0.073463999,0.065846979,0.09735289,0.038271207
0.073417059,0.065849204,0.097350856,0.038231477
0.07337008,0.065851545,0.097348494,0.03819201
0.073323066,0.065854003,0.097345805,0.038152806
0.07327602,0.06585658,0.09734279,0.038113867
0.073228944,0.065859279,0.097339451,0.038075192
0.073181842,0.065862104,0.097335788,0.038036784
0.073134717,0.065865058,0.097331804,0.037998643
0.07308757,0.065868143,0.097327499,0.037960769
0.073040405,0.065871364,0.097322874,0.037923166
0.072993224,0.065874724,0.097317932,0.037885834
0.072946029,0.065878225,0.097312671,0.037848774
0.072898824,0.06588187,0.097307095,0.037811988
0.07285161,0.065885663,0.097301203,0.037775478
0.07280439,0.065889606,0.097294997,0.037739244
0.072757165,0.065893701,0.097288477,0.037703288
0.072709938,0.065897951,0.097281644,0.03766761
0.07266271,0.065902357,0.097274499,0.037632212
0.072615484,0.065906922,0.097267042,0.037597094
0.072568262,0.065911648,0.097259274,0.037562257
0.072521045,0.065916536,0.097251196,0.037527703
0.072473835,0.065921589,0.097242808,0.037493433
0.072426635,0.065926806,0.097234112,0.037459449
0.072379446,0.065932191,0.097225106,0.037425751
0.072332269,0.065937744,0.097215793,0.037392343
0.072285107,0.065943467,0.097206171,0.037359224
0.072237961,0.06594936,0.097196242,0.037326398
0.072190831,0.065955424,0.097186005,0.037293866
0.072143721,0.06596166,0.09717546,0.037261628
0.072096631,0.065968068,0.097164608,0.037229687
0.072049562,0.065974648,0.097153449,0.037198043
0.072002517,0.065981402,0.097141982,0.037166697
0.071955495,0.065988329,0.097130207,0.03713565
0.071908499,0.065995429,0.097118124,0.037104904
0.07186153,0.066002704,0.097105732,0.037074459
0.07181459,0.066010153,0.097093031,0.037044317
0.071767681,0.066017777,0.09708002,0.037014478
0.071720804,0.066025576,0.0970667,0.036984944
0.07167396,0.066033551,0.097053069,0.036955716
0.071627151,0.066041701,0.097039126,0.036926794
0.071580379,0.066050027,0.097024872,0.03689818
0.071533645,0.066058529,0.097010306,0.036869874
0.071486951,0.066067207,0.096995427,0.036841876
0.071440298,0.066076062,0.096980234,0.036814187
0.071393687,0.066085092,0.096964727,0.036786808
0.071347121,0.066094298,0.096948905,0.03675974
0.071300601,0.06610368,0.096932768,0.036732982
0.071254129,0.066113237,0.096916316,0.036706537
0.071207706,0.066122968,0.096899547,0.036680405
0.071161336,0.066132872,0.096882463,0.036654585
0.071115019,0.066142948,0.096865062,0.036629079
0.071068757,0.066153197,0.096847344,0.036603886
0.071022554,0.066163616,0.096829308,0.036579008
0.07097641,0.066174206,0.096810955,0.036554443
0.070930329,0.066184966,0.096792283,0.036530194
0.070884312,0.066195895,0.096773292,0.036506262
0.070838363,0.066206993,0.096753982,0.036482646
0.070792485,0.06621826,0.096734352,0.036459347
0.070746679,0.066229695,0.096714401,0.036436367
0.070700948,0.066241298,0.096694129,0.036413705
0.070655296,0.066253069,0.096673534,0.036391362
0.070609726,0.066265006,0.096652616,0.036369336
0.07056424,0.06627711,0.096631374,0.03634763
0.07051884,0.066289379,0.096609808,0.036326242
0.070473531,0.066301813,0.096587915,0.036305173
0.070428314,0.06631441,0.096565697,0.036284423
0.070383192,0.066327169,0.096543151,0.036263992
0.070338169,0.066340089,0.096520278,0.03624388
0.070293246,0.066353169,0.096497078,0.036224089
0.070248425,0.066366407,0.096473551,0.036204618
0.07020371,0.066379803,0.096449696,0.036185468
0.070159103,0.066393355,0.096425513,0.036166639
0.070114606,0.066407062,0.096401003,0.036148132
0.070070221,0.066420924,0.096376165,0.036129946
0.070025951,0.066434939,0.096350999,0.036112083
0.069981799,0.066449107,0.096325505,0.036094542
0.069937767,0.066463428,0.096299683,0.036077324
0.069893859,0.066477902,0.096273535,0.03606043
0.069850076,0.066492531,0.096247059,0.036043861
0.069806424,0.066507314,0.096220259,0.036027617
0.069762903,0.066522251,0.096193133,0.036011699
0.069719519,0.066537344,0.096165684,0.035996107
0.069676274,0.066552591,0.096137913,0.035980842
0.069633173,0.066567993,0.096109822,0.035965903
0.06959022,0.06658355,0.096081413,0.035951292
0.069547419,0.066599261,0.096052691,0.035937008
0.069504775,0.066615127,0.096023658,0.035923053
0.069462291,0.066631146,0.095994318,0.035909427
0.069419972,0.06664732,0.095964676,0.035896131
0.069377823,0.066663647,0.095934734,0.035883165
0.069335847,0.066680126,0.095904497,0.035870532
0.069294049,0.066696758,0.095873968,0.035858231
0.069252433,0.066713543,0.095843152,0.035846263
0.069211002,0.066730478,0.095812053,0.035834629
0.069169761,0.066747565,0.095780675,0.035823329
0.069128714,0.066764802,0.095749023,0.035812365
0.069087865,0.066782189,0.095717102,0.035801738
0.069047216,0.066799725,0.095684915,0.035791447
0.069006773,0.066817411,0.095652468,0.035781495
0.068966539,0.066835247,0.095619765,0.035771882
0.068926517,0.066853232,0.095586811,0.035762612
0.068886712,0.066871368,0.095553609,0.035753685
0.068847126,0.066889654,0.095520165,0.035745103
0.068807763,0.06690809,0.095486483,0.035736869
0.068768627,0.066926678,0.095452565,0.035728985
0.068729721,0.066945416,0.095418416,0.035721451
0.068691047,0.066964304,0.095384041,0.035714272
0.06865261,0.066983342,0.095349441,0.035707448
0.068614412,0.067002529,0.095314621,0.035700983
0.068576456,0.067021865,0.095279585,0.035694879
0.068538745,0.067041348,0.095244336,0.035689139
0.068501281,0.067060978,0.095208877,0.035683764
0.068464069,0.067080755,0.095173211,0.035678757
0.068427109,0.067100676,0.095137341,0.03567412
0.068390405,0.067120743,0.09510127,0.035669855
0.06835396,0.067140953,0.095065001,0.035665962
0.068317774,0.067161307,0.095028536,0.035662444
0.068281852,0.067181804,0.094991879,0.035659301
0.068246194,0.067202442,0.094955031,0.035656534
0.068210805,0.067223221,0.094917996,0.035654146
0.068175685,0.06724414,0.094880776,0.035652135
0.068140837,0.067265198,0.094843374,0.035650503
0.068106262,0.067286393,0.094805793,0.035649249
0.068071963,0.067307724,0.094768035,0.035648374
0.068037941,0.06732919,0.094730102,0.035647878
0.068004197,0.067350788,0.094691997,0.035647761
0.067970732,0.067372518,0.094653721,0.035648023
0.067937549,0.067394377,0.094615277,0.035648665
0.067904647,0.067416363,0.094576667,0.035649688
0.067872029,0.067438474,0.094537892,0.035651094
0.067839694,0.067460708,0.094498954,0.035652882
0.067807645,0.067483064,0.094459855,0.035655053
0.067775881,0.06750554,0.094420596,0.03565761
0.067744403,0.067528135,0.09438118,0.035660552
0.067713212,0.067550847,0.094341607,0.03566388
0.067682308,0.067573675,0.09430188,0.035667596
0.067651692,0.067596618,0.094261999,0.0356717
0.067621363,0.067619675,0.094221966,0.035676193
0.067591324,0.067642843,0.094181782,0.035681076
0.067561573,0.067666122,0.094141449,0.035686348
0.067532113,0.067689508,0.094100968,0.035692012
0.067502944,0.067713001,0.09406034,0.035698065
0.067474068,0.067736598,0.094019565,0.035704509
0.067445484,0.067760296,0.093978645,0.035711343
0.067417193,0.067784094,0.093937582,0.035718567
0.067389197,0.06780799,0.093896375,0.03572618
0.067361497,0.067831981,0.093855028,0.035734181
0.067334092,0.067856065,0.09381354,0.035742571
0.067306984,0.06788024,0.093771915,0.035751348
0.067280173,0.067904503,0.093730154,0.035760513
0.067253659,0.067928852,0.093688258,0.035770064
0.067227443,0.067953285,0.09364623,0.035780001
0.067201525,0.067977798,0.093604071,0.035790322
0.067175907,0.06800239,0.093561782,0.035801028
0.067150589,0.068027057,0.093519367,0.035812118
0.067125573,0.068051798,0.093476827,0.035823591
0.067100859,0.06807661,0.093434163,0.035835446
0.06707645,0.068101492,0.093391379,0.035847683
0.067052347,0.06812644,0.093348478,0.035860301
0.067028551,0.068151454,0.093305461,0.035873299
0.067005064,0.068176529,0.093262333,0.035886676
0.066981888,0.068201665,0.093219094,0.035900432
0.066959025,0.068226859,0.093175749,0.035914564
0.066936476,0.068252108,0.0931323,0.035929071
0.066914243,0.068277409,0.093088749,0.035943952
0.066892326,0.068302759,0.093045099,0.035959206
0.066870727,0.068328156,0.093001352,0.03597483
0.066849446,0.068353597,0.09295751,0.035990825
0.066828486,0.068379078,0.092913575,0.036007188
0.066807846,0.068404597,0.092869552,0.03602392
0.066787529,0.068430153,0.092825441,0.036041019
0.066767534,0.068455743,0.092781246,0.036058485
0.066747864,0.068481366,0.092736969,0.036076317
0.066728519,0.068507019,0.092692613,0.036094514
0.066709499,0.068532702,0.09264818,0.036113074
0.066690807,0.068558412,0.092603673,0.036131998
0.06667244,0.068584148,0.092559094,0.036151284
0.066654402,0.068609908,0.092514446,0.036170932
0.066636691,0.068635689,0.092469731,0.036190941
0.066619308,0.06866149,0.092424952,0.036211311
0.066602254,0.068687309,0.092380112,0.036232042
0.066585528,0.068713144,0.092335212,0.036253133
0.066569131,0.068738991,0.092290255,0.036274584
0.066553063,0.068764851,0.092245243,0.036296394
0.066537323,0.068790719,0.09220018,0.036318563
0.06652191,0.068816594,0.092155066,0.036341089
0.066506826,0.068842473,0.092109906,0.036363972
0.066492068,0.068868355,0.092064701,0.036387212
0.066477638,0.068894236,0.092019453,0.036410806
0.066463534,0.068920114,0.091974166,0.036434755
0.066449756,0.068945986,0.09192884,0.036459058
0.066436304,0.068971849,0.091883479,0.036483712
0.066423177,0.068997699,0.091838084,0.036508717
0.066410374,0.069023535,0.091792656,0.036534071
0.066397894,0.069049352,0.091747197,0.036559772
0.066385736,0.069075147,0.091701708,0.03658582
0.0663739,0.069100918,0.091656191,0.036612212
0.066362384,0.06912666,0.091610647,0.03663895
0.066351187,0.06915237,0.091565076,0.036666031
0.066340308,0.069178046,0.091519481,0.036693455
0.066329746,0.069203684,0.091473863,0.03672122
0.066319499,0.06922928,0.091428221,0.036749327
0.066309567,0.069254832,0.091382557,0.036777773
0.066299948,0.069280338,0.091336873,0.036806557
0.066290641,0.069305793,0.091291168,0.036835679
0.066281645,0.069331194,0.091245443,0.036865136
0.066272959,0.06935654,0.0911997,0.036894927
0.066264581,0.069381826,0.091153939,0.03692505
0.066256511,0.069407049,0.09110816,0.036955504
0.066248748,0.069432207,0.091062363,0.036986286
0.066241291,0.069457297,0.091016549,0.037017396
0.066234139,0.069482315,0.090970719,0.037048831
0.06622729,0.069507259,0.090924872,0.037080591
0.066220746,0.069532125,0.090879009,0.037112673
0.066214504,0.069556912,0.090833129,0.037145076
0.066208563,0.069581615,0.090787233,0.037177799
0.066202924,0.069606233,0.09074132,0.037210839
0.066197583,0.069630763,0.09069539,0.037244195
0.066192541,0.069655201,0.090649444,0.037277864
0.066187796,0.069679546,0.090603481,0.037311843
0.066183346,0.069703795,0.090557501,0.037346132
0.066179189,0.069727947,0.090511504,0.037380727
0.066175324,0.069752,0.09046549,0.037415627
0.066171749,0.069775951,0.09041946,0.037450829
0.066168462,0.069799801,0.090373414,0.037486332
0.066165461,0.069823546,0.090327351,0.037522133
0.066162743,0.069847186,0.090281271,0.03755823
0.066160308,0.06987072,0.090235175,0.037594621
0.066158152,0.069894148,0.090189062,0.037631303
0.066156273,0.069917469,0.090142933,0.037668274
0.06615467,0.069940684,0.090096787,0.037705532
0.066153339,0.069963792,0.090050624,0.037743073
0.066152278,0.069986796,0.090004445,0.037780894
0.066151485,0.070009697,0.089958249,0.037818994
0.066150958,0.070032496,0.089912036,0.03785737
0.066150693,0.070055198,0.089865808,0.03789602
0.066150688,0.070077805,0.089819564,0.037934941
0.066150942,0.070100319,0.089773305,0.037974132
0.066151451,0.070122743,0.089727031,0.03801359
0.066152214,0.07014508,0.089680744,0.038053311
0.066153227,0.070167333,0.089634443,0.038093294
0.06615449,0.070189503,0.08958813,0.038133535
0.066155999,0.070211594,0.089541806,0.038174033
0.066157752,0.070233607,0.08949547,0.038214783
0.066159746,0.070255547,0.089449124,0.038255785
0.066161981,0.070277414,0.089402769,0.038297036
0.066164454,0.070299211,0.089356405,0.038338533
0.066167162,0.07032094,0.089310033,0.038380275
0.066170104,0.070342605,0.089263655,0.038422258
0.066173278,0.070364206,0.08921727,0.03846448
0.066176683,0.070385746,0.089170881,0.038506937
0.066180316,0.070407228,0.089124487,0.038549628
0.066184176,0.070428654,0.089078091,0.038592548
0.066188261,0.070450027,0.089031691,0.038635696
0.066192569,0.070471348,0.088985291,0.038679067
0.066197098,0.070492619,0.088938892,0.038722659
0.066201846,0.070513843,0.088892494,0.038766468
0.066206811,0.070535022,0.088846101,0.03881049
0.066211991,0.070556156,0.088799715,0.038854723
0.066217385,0.070577248,0.088753337,0.038899161
0.06622299,0.070598299,0.088706971,0.038943801
0.066228805,0.070619311,0.088660618,0.03898864
0.06623483,0.070640286,0.088614281,0.039033674
0.066241061,0.070661223,0.088567963,0.0390789
0.066247499,0.070682126,0.088521667,0.039124314
0.066254141,0.070702994,0.088475396,0.039169914
0.066260989,0.07072383,0.088429153,0.039215698
0.06626804,0.070744634,0.088382941,0.039261663
0.066275293,0.070765407,0.088336762,0.039307808
0.06628275,0.070786152,0.088290621,0.039354128
0.066290408,0.070806869,0.088244521,0.039400623
0.066298267,0.070827559,0.088198464,0.039447289
0.066306326,0.070848225,0.088152455,0.039494122
0.066314585,0.070868867,0.088106496,0.039541121
0.066323042,0.070889485,0.088060592,0.039588283
0.066331696,0.070910081,0.088014746,0.039635604
0.066340546,0.070930654,0.08796896,0.039683082
0.066349592,0.070951207,0.087923239,0.039730716
0.066358832,0.070971738,0.087877585,0.039778501
0.066368265,0.070992249,0.087832003,0.039826436
0.066377889,0.071012739,0.087786494,0.039874517
0.066387704,0.071033208,0.087741063,0.039922741
0.066397708,0.071053657,0.087695712,0.039971104
0.0664079,0.071074085,0.087650445,0.040019603
0.06641828,0.071094493,0.087605264,0.040068234
0.066428845,0.07111488,0.087560172,0.040116994
0.066439594,0.071135247,0.087515173,0.040165879
0.066450527,0.071155594,0.087470268,0.040214887
0.066461641,0.071175921,0.087425461,0.040264014
0.066472936,0.071196228,0.087380754,0.040313258
0.066484409,0.071216517,0.087336149,0.040362615
0.06649606,0.071236786,0.087291648,0.040412083
0.066507887,0.071257036,0.087247254,0.04046166
0.066519888,0.071277268,0.087202969,0.040511342
0.066532061,0.07129748,0.087158795,0.040561127
0.066544405,0.071317673,0.087114735,0.040611013
0.066556917,0.071337846,0.087070789,0.040660995
0.066569596,0.071357998,0.087026961,0.04071107
0.066582441,0.071378129,0.086983251,0.040761235
0.066595448,0.071398237,0.086939662,0.040811487
0.066608616,0.071418322,0.086896195,0.040861823
0.066621942,0.071438383,0.086852852,0.04091224
0.066635426,0.071458419,0.086809634,0.040962735
0.066649063,0.071478429,0.086766542,0.041013307
0.066662853,0.071498414,0.086723578,0.041063952
0.066676793,0.071518372,0.086680744,0.041114669
0.066690882,0.071538303,0.08663804,0.041165455
0.066705117,0.071558207,0.086595469,0.041216306
0.066719496,0.071578082,0.086553032,0.041267221
0.066734017,0.07159793,0.086510732,0.041318195
0.066748678,0.071617751,0.086468569,0.041369227
0.066763478,0.071637546,0.086426545,0.041420313
0.066778417,0.071657315,0.086384661,0.04147145
0.066793492,0.071677061,0.08634292,0.041522635
0.066808702,0.071696783,0.086301321,0.041573864
0.066824048,0.071716482,0.086259867,0.041625134
0.066839528,0.071736159,0.086218558,0.041676443
0.066855141,0.071755815,0.086177396,0.041727787
0.066870888,0.07177545,0.086136383,0.041779163
0.066886769,0.071795065,0.086095519,0.041830568
0.066902782,0.07181466,0.086054806,0.041881999
0.066918927,0.071834235,0.086014247,0.041933453
0.066935204,0.071853791,0.085973844,0.041984927
0.066951612,0.071873328,0.085933598,0.042036416
0.066968152,0.071892846,0.085893511,0.04208792
0.066984823,0.071912346,0.085853584,0.042139434
0.067001623,0.071931827,0.085813821,0.042190956
0.067018553,0.071951289,0.085774223,0.042242483
0.067035612,0.071970734,0.085734792,0.042294011
0.067052798,0.07199016,0.085695531,0.042345539
0.067070112,0.072009567,0.085656441,0.042397064
0.067087551,0.072028957,0.085617525,0.042448582
0.067105115,0.072048329,0.085578785,0.042500094
0.067122803,0.072067684,0.085540223,0.042551595
0.067140613,0.072087021,0.085501842,0.042603085
0.067158544,0.07210634,0.085463645,0.042654561
0.067176595,0.072125642,0.085425633,0.04270602
0.067194763,0.072144927,0.08538781,0.042757459
0.067213048,0.072164195,0.085350176,0.042808877
0.067231448,0.072183447,0.085312735,0.04286027
0.067249961,0.072202683,0.08527549,0.042911635
0.067268587,0.072221904,0.085238441,0.042962969
0.067287323,0.072241111,0.085201592,0.043014269
0.06730617,0.072260306,0.085164944,0.043065531
0.067325124,0.072279488,0.085128501,0.043116752
0.067344186,0.072298658,0.085092263,0.043167931
0.067363354,0.072317818,0.085056234,0.043219064
0.067382628,0.072336967,0.085020414,0.043270149
0.067402005,0.072356105,0.084984805,0.043321182
0.067421485,0.072375233,0.084949409,0.043372163
0.067441066,0.072394351,0.084914228,0.043423087
0.067460748,0.072413459,0.084879261,0.043473952
0.067480529,0.072432557,0.084844511,0.043524755
0.067500408,0.072451646,0.084809979,0.043575493
0.067520384,0.072470725,0.084775666,0.043626163
0.067540455,0.072489795,0.084741574,0.043676763
0.06756062,0.072508854,0.084707704,0.043727289
0.067580878,0.072527905,0.084674058,0.043777739
