processed_ch1,processed_ch2,processed_ch3,processed_ch4
0.041683512,0.00632453,0.233440938,0.024928992
0.041638861,0.006328228,0.233388986,0.024961386
0.041594361,0.00633192,0.233337428,0.02499393
0.041550014,0.006335607,0.233286265,0.025026626
0.041505825,0.00633929,0.233235497,0.025059472
0.041461794,0.006342968,0.233185125,0.025092467
0.041417927,0.006346643,0.233135149,0.025125611
0.041374225,0.006350315,0.233085568,0.025158902
0.041330691,0.006353983,0.233036383,0.025192339
0.041287328,0.006357648,0.232987594,0.025225922
0.041244138,0.00636131,0.2329392,0.025259648
0.041201125,0.006364969,0.232891203,0.025293518
0.04115829,0.006368626,0.232843601,0.02532753
0.041115637,0.006372279,0.232796397,0.025361682
0.041073166,0.00637593,0.23274959,0.025395974
0.041030881,0.006379578,0.232703182,0.025430404
0.040988785,0.006383224,0.232657174,0.025464971
0.040946878,0.006386867,0.232611566,0.025499674
0.040905163,0.006390508,0.232566358,0.02553451
0.040863642,0.006394146,0.23252155,0.025569477
0.040822318,0.006397782,0.23247714,0.025604575
0.040781193,0.006401415,0.232433129,0.025639799
0.040740268,0.006405045,0.232389515,0.02567515
0.040699546,0.006408672,0.232346299,0.025710625
0.04065903,0.006412296,0.232303479,0.025746223
0.04061872,0.006415916,0.232261056,0.025781944
0.04057862,0.006419533,0.23221903,0.025817789
0.040538733,0.006423146,0.232177404,0.025853755
0.04049906,0.006426756,0.232136178,0.025889844
0.040459605,0.006430361,0.232095355,0.025926055
0.04042037,0.006433962,0.232054938,0.025962388
0.040381359,0.00643756,0.232014928,0.025998842
0.040342572,0.006441154,0.231975327,0.026035417
0.040304014,0.006444743,0.231936136,0.026072113
0.040265687,0.006448329,0.231897356,0.026108928
0.040227592,0.00645191,0.23185899,0.026145862
0.040189733,0.006455488,0.231821037,0.026182915
0.040152112,0.006459061,0.231783501,0.026220085
0.040114731,0.006462629,0.231746381,0.026257372
0.040077593,0.006466193,0.231709679,0.026294774
0.040040699,0.006469753,0.231673395,0.026332291
0.040004053,0.006473307,0.231637529,0.026369921
0.039967656,0.006476857,0.231602082,0.026407664
0.039931511,0.006480403,0.231567052,0.02644552
0.039895618,0.006483943,0.231532439,0.026483488
0.039859981,0.006487479,0.231498242,0.026521566
0.039824602,0.006491009,0.231464459,0.026559754
0.039789483,0.006494534,0.23143109,0.02659805
0.039754626,0.006498053,0.231398132,0.026636453
0.039720033,0.006501567,0.231365584,0.026674962
0.039685707,0.006505074,0.231333443,0.026713574
0.039651649,0.006508575,0.231301708,0.026752289
0.039617862,0.006512068,0.231270375,0.026791103
0.039584348,0.006515555,0.231239443,0.026830015
0.039551109,0.006519033,0.231208907,0.026869023
0.039518147,0.006522504,0.231178766,0.026908125
0.039485465,0.006525966,0.231149016,0.02694732
0.039453063,0.00652942,0.231119654,0.026986606
0.039420945,0.006532863,0.231090676,0.027025982
0.039389111,0.006536297,0.231062078,0.027065445
0.039357564,0.006539721,0.231033857,0.027104995
0.039326306,0.006543135,0.231006007,0.02714463
0.039295338,0.006546538,0.230978524,0.027184348
0.039264662,0.00654993,0.230951404,0.027224148
0.039234281,0.006553312,0.230924641,0.027264029
0.039204195,0.006556684,0.23089823,0.02730399
0.039174408,0.006560045,0.230872168,0.02734403
0.039144921,0.006563394,0.230846449,0.027384147
0.039115736,0.006566733,0.230821067,0.027424339
0.039086855,0.00657006,0.230796019,0.027464606
0.03905828,0.006573376,0.230771297,0.027504945
0.039030013,0.006576679,0.230746899,0.027545356
0.039002055,0.006579971,0.230722817,0.027585836
0.03897441,0.006583251,0.230699047,0.027626387
0.038947077,0.006586518,0.230675583,0.027667008
0.03892006,0.006589773,0.230652421,0.027707699
0.03889336,0.006593016,0.230629556,0.027748461
0.03886698,0.006596246,0.230606985,0.027789295
0.03884092,0.006599464,0.230584705,0.027830201
0.038815185,0.006602669,0.230562715,0.027871179
0.038789777,0.006605861,0.230541011,0.027912229
0.038764699,0.00660904,0.23051959,0.027953352
0.038739952,0.006612206,0.230498449,0.027994547
0.03871554,0.006615358,0.230477584,0.028035814
0.038691466,0.006618496,0.230456993,0.028077154
0.038667732,0.006621618,0.230436673,0.028118567
0.03864434,0.006624725,0.230416623,0.028160051
0.038621294,0.006627816,0.230396841,0.028201607
0.038598594,0.00663089,0.230377328,0.028243233
0.038576245,0.006633948,0.230358083,0.02828493
0.038554249,0.006636991,0.230339107,0.028326695
0.038532608,0.006640017,0.230320399,0.028368527
0.038511325,0.006643028,0.230301962,0.028410425
0.038490404,0.006646024,0.230283795,0.028452389
0.038469846,0.006649006,0.230265899,0.028494416
0.038449655,0.006651973,0.230248274,0.028536506
0.038429832,0.006654926,0.230230921,0.028578656
0.03841038,0.006657867,0.230213841,0.028620866
0.038391302,0.006660794,0.230197033,0.028663134
0.038372599,0.006663709,0.230180499,0.028705457
0.038354273,0.006666612,0.23016424,0.028747835
0.038336328,0.006669503,0.230148255,0.028790266
0.038318763,0.006672382,0.230132547,0.028832748
0.038301582,0.006675249,0.230117115,0.028875278
0.038284786,0.006678104,0.230101959,0.028917856
0.038268378,0.006680947,0.230087079,0.028960479
0.038252359,0.006683778,0.230072476,0.029003145
0.038236731,0.006686596,0.230058148,0.029045853
0.038221498,0.006689402,0.230044094,0.0290886
0.03820666,0.006692196,0.230030313,0.029131384
0.03819222,0.006694977,0.230016803,0.029174203
0.03817818,0.006697745,0.230003563,0.029217054
0.038164542,0.0067005,0.229990591,0.029259935
0.038151308,0.006703242,0.229977883,0.029302843
0.038138478,0.00670597,0.229965439,0.029345777
0.038126056,0.006708684,0.229953256,0.029388734
0.038114043,0.006711383,0.229941331,0.029431713
0.03810244,0.006714068,0.229929662,0.02947471
0.03809125,0.006716738,0.229918246,0.029517724
0.038080473,0.006719393,0.229907082,0.029560753
0.038070113,0.006722033,0.229896167,0.029603795
0.03806017,0.006724658,0.2298855,0.029646848
0.038050647,0.006727267,0.229875079,0.02968991
0.038041545,0.006729861,0.229864903,0.029732978
0.038032866,0.00673244,0.22985497,0.029776051
0.038024613,0.006735002,0.22984528,0.029819127
0.038016789,0.006737549,0.229835831,0.029862204
0.038009394,0.00674008,0.229826624,0.029905279
0.038002433,0.006742594,0.229817659,0.02994835
0.037995907,0.006745091,0.229808937,0.029991416
0.037989819,0.006747571,0.229800458,0.030034474
0.037984171,0.006750035,0.229792223,0.030077522
0.037978966,0.006752481,0.229784233,0.030120558
0.037974207,0.00675491,0.229776488,0.030163579
0.037969897,0.006757322,0.229768987,0.030206583
0.037966039,0.006759716,0.22976173,0.030249568
0.037962634,0.006762093,0.229754718,0.030292531
0.037959687,0.006764453,0.229747949,0.03033547
0.037957198,0.006766794,0.229741424,0.030378381
0.037955171,0.006769118,0.22973514,0.030421262
0.037953607,0.006771423,0.229729099,0.030464112
0.03795251,0.00677371,0.229723299,0.030506926
0.037951882,0.006775978,0.229717743,0.030549702
0.037951725,0.006778227,0.229712429,0.030592438
0.03795204,0.006780458,0.229707361,0.030635132
0.037952832,0.006782669,0.22970254,0.030677783
0.037954101,0.006784861,0.229697968,0.030720388
0.03795585,0.006787033,0.229693648,0.030762945
0.037958081,0.006789186,0.229689583,0.030805453
0.037960797,0.006791318,0.229685775,0.03084791
0.037963999,0.006793429,0.229682225,0.030890312
0.03796769,0.006795519,0.229678937,0.030932658
0.037971871,0.006797587,0.229675912,0.030974946
0.037976543,0.006799633,0.229673151,0.031017172
0.037981709,0.006801656,0.229670655,0.031059334
0.037987369,0.006803657,0.229668428,0.03110143
0.037993525,0.006805634,0.229666469,0.031143457
0.038000177,0.006807587,0.229664781,0.031185414
0.038007327,0.006809517,0.229663363,0.031227298
0.038014975,0.006811422,0.229662217,0.031269106
0.038023123,0.006813302,0.229661343,0.031310835
0.038031771,0.006815157,0.229660741,0.031352485
0.03804092,0.006816986,0.229660411,0.031394051
0.038050571,0.006818789,0.229660353,0.031435533
0.038060723,0.006820566,0.229660565,0.031476928
0.038071377,0.006822316,0.229661048,0.031518233
0.038082533,0.006824038,0.229661799,0.031559446
0.03809419,0.006825732,0.229662816,0.031600567
0.03810635,0.006827399,0.229664098,0.031641594
0.038119011,0.006829036,0.229665641,0.031682525
0.038132172,0.006830645,0.229667444,0.03172336
0.038145834,0.006832224,0.229669503,0.031764099
0.038159995,0.006833773,0.229671814,0.031804738
0.038174654,0.006835291,0.229674374,0.031845279
0.038189811,0.006836778,0.229677178,0.031885718
0.038205463,0.006838233,0.229680223,0.031926055
0.038221611,0.006839655,0.229683505,0.03196629
0.038238252,0.006841044,0.229687017,0.03200642
0.038255385,0.006842401,0.229690757,0.032046445
0.038273008,0.006843726,0.229694721,0.032086365
0.038291119,0.006845019,0.229698904,0.032126178
0.038309717,0.006846282,0.229703303,0.032165883
0.0383288,0.006847514,0.229707915,0.03220548
0.038348366,0.006848716,0.229712737,0.032244967
0.038368414,0.006849888,0.229717767,0.032284343
0.038388942,0.006851033,0.229723004,0.032323606
0.038409947,0.006852149,0.229728446,0.032362755
0.038431429,0.006853239,0.229734089,0.032401787
0.038453384,0.006854302,0.229739932,0.032440702
0.038475813,0.006855339,0.229745972,0.032479498
0.038498711,0.006856351,0.229752206,0.032518173
0.038522077,0.006857338,0.229758631,0.032556724
0.038545909,0.006858301,0.229765243,0.032595151
0.038570204,0.006859241,0.229772038,0.032633452
0.03859496,0.006860158,0.229779014,0.032671623
0.038620175,0.006861053,0.229786166,0.032709665
0.038645845,0.006861926,0.229793492,0.032747575
0.038671969,0.006862779,0.229800987,0.032785352
0.038698543,0.006863611,0.229808648,0.032822994
0.038725565,0.006864423,0.229816473,0.032860499
0.038753033,0.006865216,0.229824458,0.032897867
0.038780943,0.006865989,0.229832602,0.032935095
0.038809294,0.006866745,0.229840903,0.032972182
0.038838082,0.006867483,0.229849358,0.033009127
0.038867305,0.006868204,0.229857967,0.033045927
0.038896961,0.006868909,0.229866729,0.033082583
0.038927047,0.006869598,0.229875644,0.03311909
0.038957561,0.006870272,0.22988471,0.033155449
0.038988499,0.006870931,0.229893926,0.033191656
0.03901986,0.006871577,0.229903294,0.033227711
0.039051641,0.00687221,0.229912811,0.03326361
0.039083838,0.00687283,0.229922477,0.033299352
0.03911645,0.00687344,0.22993229,0.033334934
0.039149472,0.006874038,0.22994225,0.033370355
0.039182902,0.006874627,0.229952355,0.033405613
0.039216738,0.006875206,0.229962605,0.033440706
0.039250976,0.006875777,0.229972998,0.033475631
0.039285615,0.00687634,0.229983534,0.033510388
0.039320651,0.006876896,0.229994212,0.033544976
0.039356084,0.006877446,0.230005031,0.033579394
0.039391912,0.00687799,0.230015993,0.033613642
0.039428134,0.006878528,0.230027096,0.03364772
0.039464748,0.006879062,0.230038342,0.033681627
0.039501755,0.006879591,0.230049733,0.033715362
0.039539153,0.006880116,0.23006127,0.033748925
0.039576942,0.006880637,0.230072958,0.033782316
0.039615122,0.006881155,0.230084799,0.033815535
0.039653691,0.006881671,0.230096798,0.033848582
0.039692651,0.006882184,0.230108958,0.033881455
0.039732,0.006882696,0.230121283,0.033914156
0.039771738,0.006883207,0.230133775,0.033946683
0.039811863,0.006883718,0.230146438,0.033979038
0.039852376,0.006884228,0.230159275,0.034011219
0.039893275,0.006884739,0.230172288,0.034043226
0.03993456,0.006885252,0.23018548,0.03407506
0.039976228,0.006885767,0.230198853,0.03410672
0.04001828,0.006886284,0.230212409,0.034138206
0.040060714,0.006886806,0.23022615,0.034169517
0.040103528,0.006887332,0.230240078,0.034200653
0.040146722,0.006887862,0.230254194,0.034231614
0.040190295,0.006888399,0.2302685,0.034262398
0.040234244,0.006888942,0.230282996,0.034293005
0.04027857,0.006889492,0.230297685,0.034323435
0.04032327,0.006890051,0.230312568,0.034353686
0.040368343,0.006890618,0.230327648,0.03438376
0.040413787,0.006891194,0.230342926,0.034413655
0.040459601,0.006891781,0.230358403,0.034443371
0.040505784,0.006892379,0.230374081,0.034472907
0.040552333,0.006892989,0.230389961,0.034502262
0.040599247,0.006893612,0.230406042,0.034531435
0.040646524,0.006894248,0.230422326,0.034560426
0.040694161,0.006894898,0.230438811,0.034589232
0.040742157,0.006895563,0.230455497,0.034617852
0.04079051,0.006896243,0.230472384,0.034646286
0.040839217,0.006896939,0.23048947,0.034674531
0.040888276,0.006897653,0.230506754,0.034702587
0.040937685,0.006898384,0.230524234,0.034730453
0.040987441,0.006899133,0.230541909,0.034758127
0.041037542,0.006899901,0.230559775,0.034785608
0.041087984,0.006900688,0.230577832,0.034812897
0.041138767,0.006901496,0.230596076,0.034839991
0.041189886,0.006902326,0.230614504,0.03486689
0.041241339,0.006903177,0.230633114,0.034893594
0.041293123,0.00690405,0.230651901,0.0349201
0.041345235,0.006904946,0.230670863,0.034946409
0.041397672,0.006905865,0.230689993,0.034972518
0.041450431,0.006906808,0.23070929,0.034998428
0.041503509,0.006907776,0.230728747,0.035024137
0.041556903,0.006908768,0.23074836,0.035049643
0.041610609,0.006909786,0.230768124,0.035074946
0.041664624,0.00691083,0.230788034,0.035100044
0.041718944,0.006911901,0.230808084,0.035124936
0.041773567,0.006912999,0.230828268,0.035149619
0.041828488,0.006914125,0.23084858,0.035174093
0.041883704,0.00691528,0.230869013,0.035198355
0.041939211,0.006916463,0.230889561,0.035222404
0.041995005,0.006917675,0.230910218,0.035246238
0.042051082,0.006918917,0.230930976,0.035269854
0.04210744,0.006920189,0.23095183,0.035293253
0.042164075,0.006921492,0.230972771,0.035316431
0.042220983,0.006922825,0.230993794,0.035339388
0.042278162,0.00692419,0.231014891,0.035362122
0.04233561,0.006925587,0.231036055,0.035384632
0.042393323,0.006927016,0.231057279,0.035406917
0.0424513,0.006928477,0.231078557,0.035428976
0.042509539,0.006929971,0.231099884,0.035450809
0.042568037,0.006931498,0.231121254,0.035472413
0.042626793,0.006933059,0.231142661,0.035493788
0.042685805,0.006934653,0.2311641,0.035514933
0.04274507,0.006936282,0.231185564,0.035535848
0.042804586,0.006937946,0.231207049,0.03555653
0.042864353,0.006939646,0.231228548,0.03557698
0.042924368,0.006941381,0.231250056,0.035597198
0.042984629,0.006943153,0.231271567,0.035617182
0.043045133,0.006944961,0.231293076,0.035636933
0.04310588,0.006946807,0.231314577,0.035656449
0.043166865,0.006948692,0.231336065,0.035675731
0.043228087,0.006950615,0.231357535,0.035694779
0.043289544,0.006952578,0.231378983,0.035713591
0.043351233,0.006954581,0.231400405,0.035732169
0.043413152,0.006956625,0.231421798,0.035750511
0.043475299,0.006958711,0.231443159,0.035768618
0.043537671,0.006960839,0.231464486,0.035786491
0.043600266,0.006963009,0.231485777,0.035804129
0.043663082,0.006965223,0.231507032,0.035821532
0.043726116,0.006967479,0.231528248,0.035838702
0.043789366,0.00696978,0.231549425,0.035855638
0.04385283,0.006972124,0.231570564,0.035872342
0.043916506,0.006974513,0.231591666,0.035888813
0.043980391,0.006976947,0.231612731,0.035905053
0.044044484,0.006979426,0.231633759,0.035921061
0.044108781,0.00698195,0.231654752,0.035936839
0.044173282,0.006984521,0.23167571,0.035952386
0.044237984,0.006987139,0.231696632,0.035967702
0.044302883,0.006989803,0.231717519,0.035982787
0.044367979,0.006992515,0.23173837,0.035997642
0.044433267,0.006995273,0.231759184,0.036012266
0.044498747,0.006998079,0.231779962,0.036026659
0.044564415,0.007000932,0.231800701,0.036040822
0.044630268,0.007003832,0.231821401,0.036054754
0.044696305,0.007006779,0.231842062,0.036068456
0.044762522,0.007009773,0.231862682,0.036081927
0.044828917,0.007012815,0.231883261,0.036095168
0.044895486,0.007015903,0.231903798,0.03610818
0.044962228,0.00701904,0.231924292,0.036120961
0.045029139,0.007022224,0.231944741,0.036133512
0.045096216,0.007025456,0.231965146,0.036145833
0.045163456,0.007028738,0.231985505,0.036157924
0.045230856,0.00703207,0.232005816,0.036169786
0.045298413,0.007035451,0.232026078,0.036181418
0.045366124,0.007038883,0.232046289,0.03619282
0.045433985,0.007042367,0.232066445,0.036203992
0.045501995,0.007045901,0.232086546,0.036214934
0.045570149,0.007049488,0.232106588,0.036225646
0.045638446,0.007053128,0.232126569,0.036236128
0.045706882,0.00705682,0.232146486,0.036246378
0.045775454,0.007060565,0.232166338,0.036256398
0.045844159,0.007064364,0.23218612,0.036266186
0.045912995,0.007068216,0.232205831,0.036275744
0.045981959,0.007072122,0.232225466,0.03628507
0.046051048,0.007076082,0.232245023,0.036294166
0.046120258,0.007080096,0.232264499,0.036303031
0.046189588,0.007084165,0.23228389,0.036311665
0.046259034,0.007088288,0.232303193,0.036320071
0.046328593,0.007092468,0.232322404,0.036328248
0.046398263,0.007096703,0.232341522,0.036336199
0.046468039,0.007100995,0.232360541,0.036343923
0.046537919,0.007105344,0.232379459,0.036351421
0.0466079,0.007109749,0.232398273,0.036358695
0.046677978,0.007114213,0.232416979,0.036365743
0.046748151,0.007118734,0.232435574,0.036372568
0.046818414,0.007123313,0.232454055,0.03637917
0.046888765,0.007127951,0.232472421,0.036385548
0.046959201,0.007132648,0.232490668,0.036391704
0.047029717,0.007137405,0.232508795,0.036397638
0.047100311,0.007142221,0.232526801,0.036403349
0.04717098,0.007147097,0.232544685,0.036408839
0.047241719,0.007152035,0.232562447,0.036414108
0.047312526,0.007157033,0.232580085,0.036419156
0.047383398,0.007162094,0.232597598,0.036423986
0.04745433,0.007167216,0.232614987,0.036428597
0.047525319,0.007172401,0.232632251,0.036432994
0.047596361,0.00717765,0.23264939,0.036437177
0.047667453,0.007182961,0.232666402,0.036441149
0.047738591,0.007188336,0.232683289,0.036444913
0.047809771,0.007193775,0.232700047,0.036448471
0.04788099,0.007199279,0.232716677,0.036451826
0.047952243,0.007204847,0.232733175,0.03645498
0.048023527,0.007210479,0.232749542,0.036457937
0.048094837,0.007216177,0.232765775,0.036460697
0.04816617,0.00722194,0.232781872,0.036463264
0.048237521,0.007227769,0.23279783,0.03646564
0.048308887,0.007233664,0.232813648,0.036467826
0.048380262,0.007239624,0.232829324,0.036469826
0.048451644,0.00724565,0.232844854,0.03647164
0.048523028,0.007251741,0.232860236,0.036473271
0.04859441,0.007257899,0.232875468,0.036474721
0.048665785,0.007264124,0.232890544,0.03647599
0.04873715,0.007270414,0.232905464,0.03647708
0.0488085,0.00727677,0.232920221,0.036477992
0.048879831,0.007283191,0.232934813,0.036478728
0.048951138,0.007289679,0.232949235,0.036479288
0.049022419,0.007296232,0.232963483,0.036479673
0.049093667,0.00730285,0.232977553,0.036479885
0.04916488,0.007309533,0.232991438,0.036479925
0.049236052,0.00731628,0.233005136,0.036479792
0.04930718,0.007323091,0.233018641,0.036479489
0.04937826,0.007329966,0.233031948,0.036479017
0.049449287,0.007336905,0.233045054,0.036478376
0.049520258,0.007343908,0.233057955,0.036477567
0.049591169,0.007350974,0.233070645,0.036476592
0.049662016,0.007358103,0.233083122,0.036475451
0.049732794,0.007365295,0.23309538,0.036474144
0.049803501,0.00737255,0.233107416,0.036472672
0.049874131,0.007379868,0.233119226,0.036471037
0.049944681,0.007387247,0.233130806,0.036469238
0.050015147,0.007394688,0.23314215,0.036467277
0.050085525,0.007402189,0.233153254,0.036465156
0.05015581,0.007409752,0.233164113,0.036462876
0.050226,0.007417375,0.233174723,0.036460439
0.050296089,0.007425059,0.233185077,0.036457845
0.050366075,0.007432804,0.233195173,0.036455095
0.050435954,0.007440608,0.233205003,0.036452191
0.050505722,0.007448473,0.233214562,0.036449133
0.050575374,0.007456397,0.233223847,0.036445922
0.050644908,0.00746438,0.233232851,0.036442558
0.050714319,0.007472423,0.233241568,0.036439041
0.050783602,0.007480524,0.233249993,0.036435373
0.050852755,0.007488683,0.233258121,0.036431552
0.050921774,0.0074969,0.233265946,0.036427581
0.050990655,0.007505174,0.233273462,0.03642346
0.051059394,0.007513505,0.233280663,0.036419189
0.051127989,0.007521892,0.233287546,0.036414769
0.051196436,0.007530334,0.233294105,0.0364102
0.051264732,0.00753883,0.233300336,0.036405485
0.051332874,0.00754738,0.233306235,0.036400623
0.051400859,0.007555983,0.233311798,0.036395617
0.051468684,0.007564638,0.233317021,0.036390467
0.051536346,0.007573345,0.233321899,0.036385174
0.051603841,0.007582102,0.233326427,0.036379739
0.051671169,0.007590911,0.233330602,0.036374163
0.051738324,0.007599769,0.233334418,0.036368447
0.051805305,0.007608677,0.233337871,0.036362591
0.051872109,0.007617634,0.233340955,0.036356596
0.051938733,0.00762664,0.233343665,0.036350463
0.052005175,0.007635694,0.233345995,0.036344192
0.052071432,0.007644796,0.233347941,0.036337783
0.052137501,0.007653944,0.233349496,0.036331237
0.052203379,0.00766314,0.233350653,0.036324554
0.052269065,0.007672381,0.233351409,0.036317734
0.052334555,0.007681667,0.233351757,0.036310778
0.052399846,0.007690998,0.233351691,0.036303686
0.052464936,0.007700374,0.233351206,0.036296459
0.052529821,0.007709793,0.233350297,0.036289098
0.052594499,0.007719254,0.233348957,0.036281604
0.052658967,0.007728758,0.233347182,0.036273978
0.052723221,0.007738303,0.233344964,0.03626622
0.052787258,0.007747888,0.233342299,0.036258331
0.052851076,0.007757514,0.233339179,0.036250311
0.052914672,0.00776718,0.233335601,0.036242161
0.052978041,0.007776885,0.233331557,0.036233882
0.053041181,0.007786628,0.233327042,0.036225473
0.053104088,0.00779641,0.233322051,0.036216936
0.05316676,0.00780623,0.233316578,0.036208271
0.053229192,0.007816087,0.233310616,0.036199477
0.053291382,0.00782598,0.233304161,0.036190556
0.053353327,0.00783591,0.233297206,0.036181507
0.053415023,0.007845875,0.233289746,0.036172331
0.053476466,0.007855875,0.233281775,0.036163028
0.053537654,0.007865909,0.233273286,0.036153598
0.053598584,0.007875979,0.233264275,0.036144041
0.053659252,0.007886081,0.233254734,0.036134358
0.053719654,0.007896217,0.233244659,0.036124548
0.053779789,0.007906386,0.233234044,0.036114612
0.053839653,0.007916587,0.233222883,0.03610455
0.053899242,0.00792682,0.233211172,0.036094361
0.053958556,0.007937083,0.233198906,0.036084046
0.05401759,0.007947377,0.233186081,0.036073603
0.054076342,0.007957702,0.233172692,0.036063034
0.05413481,0.007968056,0.233158734,0.036052339
0.054192991,0.00797844,0.233144205,0.036041517
0.054250882,0.007988854,0.233129099,0.036030568
0.054308482,0.007999298,0.233113414,0.036019494
0.054365786,0.00800977,0.233097143,0.036008294
0.054422793,0.008020271,0.233080285,0.035996969
0.0544795,0.008030801,0.233062834,0.035985519
0.054535904,0.008041358,0.233044786,0.035973944
0.054592003,0.008051943,0.23302614,0.035962246
0.054647794,0.008062555,0.233006891,0.035950425
0.054703274,0.008073192,0.232987037,0.035938482
0.054758441,0.008083856,0.232966576,0.035926419
0.054813292,0.008094544,0.232945506,0.035914236
0.054867825,0.008105257,0.232923825,0.035901937
0.054922036,0.008115994,0.232901533,0.035889524
0.054975924,0.008126753,0.232878629,0.035876998
0.055029484,0.008137534,0.232855112,0.035864363
0.055082715,0.008148336,0.232830982,0.035851621
0.055135614,0.00815916,0.232806239,0.035838775
0.055188178,0.008170004,0.232780882,0.035825827
0.055240404,0.008180867,0.232754911,0.03581278
0.055292289,0.008191751,0.232728325,0.035799637
0.055343831,0.008202653,0.232701124,0.035786402
0.055395027,0.008213575,0.232673307,0.035773075
0.055445875,0.008224515,0.232644873,0.03575966
0.055496372,0.008235473,0.232615822,0.035746159
0.055546515,0.008246449,0.232586155,0.035732574
0.055596302,0.008257443,0.232555873,0.035718908
0.055645732,0.008268454,0.232524975,0.035705162
0.055694801,0.008279482,0.232493463,0.035691337
0.055743508,0.008290527,0.232461339,0.035677436
0.055791849,0.008301587,0.232428603,0.03566346
0.055839824,0.008312663,0.232395258,0.03564941
0.05588743,0.008323753,0.232361304,0.035635288
0.055934665,0.008334858,0.232326746,0.035621096
0.055981526,0.008345977,0.232291585,0.035606835
0.056028012,0.008357108,0.232255824,0.035592507
0.056074119,0.008368252,0.232219468,0.035578114
0.056119848,0.008379408,0.232182518,0.035563657
0.056165194,0.008390574,0.232144978,0.035549139
0.056210157,0.00840175,0.232106851,0.03553456
0.056254733,0.008412936,0.23206814,0.035519923
0.056298922,0.008424129,0.232028848,0.03550523
0.056342722,0.00843533,0.231988978,0.035490484
0.05638613,0.008446539,0.231948534,0.035475686
0.056429144,0.008457754,0.231907518,0.035460841
0.056471764,0.008468976,0.231865935,0.035445952
0.056513987,0.008480204,0.231823787,0.035431022
0.056555811,0.008491439,0.231781078,0.035416058
0.056597234,0.008502679,0.231737813,0.035401063
0.056638254,0.008513924,0.231693996,0.035386042
0.05667887,0.008525174,0.23164963,0.035371
0.056719079,0.008536427,0.231604721,0.03535594
0.05675888,0.008547685,0.231559272,0.035340868
0.05679827,0.008558944,0.231513286,0.035325786
0.056837248,0.008570206,0.231466769,0.035310699
0.056875811,0.008581469,0.231419724,0.035295611
0.056913959,0.008592733,0.231372153,0.035280525
0.056951689,0.008603996,0.23132406,0.035265443
0.056988999,0.008615258,0.231275449,0.03525037
0.057025889,0.008626519,0.231226321,0.035235308
0.057062355,0.008637778,0.231176679,0.03522026
0.057098398,0.008649035,0.231126526,0.035205229
0.057134014,0.008660288,0.231075864,0.035190217
0.057169203,0.008671537,0.231024694,0.035175227
0.057203962,0.008682781,0.23097302,0.035160262
0.057238292,0.008694021,0.230920844,0.035145323
0.057272189,0.008705254,0.230868167,0.035130416
0.057305652,0.008716482,0.230814992,0.035115541
0.057338681,0.008727702,0.230761321,0.035100701
0.057371273,0.008738916,0.230707157,0.0350859
0.057403426,0.008750121,0.230652502,0.035071139
0.057435141,0.008761319,0.23059736,0.03505642
0.057466415,0.008772508,0.230541734,0.035041746
0.057497246,0.008783689,0.230485629,0.03502712
0.057527634,0.00879486,0.230429049,0.035012543
0.057557577,0.00880602,0.230371999,0.034998019
0.057587075,0.00881717,0.230314483,0.03498355
0.057616125,0.008828308,0.230256506,0.03496914
0.057644727,0.008839434,0.230198072,0.034954791
0.057672879,0.008850546,0.230139186,0.034940507
0.057700581,0.008861645,0.230079853,0.034926289
0.057727831,0.008872729,0.230020077,0.034912141
0.057754629,0.008883799,0.229959863,0.034898067
0.057780973,0.008894853,0.229899215,0.034884067
0.057806863,0.008905892,0.229838139,0.034870147
0.057832297,0.008916915,0.229776638,0.034856308
0.057857274,0.008927921,0.229714718,0.034842554
0.057881795,0.008938911,0.229652381,0.034828888
0.057905857,0.008949882,0.229589633,0.034815312
0.05792946,0.008960835,0.229526478,0.034801829
0.057952603,0.008971768,0.22946292,0.034788441
0.057975285,0.008982682,0.229398964,0.034775151
0.057997505,0.008993574,0.229334614,0.034761962
0.058019263,0.009004443,0.229269877,0.034748876
0.058040557,0.00901529,0.22920476,0.034735895
0.058061389,0.009026113,0.229139269,0.034723022
0.058081756,0.009036912,0.229073413,0.034710259
0.058101658,0.009047684,0.229007197,0.034697607
0.058121096,0.009058432,0.22894063,0.03468507
0.058140067,0.009069152,0.228873719,0.034672648
0.058158572,0.009079846,0.228806471,0.034660344
0.058176611,0.009090512,0.228738894,0.03464816
0.058194182,0.009101151,0.228670993,0.034636097
0.058211285,0.00911176,0.228602777,0.034624159
0.058227919,0.009122341,0.228534252,0.034612347
0.058244085,0.009132891,0.228465426,0.034600665
0.058259781,0.009143411,0.228396305,0.034589113
0.058275007,0.009153898,0.228326896,0.034577694
0.058289763,0.009164354,0.228257208,0.034566409
0.058304048,0.009174776,0.228187248,0.03455526
0.058317863,0.009185166,0.228117023,0.034544249
0.058331207,0.009195522,0.228046539,0.034533377
0.05834408,0.009205844,0.227975805,0.034522645
0.058356484,0.009216133,0.227904826,0.034512058
0.058368418,0.009226388,0.227833609,0.034501616
0.058379882,0.009236609,0.227762161,0.034491322
0.058390879,0.009246795,0.227690486,0.034481178
0.058401407,0.009256947,0.227618592,0.034471188
0.058411467,0.009267063,0.227546485,0.034461353
0.058421061,0.009277145,0.22747417,0.034451676
0.058430188,0.009287191,0.227401654,0.034442158
0.05843885,0.0092972,0.227328942,0.034432803
0.058447047,0.009307174,0.22725604,0.034423612
0.05845478,0.009317112,0.227182955,0.034414587
0.058462049,0.009327013,0.22710969,0.034405731
0.058468856,0.009336877,0.227036252,0.034397044
0.058475202,0.009346703,0.226962646,0.034388528
0.058481086,0.009356492,0.226888877,0.034380185
0.058486511,0.009366243,0.226814951,0.034372017
0.058491478,0.009375954,0.226740872,0.034364025
0.058495987,0.009385627,0.226666646,0.034356211
0.058500041,0.009395261,0.22659228,0.034348576
0.05850364,0.009404855,0.226517778,0.034341122
0.058506786,0.009414411,0.226443146,0.034333851
0.05850948,0.009423928,0.226368391,0.034326763
0.058511725,0.009433408,0.226293516,0.03431986
0.058513522,0.00944285,0.226218528,0.034313142
0.058514873,0.009452256,0.226143431,0.03430661
0.058515781,0.009461627,0.226068231,0.034300266
0.058516247,0.009470963,0.225992931,0.03429411
0.058516274,0.009480264,0.225917538,0.034288143
0.058515864,0.009489531,0.225842055,0.034282366
0.058515018,0.009498764,0.225766488,0.034276779
0.058513739,0.009507963,0.225690841,0.034271385
0.058512028,0.009517129,0.225615118,0.034266182
0.058509888,0.009526261,0.225539324,0.034261174
0.05850732,0.009535361,0.225463462,0.034256359
0.058504326,0.009544428,0.225387538,0.03425174
0.058500907,0.009553462,0.225311556,0.034247317
0.058497066,0.009562464,0.225235522,0.03424309
0.058492804,0.009571433,0.22515944,0.034239061
0.058488122,0.00958037,0.225083316,0.03423523
0.058483022,0.009589274,0.225007152,0.034231597
0.058477507,0.009598147,0.224930955,0.034228163
0.058471576,0.009606987,0.224854728,0.034224927
0.058465233,0.009615795,0.224778478,0.03422189
0.058458479,0.009624571,0.22470221,0.034219051
0.058451315,0.009633315,0.224625932,0.03421641
0.058443742,0.009642026,0.22454965,0.034213967
0.058435763,0.009650705,0.224473374,0.034211722
0.058427379,0.009659351,0.224397112,0.034209673
0.058418592,0.009667965,0.224320877,0.03420782
0.058409404,0.009676546,0.22424468,0.034206163
0.058399819,0.009685094,0.224168534,0.034204699
0.058389837,0.009693609,0.224092454,0.034203428
0.058379462,0.009702092,0.224016451,0.03420235
0.058368695,0.009710541,0.223940539,0.034201464
0.058357539,0.009718956,0.22386473,0.034200769
0.058345996,0.009727338,0.223789038,0.034200267
0.058334069,0.009735687,0.223713474,0.034199956
0.05832176,0.009744001,0.22363805,0.034199837
0.058309071,0.009752281,0.22356278,0.034199911
0.058296005,0.009760527,0.223487674,0.034200177
0.058282563,0.009768739,0.223412746,0.034200635
0.058268747,0.009776916,0.223338007,0.034201288
0.058254561,0.009785057,0.223263469,0.034202135
0.058240006,0.009793162,0.223189144,0.034203179
0.058225084,0.009801231,0.223115043,0.034204422
0.058209798,0.009809263,0.223041178,0.034205865
0.058194149,0.009817259,0.22296756,0.034207509
0.058178139,0.009825217,0.2228942,0.034209356
0.058161772,0.009833138,0.222821109,0.034211409
0.05814505,0.009841022,0.222748297,0.034213668
0.058127974,0.009848868,0.222675773,0.034216135
0.058110548,0.009856676,0.222603547,0.034218812
0.058092774,0.009864446,0.222531628,0.034221701
0.058074655,0.009872178,0.222460024,0.034224803
0.058056194,0.009879871,0.222388746,0.034228119
0.058037392,0.009887525,0.222317804,0.034231652
0.058018254,0.009895141,0.222247205,0.034235403
0.057998781,0.009902717,0.22217696,0.034239374
0.057978976,0.009910253,0.222107077,0.034243567
0.057958842,0.009917749,0.222037567,0.034247983
0.05793838,0.009925205,0.221968436,0.034252624
0.057917595,0.009932619,0.221899696,0.034257491
0.057896488,0.009939992,0.221831355,0.034262586
0.057875062,0.009947324,0.221763421,0.034267911
0.057853321,0.009954613,0.221695905,0.034273467
0.057831266,0.00996186,0.221628815,0.034279254
0.057808901,0.009969064,0.22156216,0.034285273
0.057786228,0.009976224,0.221495947,0.034291526
0.05776325,0.00998334,0.221430187,0.034298013
0.05773997,0.009990411,0.221364886,0.034304735
0.057716391,0.009997437,0.221300056,0.034311692
0.057692516,0.010004416,0.221235704,0.034318885
0.057668348,0.010011348,0.22117184,0.034326313
0.057643889,0.010018233,0.221108474,0.034333979
0.057619143,0.010025069,0.221045617,0.034341881
0.057594112,0.010031856,0.220983279,0.034350019
0.057568799,0.010038594,0.22092147,0.034358394
0.057543206,0.010045283,0.2208602,0.034367005
0.057517338,0.010051922,0.220799483,0.034375851
0.057491195,0.01005851,0.220739331,0.034384932
0.057464783,0.010065048,0.220679758,0.034394246
0.057438102,0.010071536,0.220620776,0.034403792
0.057411157,0.010077972,0.220562399,0.034413569
0.05738395,0.010084357,0.22050464,0.034423575
0.057356483,0.010090692,0.22044751,0.034433811
0.057328759,0.010096976,0.220391023,0.034444273
0.057300782,0.010103208,0.220335192,0.034454962
0.057272555,0.01010939,0.220280029,0.034465877
0.057244079,0.010115521,0.220225547,0.034477015
0.057215359,0.010121601,0.220171759,0.034488376
0.057186397,0.010127629,0.220118677,0.034499959
0.057157196,0.010133605,0.220066314,0.034511763
0.057127759,0.01013953,0.220014682,0.034523786
0.05709809,0.010145402,0.219963793,0.034536028
0.05706819,0.010151222,0.21991366,0.034548487
0.057038064,0.010156989,0.219864293,0.034561164
0.057007714,0.010162703,0.219815706,0.034574056
0.056977142,0.010168362,0.219767909,0.034587163
0.056946352,0.010173968,0.219720914,0.034600483
0.056915346,0.010179519,0.21967473,0.034614015
0.056884127,0.010185014,0.219629368,0.034627757
0.056852697,0.010190455,0.219584836,0.034641707
0.056821061,0.010195839,0.219541145,0.034655863
0.05678922,0.010201168,0.219498301,0.034670221
0.056757177,0.010206441,0.219456313,0.034684781
0.056724935,0.010211656,0.219415189,0.034699539
0.056692497,0.010216815,0.219374936,0.034714494
0.056659866,0.010221916,0.219335561,0.034729643
0.056627044,0.010226958,0.219297071,0.034744984
0.056594034,0.010231943,0.219259472,0.034760515
0.056560839,0.010236868,0.21922277,0.034776232
0.056527461,0.010241735,0.219186971,0.034792135
0.056493902,0.010246542,0.219152078,0.03480822
0.056460166,0.010251291,0.219118097,0.034824484
0.056426256,0.01025598,0.219085033,0.034840924
0.056392174,0.01026061,0.219052889,0.034857538
0.056357923,0.010265181,0.219021669,0.034874322
0.056323505,0.010269693,0.218991377,0.034891275
0.056288926,0.010274147,0.218962016,0.034908392
0.056254186,0.010278542,0.218933589,0.034925672
0.05621929,0.010282879,0.218906101,0.034943112
0.056184242,0.010287158,0.218879552,0.034960709
0.056149043,0.010291379,0.218853946,0.034978462
0.056113699,0.010295542,0.218829287,0.034996366
0.056078212,0.010299648,0.218805575,0.035014421
0.056042586,0.010303695,0.218782815,0.035032622
0.056006824,0.010307686,0.218761009,0.035050967
0.055970928,0.010311619,0.218740159,0.035069453
0.055934902,0.010315496,0.218720269,0.035088076
0.055898749,0.010319316,0.218701341,0.035106834
0.055862471,0.010323081,0.218683379,0.035125723
0.055826073,0.010326791,0.218666385,0.035144741
0.055789556,0.010330446,0.218650362,0.035163883
0.055752924,0.010334046,0.218635312,0.035183147
0.055716179,0.010337592,0.218621238,0.03520253
0.055679325,0.010341084,0.218608139,0.035222029
0.055642365,0.010344522,0.218596019,0.035241641
0.055605301,0.010347908,0.218584878,0.035261364
0.055568137,0.010351241,0.218574716,0.035281195
0.055530876,0.010354523,0.218565536,0.035301131
0.05549352,0.010357753,0.218557338,0.035321168
0.055456074,0.010360932,0.218550124,0.035341305
0.055418539,0.01036406,0.218543898,0.035361536
0.05538092,0.010367138,0.218538662,0.035381859
0.055343218,0.010370167,0.21853442,0.035402271
0.055305437,0.010373146,0.218531175,0.035422769
0.05526758,0.010376078,0.218528932,0.035443349
0.055229648,0.010378962,0.218527693,0.035464009
0.055191646,0.0103818,0.218527462,0.035484744
0.055153575,0.010384593,0.218528242,0.035505552
0.055115439,0.010387342,0.218530036,0.03552643
0.05507724,0.010390047,0.218532848,0.035547374
0.05503898,0.010392711,0.21853668,0.035568382
0.055000662,0.010395333,0.218541535,0.035589451
0.054962289,0.010397915,0.218547413,0.035610579
0.054923863,0.010400458,0.218554317,0.035631762
0.054885386,0.010402961,0.218562246,0.035652999
0.05484686,0.010405427,0.218571202,0.035674286
0.054808289,0.010407856,0.218581184,0.035695621
0.054769674,0.010410247,0.218592193,0.035717
0.054731017,0.010412603,0.21860423,0.035738421
0.054692322,0.010414923,0.218617294,0.035759881
0.05465359,0.010417209,0.218631384,0.035781376
0.054614824,0.010419461,0.218646501,0.035802904
0.054576026,0.010421679,0.218662644,0.035824462
0.054537199,0.010423864,0.218679812,0.035846047
0.054498344,0.010426017,0.218698004,0.035867656
0.054459465,0.010428137,0.218717218,0.035889288
0.054420564,0.010430225,0.218737452,0.035910938
0.054381643,0.01043228,0.218758706,0.035932606
0.054342705,0.010434304,0.218780977,0.035954288
0.054303753,0.010436296,0.218804264,0.035975983
0.054264787,0.010438257,0.218828567,0.035997688
0.054225811,0.010440187,0.218853883,0.0360194
0.054186827,0.010442086,0.218880212,0.036041116
0.054147837,0.010443955,0.21890755,0.036062833
0.054108842,0.010445795,0.218935897,0.036084549
0.054069846,0.010447607,0.218965249,0.036106262
0.05403085,0.01044939,0.218995603,0.036127969
0.053991857,0.010451146,0.219026958,0.036149668
0.053952868,0.010452874,0.21905931,0.036171357
0.053913885,0.010454577,0.219092657,0.036193032
0.053874909,0.010456253,0.219126995,0.036214692
0.053835943,0.010457903,0.219162323,0.036236332
0.053796989,0.010459528,0.219198638,0.036257951
0.053758047,0.010461129,0.219235936,0.036279545
0.05371912,0.010462705,0.219274217,0.036301111
0.05368021,0.010464257,0.219313478,0.036322645
0.053641317,0.010465786,0.219353717,0.036344146
0.053602445,0.010467293,0.219394934,0.036365608
0.053563594,0.010468777,0.219437128,0.03638703
0.053524768,0.010470241,0.219480296,0.036408408
0.053485968,0.010471683,0.219524438,0.036429739
0.053447196,0.010473105,0.219569553,0.03645102
0.053408455,0.010474506,0.219615639,0.036472248
0.053369746,0.010475888,0.219662697,0.03649342
0.053331071,0.01047725,0.219710727,0.036514534
0.053292433,0.010478592,0.219759729,0.036535586
0.053253832,0.010479916,0.219809702,0.036556574
0.053215271,0.01048122,0.219860646,0.036577495
0.053176751,0.010482505,0.219912562,0.036598348
0.053138273,0.010483772,0.21996545,0.036619129
0.05309984,0.010485021,0.220019309,0.036639835
0.053061453,0.010486251,0.22007414,0.036660464
0.053023113,0.010487463,0.220129943,0.036681013
0.052984823,0.010488657,0.220186717,0.036701479
0.052946582,0.010489834,0.220244463,0.036721858
0.052908394,0.010490993,0.220303179,0.036742149
0.05287026,0.010492136,0.220362864,0.036762347
0.052832181,0.010493261,0.220423517,0.036782452
0.052794158,0.010494371,0.220485135,0.036802459
0.052756193,0.010495464,0.220547718,0.036822367
0.052718289,0.01049654,0.220611265,0.036842172
0.052680445,0.0104976,0.220675773,0.036861872
0.052642663,0.010498645,0.220741241,0.036881465
0.052604946,0.010499672,0.220807667,0.036900948
0.052567294,0.010500684,0.220875049,0.036920319
0.052529708,0.01050168,0.220943385,0.036939575
0.052492191,0.01050266,0.221012672,0.036958714
0.052454743,0.010503623,0.221082909,0.036977733
0.052417365,0.01050457,0.221154095,0.036996629
0.05238006,0.010505501,0.221226231,0.0370154
0.052342828,0.010506416,0.221299313,0.037034041
0.052305672,0.010507314,0.221373343,0.037052551
0.052268593,0.010508195,0.221448319,0.037070927
0.052231592,0.01050906,0.221524242,0.037089168
0.052194672,0.010509908,0.221601111,0.037107271
0.052157834,0.01051074,0.221678926,0.037125235
0.052121081,0.010511555,0.221757687,0.037143058
0.052084412,0.010512354,0.221837392,0.037160738
0.052047832,0.010513135,0.221918042,0.037178273
0.05201134,0.0105139,0.221999634,0.037195662
0.051974939,0.010514647,0.222082167,0.037212903
0.051938631,0.010515377,0.22216564,0.037229994
0.051902417,0.01051609,0.222250051,0.037246935
0.051866298,0.010516784,0.222335398,0.037263723
0.051830277,0.010517461,0.222421678,0.037280358
0.051794354,0.01051812,0.22250889,0.037296838
0.051758531,0.010518761,0.222597029,0.03731316
0.05172281,0.010519385,0.222686092,0.037329324
0.051687192,0.010519991,0.222776077,0.037345326
0.051651678,0.01052058,0.222866977,0.037361166
0.051616269,0.010521152,0.22295879,0.037376841
0.051580967,0.010521708,0.22305151,0.037392347
0.051545774,0.010522248,0.223145133,0.037407685
0.051510689,0.010522772,0.223239652,0.037422851
0.051475716,0.01052328,0.223335062,0.037437843
0.051440853,0.010523772,0.223431357,0.037452661
0.051406104,0.010524249,0.22352853,0.037467303
0.051371468,0.01052471,0.223626575,0.037481767
0.051336947,0.010525156,0.223725483,0.037496052
0.051302542,0.010525586,0.223825248,0.037510157
0.051268252,0.010526001,0.223925862,0.037524082
0.051234081,0.0105264,0.224027316,0.037537823
0.051200027,0.010526784,0.224129602,0.037551381
0.051166091,0.010527153,0.224232712,0.037564754
0.051132275,0.010527505,0.224336636,0.03757794
0.051098578,0.010527842,0.224441365,0.037590938
0.051065002,0.010528162,0.224546888,0.037603747
0.051031548,0.010528466,0.224653197,0.037616365
0.050998216,0.010528753,0.22476028,0.037628793
0.050965007,0.010529023,0.224868128,0.037641029
0.050931923,0.010529276,0.224976729,0.037653073
0.050898966,0.010529512,0.225086073,0.037664925
0.050866136,0.01052973,0.225196148,0.037676584
0.050833435,0.01052993,0.225306942,0.037688048
0.050800866,0.010530111,0.225418444,0.037699318
0.050768428,0.010530274,0.225530643,0.037710392
0.050736125,0.010530419,0.225643526,0.037721269
0.050703957,0.010530546,0.225757081,0.037731949
0.050671927,0.010530654,0.225871295,0.037742432
0.050640035,0.010530743,0.225986156,0.037752717
0.050608283,0.010530815,0.226101652,0.037762803
0.050576672,0.010530868,0.226217771,0.037772689
0.050545204,0.010530902,0.226334499,0.037782376
0.050513879,0.010530919,0.226451824,0.037791861
0.050482701,0.010530917,0.226569734,0.037801144
0.050451669,0.010530896,0.226688214,0.037810223
0.050420785,0.010530858,0.226807253,0.037819097
0.050390052,0.0105308,0.226926837,0.037827765
0.05035947,0.010530725,0.227046952,0.037836226
0.050329041,0.01053063,0.227167586,0.037844478
0.050298767,0.010530517,0.227288723,0.037852521
0.05026865,0.010530384,0.227410351,0.037860355
0.050238689,0.010530231,0.227532455,0.037867979
0.050208888,0.010530058,0.227655024,0.037875392
0.050179248,0.010529865,0.227778044,0.037882594
0.05014977,0.010529652,0.227901503,0.037889584
0.050120457,0.010529418,0.22802539,0.037896361
0.050091308,0.010529163,0.228149691,0.037902925
0.050062328,0.010528888,0.228274396,0.037909275
0.050033516,0.010528591,0.228399492,0.037915409
0.050004875,0.010528273,0.228524968,0.037921327
0.049976406,0.010527933,0.22865081,0.037927028
0.04994811,0.010527571,0.228777008,0.037932512
0.04991999,0.010527187,0.22890355,0.037937777
0.049892047,0.010526781,0.229030425,0.037942823
0.049864282,0.010526353,0.229157622,0.037947649
0.049836697,0.010525902,0.229285132,0.037952253
0.049809294,0.010525429,0.229412944,0.037956636
0.049782075,0.010524932,0.229541047,0.037960796
0.049755041,0.010524412,0.229669433,0.037964733
0.049728194,0.010523869,0.22979809,0.037968446
0.049701536,0.010523301,0.229927009,0.037971936
0.049675067,0.010522709,0.230056179,0.037975202
0.04964879,0.010522093,0.23018559,0.037978243
0.049622706,0.010521451,0.230315232,0.037981058
0.049596817,0.010520783,0.230445095,0.037983647
0.049571125,0.010520088,0.230575171,0.037986009
0.049545631,0.010519368,0.230705451,0.037988143
0.049520337,0.01051862,0.230835924,0.037990049
0.049495244,0.010517844,0.230966582,0.037991727
0.049470355,0.010517041,0.231097418,0.037993175
0.049445671,0.010516209,0.231228421,0.037994393
0.049421193,0.010515349,0.231359585,0.037995382
0.049396923,0.010514459,0.231490901,0.037996141
0.049372862,0.010513538,0.23162236,0.03799667
0.049349012,0.010512587,0.231753955,0.037996969
0.049325374,0.010511605,0.231885677,0.037997038
0.049301948,0.010510592,0.232017519,0.037996875
0.049278737,0.010509547,0.232149472,0.037996482
0.04925574,0.01050847,0.232281527,0.037995856
0.049232959,0.010507362,0.232413674,0.037994999
0.049210395,0.010506223,0.232545905,0.037993908
0.049188048,0.010505053,0.23267821,0.037992583
0.04916592,0.010503852,0.232810581,0.037991024
0.049144011,0.01050262,0.232943006,0.03798923
0.049122323,0.010501357,0.233075478,0.037987201
0.049100855,0.010500063,0.233207985,0.037984936
0.049079609,0.010498737,0.233340518,0.037982435
0.049058586,0.01049738,0.233473066,0.037979697
0.049037786,0.01049599,0.233605618,0.037976722
0.049017209,0.010494568,0.233738165,0.037973509
0.048996856,0.010493113,0.233870694,0.037970058
0.048976727,0.010491625,0.234003195,0.037966368
0.048956822,0.010490103,0.234135658,0.037962439
0.048937142,0.010488546,0.234268072,0.03795827
0.048917687,0.010486956,0.234400427,0.037953861
0.048898457,0.010485331,0.234532713,0.037949212
0.048879452,0.010483671,0.234664918,0.03794432
0.048860673,0.010481977,0.234797033,0.037939187
0.048842119,0.010480248,0.234929046,0.03793381
0.048823791,0.010478483,0.235060945,0.03792819
0.04880569,0.010476683,0.23519272,0.037922325
0.048787815,0.010474847,0.235324359,0.037916217
0.048770167,0.010472975,0.23545585,0.037909865
0.048752747,0.010471065,0.235587181,0.037903269
0.048735555,0.010469118,0.235718342,0.03789643
0.048718592,0.010467132,0.235849321,0.037889349
0.048701858,0.010465108,0.235980107,0.037882024
0.048685355,0.010463045,0.236110687,0.037874458
0.048669082,0.010460944,0.236241052,0.037866649
0.04865304,0.010458803,0.236371188,0.037858599
0.048637231,0.010456622,0.236501086,0.037850308
0.048621654,0.010454402,0.236630733,0.037841777
0.048606311,0.010452141,0.236760119,0.037833007
0.048591202,0.010449841,0.236889232,0.037824001
0.048576329,0.010447499,0.237018062,0.03781476
0.04856169,0.010445116,0.237146599,0.037805287
0.048547289,0.010442693,0.237274832,0.037795585
0.048533124,0.010440228,0.237402751,0.037785656
0.048519197,0.010437722,0.237530346,0.037775501
0.048505509,0.010435174,0.237657608,0.037765124
0.048492061,0.010432584,0.237784526,0.037754525
0.048478852,0.010429952,0.237911092,0.037743706
0.048465885,0.010427277,0.238037297,0.03773267
0.048453159,0.01042456,0.238163133,0.037721416
0.048440678,0.010421801,0.23828859,0.037709948
0.048428441,0.010418999,0.238413661,0.037698265
0.04841645,0.010416156,0.238538337,0.037686371
0.048404707,0.01041327,0.238662609,0.037674266
0.048393212,0.010410343,0.238786469,0.037661953
0.048381967,0.010407374,0.238909908,0.037649433
0.048370974,0.010404362,0.239032916,0.037636707
0.048360233,0.010401309,0.239155485,0.037623778
0.048349746,0.010398213,0.239277604,0.037610647
0.048339513,0.010395075,0.239399265,0.037597316
0.048329535,0.010391895,0.239520458,0.037583787
0.048319814,0.010388673,0.239641173,0.03757006
0.048310349,0.010385408,0.2397614,0.037556138
0.048301142,0.010382102,0.239881129,0.037542022
0.048292193,0.010378754,0.240000351,0.037527714
0.048283504,0.010375363,0.240119055,0.037513215
0.048275075,0.010371931,0.24023723,0.037498527
0.048266907,0.010368455,0.240354866,0.03748365
0.048259,0.010364938,0.240471953,0.037468587
0.048251354,0.010361377,0.24058848,0.037453338
0.04824397,0.010357773,0.240704437,0.037437906
0.048236849,0.010354126,0.240819812,0.03742229
0.048229989,0.010350435,0.240934596,0.037406493
0.048223392,0.010346701,0.241048776,0.037390516
0.048217057,0.010342924,0.241162342,0.037374359
0.048210985,0.010339102,0.241275284,0.037358024
0.048205174,0.010335238,0.24138759,0.037341511
0.048199626,0.010331329,0.241499252,0.03732482
0.048194341,0.010327378,0.241610258,0.037307952
0.048189319,0.010323384,0.2417206,0.037290907
0.048184559,0.010319347,0.241830265,0.037273685
0.048180062,0.010315268,0.241939246,0.037256289
0.048175827,0.010311146,0.242047532,0.037238717
0.048171854,0.010306984,0.242155114,0.037220974
0.048168143,0.01030278,0.242261981,0.03720306
0.048164694,0.010298535,0.242368123,0.037184978
0.048161507,0.010294251,0.242473532,0.03716673
0.048158582,0.010289927,0.242578197,0.037148318
0.048155917,0.010285565,0.242682111,0.037129746
0.048153514,0.010281165,0.242785266,0.037111016
0.04815137,0.010276728,0.242887653,0.037092131
0.048149487,0.010272255,0.242989266,0.037073094
0.048147864,0.010267747,0.243090095,0.037053909
0.0481465,0.010263204,0.243190133,0.037034577
0.048145397,0.010258628,0.243289371,0.037015102
0.048144552,0.010254019,0.243387801,0.036995487
0.048143967,0.010249378,0.243485416,0.036975734
0.048143642,0.010244707,0.243582208,0.036955848
0.048143575,0.010240005,0.24367817,0.03693583
0.048143766,0.010235275,0.243773296,0.036915683
0.048144215,0.010230518,0.243867579,0.036895412
0.048144921,0.010225733,0.243961012,0.036875017
0.048145883,0.010220922,0.244053589,0.036854503
0.0481471,0.010216087,0.244145304,0.036833872
0.048148572,0.010211227,0.244236149,0.036813127
0.048150298,0.010206343,0.244326118,0.036792271
0.048152275,0.010201437,0.244415204,0.036771306
0.048154504,0.010196508,0.2445034,0.036750234
0.048156982,0.010191559,0.244590699,0.036729058
0.048159709,0.010186588,0.244677094,0.03670778
0.048162682,0.010181598,0.244762577,0.036686402
0.048165901,0.010176587,0.244847142,0.036664927
0.048169364,0.010171558,0.244930782,0.036643357
0.04817307,0.01016651,0.24501349,0.036621694
0.048177018,0.010161443,0.245095261,0.036599941
0.048181208,0.010156358,0.245176092,0.036578098
0.048185638,0.010151256,0.24525598,0.036556168
0.048190309,0.010146136,0.245334924,0.036534153
0.048195221,0.010140999,0.245412923,0.036512055
0.048200372,0.010135846,0.245489981,0.036489876
0.048205763,0.010130678,0.245566101,0.036467619
0.048211394,0.010125495,0.245641289,0.036445284
0.048217265,0.010120298,0.245715552,0.036422875
0.048223375,0.010115088,0.245788895,0.036400392
0.048229726,0.010109865,0.245861324,0.036377837
0.048236316,0.01010463,0.245932847,0.036355212
0.048243146,0.010099384,0.246003471,0.036332517
0.048250215,0.010094127,0.246073203,0.036309755
0.048257522,0.010088862,0.24614205,0.036286926
0.048265069,0.010083587,0.24621002,0.036264032
0.048272854,0.010078305,0.246277122,0.036241073
0.048280877,0.010073016,0.246343362,0.03621805
0.048289137,0.010067721,0.246408749,0.036194963
0.048297634,0.010062422,0.246473291,0.036171815
0.048306367,0.010057119,0.246536995,0.036148603
0.048315335,0.010051815,0.246599869,0.036125329
0.048324538,0.010046511,0.246661923,0.036101994
0.048333974,0.010041207,0.246723162,0.036078597
0.048343643,0.010035906,0.246783596,0.036055139
0.048353544,0.010030609,0.246843232,0.03603162
0.048363676,0.010025316,0.246902077,0.036008042
0.048374037,0.010020028,0.246960139,0.035984406
0.048384628,0.010014748,0.247017423,0.035960712
0.048395446,0.010009475,0.247073938,0.035936961
0.048406491,0.010004211,0.247129689,0.035913155
0.048417761,0.009998956,0.247184681,0.035889295
0.048429256,0.009993712,0.247238921,0.035865381
0.048440975,0.009988479,0.247292412,0.035841415
0.048452915,0.009983257,0.247345161,0.035817397
0.048465077,0.009978048,0.24739717,0.035793328
0.048477458,0.009972852,0.247448444,0.035769208
0.048490058,0.009967669,0.247498986,0.035745039
0.048502875,0.0099625,0.2475488,0.03572082
0.048515908,0.009957345,0.247597888,0.035696553
0.048529155,0.009952203,0.247646252,0.035672239
0.048542615,0.009947076,0.247693896,0.035647878
0.048556286,0.009941964,0.247740819,0.035623471
0.048570168,0.009936867,0.247787024,0.035599019
0.048584257,0.009931784,0.247832512,0.035574523
0.048598553,0.009926717,0.247877283,0.035549983
0.048613055,0.009921666,0.247921338,0.035525401
0.04862776,0.009916631,0.247964676,0.035500775
0.048642667,0.009911613,0.248007298,0.035476107
0.048657775,0.009906611,0.248049201,0.035451397
0.048673081,0.009901626,0.248090387,0.035426644
0.048688585,0.009896659,0.248130852,0.035401848
0.048704285,0.009891708,0.248170598,0.03537701
0.048720179,0.009886776,0.248209624,0.035352128
0.048736264,0.009881861,0.248247931,0.035327203
0.04875254,0.009876964,0.24828552,0.035302235
0.048769004,0.009872086,0.248322391,0.035277224
0.048785655,0.009867227,0.248358549,0.035252169
0.048802491,0.009862387,0.248393994,0.035227073
0.04881951,0.009857567,0.248428731,0.035201936
0.048836711,0.009852767,0.248462764,0.03517676
0.048854092,0.009847987,0.248496098,0.035151547
0.048871652,0.009843228,0.24852874,0.0351263
0.04888939,0.00983849,0.248560698,0.03510102
0.048907307,0.009833773,0.248591982,0.035075711
0.048925401,0.009829077,0.248622604,0.035050374
0.048943673,0.009824402,0.24865258,0.035025012
0.048962123,0.009819749,0.248681925,0.034999628
0.04898075,0.009815118,0.248710653,0.034974223
0.048999554,0.009810509,0.248738781,0.034948798
0.049018535,0.009805922,0.248766324,0.034923356
0.049037693,0.009801358,0.248793296,0.034897899
0.049057027,0.009796816,0.248819715,0.034872426
0.049076536,0.009792298,0.248845596,0.034846939
0.04909622,0.009787804,0.248870955,0.03482144
0.049116077,0.009783333,0.248895809,0.034795929
0.049136107,0.009778886,0.248920174,0.034770407
0.049156309,0.009774464,0.248944067,0.034744874
0.049176682,0.009770067,0.248967503,0.034719331
0.049197224,0.009765694,0.248990498,0.034693778
0.049217935,0.009761347,0.249013067,0.034668215
0.049238812,0.009757026,0.249035225,0.034642643
0.049259856,0.00975273,0.249056987,0.034617061
0.049281063,0.00974846,0.249078367,0.03459147
0.049302433,0.009744216,0.249099378,0.034565869
0.049323963,0.009739999,0.249120034,0.03454026
0.049345652,0.009735808,0.249140347,0.034514641
0.049367499,0.009731644,0.249160328,0.034489013
0.0493895,0.009727507,0.24917999,0.034463377
0.049411654,0.009723397,0.249199343,0.034437732
0.049433959,0.009719314,0.249218398,0.034412078
0.049456412,0.009715259,0.249237164,0.034386415
0.049479012,0.00971123,0.24925565,0.034360743
0.049501755,0.009707229,0.249273866,0.034335063
0.049524639,0.009703255,0.249291818,0.034309373
0.049547661,0.009699308,0.249309515,0.034283676
0.049570819,0.009695388,0.249326964,0.034257969
0.049594111,0.009691495,0.24934417,0.034232255
0.049617532,0.00968763,0.249361141,0.034206532
0.049641081,0.009683792,0.249377881,0.034180802
0.049664755,0.009679981,0.249394395,0.034155065
0.049688549,0.009676197,0.249410688,0.034129321
0.049712463,0.00967244,0.249426763,0.03410357
0.049736491,0.00966871,0.249442625,0.034077813
0.049760632,0.009665008,0.249458276,0.03405205
0.049784882,0.009661332,0.249473718,0.034026281
0.049809237,0.009657683,0.249488955,0.034000505
0.049833695,0.009654059,0.249503987,0.033974723
0.049858254,0.009650462,0.249518817,0.033948933
0.049882909,0.009646889,0.249533445,0.033923137
0.049907658,0.009643342,0.249547875,0.033897335
0.049932499,0.009639819,0.249562108,0.033871526
0.049957429,0.009636321,0.249576147,0.033845712
0.049982445,0.009632847,0.249589993,0.033819892
0.050007544,0.009629398,0.249603648,0.033794067
0.050032725,0.009625973,0.249617115,0.033768238
0.050057986,0.009622575,0.249630395,0.033742405
0.050083322,0.009619202,0.24964349,0.033716568
0.050108733,0.009615857,0.2496564,0.033690728
0.050134215,0.009612539,0.249669128,0.033664886
0.050159766,0.00960925,0.249681674,0.033639041
0.050185383,0.00960599,0.249694041,0.033613195
0.050211065,0.00960276,0.24970623,0.033587348
0.050236808,0.009599561,0.249718242,0.0335615
0.05026261,0.009596392,0.249730081,0.033535652
0.050288468,0.009593256,0.249741748,0.033509804
0.050314381,0.009590151,0.249753247,0.033483958
0.050340345,0.00958708,0.249764582,0.033458114
0.050366357,0.009584041,0.249775757,0.033432273
0.050392415,0.009581036,0.249786775,0.033406437
0.050418516,0.009578066,0.249797641,0.033380606
0.050444658,0.009575129,0.249808358,0.033354781
0.050470837,0.009572228,0.24981893,0.033328964
0.05049705,0.009569362,0.249829363,0.033303155
0.050523295,0.009566531,0.249839659,0.033277355
0.050549568,0.009563737,0.249849823,0.033251566
0.050575866,0.009560978,0.24985986,0.033225788
0.050602186,0.009558255,0.249869771,0.033200021
0.050628526,0.009555569,0.249879562,0.033174267
0.050654881,0.00955292,0.249889235,0.033148524
0.05068125,0.009550306,0.249898792,0.033122795
0.050707628,0.00954773,0.249908236,0.03309708
0.050734012,0.00954519,0.249917569,0.033071378
0.0507604,0.009542687,0.249926792,0.033045691
0.050786787,0.00954022,0.249935908,0.033020018
0.050813171,0.00953779,0.249944917,0.032994361
0.050839548,0.009535397,0.249953819,0.03296872
0.050865915,0.009533041,0.249962614,0.032943094
0.050892267,0.009530722,0.249971303,0.032917485
0.050918603,0.00952844,0.249979884,0.032891892
0.050944917,0.009526195,0.249988357,0.032866316
0.050971207,0.009523986,0.249996719,0.032840758
0.050997469,0.009521813,0.25000497,0.032815217
0.051023699,0.009519676,0.250013106,0.032789694
0.051049893,0.009517574,0.250021125,0.03276419
0.051076048,0.009515507,0.250029025,0.032738703
0.05110216,0.009513476,0.250036801,0.032713236
0.051128227,0.009511479,0.25004445,0.032687788
0.051154244,0.009509517,0.250051969,0.032662359
0.05118021,0.00950759,0.250059354,0.03263695
0.051206121,0.009505698,0.250066601,0.03261156
0.051231974,0.00950384,0.250073707,0.03258619
0.051257766,0.009502018,0.250080671,0.032560841
0.051283495,0.009500231,0.250087489,0.032535512
0.051309157,0.009498479,0.250094159,0.032510204
0.051334748,0.009496762,0.25010068,0.032484918
0.051360267,0.009495081,0.250107051,0.032459653
0.051385711,0.009493434,0.250113269,0.032434411
0.051411075,0.009491823,0.250119336,0.032409189
0.051436359,0.009490248,0.250125255,0.03238399
0.051461559,0.009488707,0.250131029,0.032358813
0.051486674,0.009487201,0.250136662,0.032333659
0.051511702,0.00948573,0.250142157,0.032308527
0.051536642,0.009484293,0.250147518,0.032283418
0.051561492,0.009482891,0.250152751,0.032258332
0.051586253,0.009481523,0.250157857,0.032233267
0.051610922,0.009480188,0.250162842,0.032208224
0.051635499,0.009478887,0.250167709,0.032183203
0.051659983,0.009477619,0.250172461,0.032158202
0.051684375,0.009476385,0.250177102,0.032133222
0.051708673,0.009475182,0.250181634,0.032108261
0.051732877,0.009474012,0.250186061,0.03208332
0.051756987,0.009472874,0.250190385,0.032058399
0.051781004,0.009471766,0.250194609,0.032033499
0.051804928,0.009470689,0.250198736,0.03200862
0.051828759,0.009469641,0.250202767,0.031983765
0.051852496,0.009468623,0.250206707,0.031958936
0.05187614,0.009467633,0.250210557,0.031934134
0.05189969,0.00946667,0.250214321,0.03190936
0.051923147,0.009465735,0.250218002,0.031884617
0.051946511,0.009464826,0.2502216,0.031859905
0.05196978,0.009463942,0.250225119,0.031835227
0.051992956,0.009463083,0.250228559,0.031810583
0.052016037,0.009462249,0.250231923,0.031785973
0.052039024,0.009461438,0.250235211,0.0317614
0.052061916,0.00946065,0.250238424,0.031736862
0.052084713,0.009459884,0.250241563,0.031712362
0.052107415,0.00945914,0.250244627,0.031687899
0.052130021,0.009458416,0.250247617,0.031663473
0.052152531,0.009457712,0.250250532,0.031639085
0.052174944,0.009457027,0.25025337,0.031614734
0.05219726,0.009456362,0.250256131,0.031590421
0.052219477,0.009455714,0.250258813,0.031566145
0.052241596,0.009455084,0.250261414,0.031541907
0.052263616,0.009454472,0.250263931,0.031517705
0.052285535,0.009453877,0.250266362,0.031493541
0.052307353,0.009453299,0.250268703,0.031469414
0.052329069,0.009452737,0.250270951,0.031445324
0.052350683,0.009452193,0.250273103,0.031421271
0.052372194,0.009451665,0.250275157,0.031397254
0.0523936,0.009451155,0.25027711,0.031373274
0.052414902,0.009450661,0.250278957,0.031349329
0.052436099,0.009450183,0.250280698,0.031325419
0.05245719,0.009449722,0.250282328,0.031301543
0.052478175,0.009449277,0.250283846,0.0312777
0.052499054,0.009448849,0.250285249,0.031253891
0.052519825,0.009448436,0.250286534,0.031230114
0.052540489,0.00944804,0.250287699,0.031206369
0.052561044,0.009447659,0.250288741,0.031182655
0.05258149,0.009447293,0.250289656,0.031158974
0.052601828,0.009446942,0.250290443,0.031135323
0.052622056,0.009446606,0.250291096,0.031111704
0.052642174,0.009446284,0.250291613,0.031088117
0.052662183,0.009445976,0.250291992,0.031064562
0.052682082,0.009445681,0.250292228,0.031041039
0.05270187,0.009445398,0.25029232,0.031017548
0.052721547,0.009445129,0.250292263,0.030994089
0.052741113,0.009444871,0.250292054,0.030970662
0.052760568,0.009444626,0.250291692,0.030947267
0.052779912,0.009444393,0.250291171,0.030923904
0.052799143,0.009444171,0.25029049,0.030900572
0.052818263,0.009443962,0.250289646,0.030877271
0.05283727,0.009443763,0.250288635,0.030854002
0.052856165,0.009443575,0.250287455,0.030830764
0.052874947,0.009443398,0.250286103,0.030807557
0.052893616,0.00944323,0.250284577,0.030784383
0.052912172,0.009443072,0.250282874,0.03076124
0.052930615,0.009442923,0.250280991,0.030738128
0.052948945,0.009442783,0.250278926,0.030715049
0.052967162,0.009442651,0.250276676,0.030692003
0.052985265,0.009442527,0.250274238,0.030668988
0.053003255,0.009442411,0.250271607,0.030646006
0.053021132,0.009442303,0.250268781,0.030623057
0.053038896,0.009442203,0.250265756,0.03060014
0.053056546,0.009442111,0.250262526,0.030577257
0.053074082,0.009442027,0.250259088,0.030554406
0.053091504,0.00944195,0.250255437,0.030531588
0.053108811,0.009441881,0.250251568,0.030508802
0.053126003,0.00944182,0.250247475,0.03048605
0.053143079,0.009441765,0.250243153,0.03046333
0.053160039,0.009441718,0.250238597,0.030440642
0.053176882,0.009441678,0.250233799,0.030417986
0.053193606,0.009441644,0.250228754,0.030395363
0.053210211,0.009441617,0.250223455,0.030372771
0.053226695,0.009441595,0.250217894,0.030350212
0.053243059,0.009441578,0.250212066,0.030327686
0.053259301,0.009441566,0.250205962,0.030305195
0.053275421,0.009441559,0.250199575,0.030282738
0.053291418,0.009441556,0.250192897,0.030260316
0.053307291,0.009441557,0.250185921,0.030237932
0.053323041,0.009441561,0.250178639,0.030215584
0.053338667,0.00944157,0.250171043,0.030193275
0.053354169,0.009441582,0.250163124,0.030171006
0.053369547,0.009441597,0.250154874,0.030148779
0.053384799,0.009441615,0.250146284,0.030126594
0.053399927,0.009441637,0.250137346,0.030104454
0.053414929,0.009441661,0.25012805,0.03008236
0.053429805,0.009441689,0.250118389,0.030060314
0.053444556,0.009441718,0.250108353,0.030038316
0.05345918,0.00944175,0.250097935,0.030016368
0.053473679,0.009441784,0.250087129,0.029994471
0.053488051,0.00944182,0.250075926,0.029972626
0.053502297,0.009441859,0.250064322,0.029950834
0.053516417,0.009441899,0.250052308,0.029929097
0.05353041,0.009441941,0.250039879,0.029907416
0.053544277,0.009441985,0.25002703,0.029885793
0.053558018,0.009442031,0.250013755,0.029864228
0.053571635,0.009442079,0.250000051,0.029842722
0.053585128,0.009442128,0.249985916,0.029821277
0.053598499,0.009442178,0.249971347,0.029799893
0.053611749,0.009442231,0.249956343,0.029778571
0.053624881,0.009442285,0.249940902,0.029757312
0.053637896,0.009442341,0.249925024,0.029736116
0.053650796,0.0094424,0.249908708,0.029714984
0.053663585,0.00944246,0.249891952,0.029693918
0.053676264,0.009442523,0.249874756,0.029672917
0.053688837,0.009442588,0.249857119,0.029651982
0.053701306,0.009442655,0.249839041,0.029631116
0.053713674,0.009442724,0.249820522,0.029610319
0.053725943,0.009442796,0.249801561,0.029589594
0.053738116,0.00944287,0.24978216,0.029568944
0.053750196,0.009442947,0.249762319,0.02954837
0.053762185,0.009443026,0.249742039,0.029527877
0.053774086,0.009443108,0.249721322,0.029507465
0.053785901,0.009443194,0.24970017,0.029487138
0.053797632,0.009443283,0.249678587,0.029466898
0.053809284,0.009443375,0.249656576,0.029446746
0.053820856,0.00944347,0.249634141,0.029426686
0.053832353,0.009443569,0.249611287,0.029406719
0.053843775,0.00944367,0.249588021,0.029386848
0.053855125,0.009443775,0.249564348,0.029367074
0.053866407,0.009443883,0.249540276,0.0293474
0.053877621,0.009443995,0.249515812,0.029327826
0.053888771,0.009444109,0.249490968,0.029308355
0.05389986,0.009444226,0.249465754,0.029288987
0.053910889,0.009444347,0.249440179,0.029269724
0.053921861,0.009444471,0.249414254,0.029250567
0.053932778,0.009444599,0.24938799,0.029231518
0.053943641,0.009444732,0.249361396,0.029212578
0.053954453,0.009444868,0.249334483,0.029193748
0.053965215,0.009445009,0.24930726,0.02917503
0.053975929,0.009445155,0.249279737,0.029156423
0.053986596,0.009445304,0.249251923,0.02913793
0.053997218,0.009445458,0.249223827,0.029119551
0.054007795,0.009445617,0.249195457,0.029101286
0.054018328,0.009445779,0.249166821,0.029083137
0.054028819,0.009445946,0.249137927,0.029065104
0.054039268,0.009446117,0.249108782,0.029047187
0.054049675,0.009446292,0.249079394,0.029029388
0.054060042,0.009446471,0.249049769,0.029011706
0.054070369,0.009446655,0.249019914,0.028994143
0.054080656,0.009446843,0.248989833,0.028976697
0.054090903,0.009447036,0.248959534,0.02895937
0.054101111,0.009447233,0.248929019,0.02894216
0.05411128,0.009447436,0.248898296,0.028925067
0.05412141,0.009447643,0.248867366,0.028908092
0.054131501,0.009447856,0.248836235,0.028891233
0.054141552,0.009448075,0.248804905,0.02887449
0.054151565,0.009448299,0.24877338,0.028857864
0.054161537,0.009448529,0.248741663,0.028841353
0.05417147,0.009448765,0.248709756,0.028824959
0.054181363,0.009449006,0.248677661,0.028808682
0.054191215,0.009449255,0.248645379,0.028792524
0.054201025,0.00944951,0.248612913,0.028776486
0.054210794,0.009449771,0.248580264,0.02876057
0.05422052,0.00945004,0.248547432,0.028744776
0.054230204,0.009450317,0.248514419,0.028729106
0.054239843,0.009450601,0.248481224,0.02871356
0.054249439,0.009450893,0.248447849,0.028698142
0.054258989,0.009451194,0.248414293,0.028682852
0.054268495,0.009451504,0.248380559,0.028667693
0.054277954,0.009451822,0.248346648,0.028652667
0.054287367,0.00945215,0.248312562,0.028637776
0.054296734,0.009452488,0.248278302,0.028623023
0.054306053,0.009452835,0.248243872,0.02860841
0.054315324,0.009453192,0.248209276,0.028593941
0.054324548,0.009453559,0.248174517,0.028579617
0.054333724,0.009453936,0.248139601,0.028565443
0.054342852,0.009454322,0.248104529,0.028551421
0.054351932,0.009454718,0.248069305,0.028537555
0.054360964,0.009455123,0.248033933,0.028523848
0.054369949,0.009455537,0.247998415,0.028510305
0.054378888,0.009455961,0.247962757,0.028496929
0.05438778,0.009456394,0.24792696,0.028483724
0.054396626,0.009456837,0.247891028,0.028470692
0.054405428,0.009457289,0.247854965,0.028457837
0.054414186,0.00945775,0.247818774,0.028445161
0.0544229,0.009458221,0.247782457,0.028432668
0.054431572,0.009458703,0.247746016,0.02842036
0.054440201,0.009459194,0.247709456,0.02840824
0.054448789,0.009459696,0.247672777,0.028396311
0.054457336,0.009460208,0.247635983,0.028384575
0.054465842,0.009460731,0.247599076,0.028373035
0.054474308,0.009461264,0.247562059,0.028361693
0.054482734,0.009461808,0.247524934,0.028350553
0.054491119,0.009462363,0.247487704,0.028339616
0.054499465,0.009462929,0.24745037,0.028328884
0.054507771,0.009463507,0.247412936,0.02831836
0.054516036,0.009464097,0.247375401,0.028308045
0.054524262,0.0094647,0.24733777,0.02829794
0.054532447,0.009465314,0.247300041,0.028288047
0.054540592,0.009465941,0.247262219,0.028278367
0.054548698,0.009466581,0.247224302,0.028268901
0.054556763,0.009467233,0.247186294,0.028259652
0.054564789,0.009467897,0.247148194,0.028250619
0.054572774,0.009468574,0.247110003,0.028241805
0.05458072,0.009469264,0.247071721,0.02823321
0.054588625,0.009469965,0.247033349,0.028224836
0.054596491,0.00947068,0.246994888,0.028216684
0.054604317,0.009471407,0.246956335,0.028208756
0.054612102,0.009472146,0.246917691,0.028201053
0.054619848,0.009472898,0.246878955,0.028193575
0.054627553,0.009473661,0.246840124,0.028186325
0.054635218,0.009474437,0.246801199,0.028179304
0.054642842,0.009475225,0.246762175,0.028172513
0.054650425,0.009476025,0.246723053,0.028165952
0.054657967,0.009476836,0.246683828,0.028159622
0.054665468,0.009477658,0.2466445,0.028153523
0.054672926,0.009478491,0.246605067,0.028147656
0.054680342,0.009479336,0.246565528,0.028142021
0.054687715,0.00948019,0.246525883,0.028136618
0.054695045,0.009481056,0.246486133,0.028131449
0.054702331,0.009481931,0.246446278,0.028126513
0.054709574,0.009482817,0.246406321,0.02812181
0.054716773,0.009483713,0.246366267,0.028117342
0.054723928,0.009484619,0.246326121,0.028113109
0.05473104,0.009485535,0.246285889,0.028109113
0.054738108,0.009486462,0.246245577,0.028105352
0.054745131,0.009487398,0.24620519,0.028101828
0.05475211,0.009488345,0.246164734,0.028098542
0.054759045,0.009489301,0.246124214,0.028095493
0.054765935,0.009490266,0.246083634,0.028092683
0.054772781,0.00949124,0.246043002,0.028090113
0.054779581,0.009492224,0.24600232,0.028087783
0.054786336,0.009493216,0.245961597,0.028085694
0.054793044,0.009494216,0.245920835,0.028083848
0.054799706,0.009495224,0.245880042,0.028082243
0.054806322,0.009496239,0.245839222,0.028080882
0.05481289,0.009497263,0.24579838,0.028079764
0.05481941,0.009498293,0.245757521,0.028078889
0.054825882,0.009499331,0.245716651,0.028078257
0.054832306,0.009500377,0.245675772,0.028077868
0.054838681,0.009501429,0.245634891,0.028077722
0.054845007,0.009502488,0.245594011,0.028077817
0.054851285,0.009503555,0.245553134,0.028078154
0.054857513,0.009504628,0.245512266,0.02807873
0.054863692,0.009505707,0.245471409,0.028079545
0.054869822,0.009506793,0.245430566,0.028080599
0.054875904,0.009507884,0.245389741,0.028081889
0.054881937,0.009508981,0.245348936,0.028083414
0.054887922,0.009510083,0.245308154,0.028085175
0.054893859,0.00951119,0.245267397,0.02808717
0.054899748,0.009512302,0.245226668,0.028089399
0.05490559,0.009513418,0.245185968,0.02809186
0.054911385,0.009514539,0.245145301,0.028094554
0.054917134,0.009515663,0.245104668,0.028097479
0.054922836,0.009516792,0.245064071,0.028100635
0.054928492,0.009517925,0.245023511,0.02810402
0.054934102,0.009519061,0.244982988,0.028107634
0.054939666,0.009520201,0.244942504,0.028111475
0.054945185,0.009521344,0.244902059,0.028115541
0.054950659,0.00952249,0.244861652,0.028119833
0.054956087,0.009523638,0.244821284,0.028124348
0.054961469,0.009524788,0.244780954,0.028129086
0.054966807,0.00952594,0.244740663,0.028134046
0.054972098,0.009527094,0.244700409,0.028139227
0.054977344,0.009528248,0.244660192,0.028144626
0.054982544,0.009529403,0.24462001,0.028150243
0.054987698,0.009530558,0.244579864,0.028156077
0.054992804,0.009531713,0.244539752,0.028162126
0.054997864,0.009532867,0.244499672,0.028168389
0.055002875,0.00953402,0.244459624,0.028174863
0.055007838,0.009535171,0.244419606,0.028181547
0.055012752,0.009536321,0.244379616,0.028188439
0.055017618,0.009537468,0.244339653,0.028195536
0.055022433,0.009538614,0.244299715,0.028202837
0.055027199,0.009539757,0.2442598,0.028210339
0.055031913,0.009540898,0.244219908,0.02821804
0.055036577,0.009542038,0.244180036,0.028225937
0.055041188,0.009543175,0.244140184,0.028234029
0.055045747,0.009544309,0.244100349,0.028242312
0.055050253,0.009545441,0.244060529,0.028250785
0.055054704,0.00954657,0.244020723,0.028259445
0.0550591,0.009547696,0.243980929,0.02826829
0.05506344,0.009548818,0.243941145,0.028277318
0.055067723,0.009549935,0.243901368,0.028286525
0.055071948,0.009551048,0.243861597,0.028295909
0.055076113,0.009552156,0.24382183,0.028305467
0.055080218,0.00955326,0.243782065,0.028315195
0.055084262,0.009554358,0.243742299,0.02832509
0.055088242,0.00955545,0.243702531,0.028335148
0.055092159,0.009556537,0.243662757,0.028345368
0.05509601,0.009557618,0.243622978,0.028355745
0.055099794,0.009558693,0.243583192,0.028366279
0.055103509,0.009559762,0.243543397,0.028376965
0.055107155,0.009560825,0.243503594,0.028387801
0.05511073,0.009561884,0.243463781,0.028398786
0.055114232,0.009562936,0.243423957,0.028409915
0.05511766,0.009563984,0.24338412,0.028421188
0.055121012,0.009565026,0.24334427,0.028432601
0.055124288,0.009566063,0.243304406,0.028444152
0.055127486,0.009567095,0.243264527,0.028455838
0.055130604,0.009568121,0.243224631,0.028467655
0.055133642,0.009569142,0.243184716,0.0284796
0.055136598,0.009570158,0.243144782,0.028491671
0.05513947,0.009571169,0.243104827,0.028503863
0.055142257,0.009572174,0.243064848,0.028516173
0.055144959,0.009573175,0.243024843,0.028528599
0.055147573,0.009574169,0.24298481,0.028541138
0.055150099,0.009575159,0.242944745,0.028553787
0.055152535,0.009576142,0.242904646,0.028566544
0.055154881,0.00957712,0.24286451,0.028579406
0.055157136,0.009578092,0.242824332,0.02859237
0.055159298,0.009579058,0.242784108,0.028605436
0.055161367,0.009580018,0.242743835,0.028618599
0.055163342,0.009580971,0.242703508,0.028631859
0.055165221,0.009581918,0.242663123,0.028645212
0.055167004,0.009582857,0.242622674,0.028658657
0.05516869,0.009583789,0.242582158,0.02867219
0.055170277,0.009584713,0.242541568,0.028685811
0.055171766,0.009585629,0.242500901,0.028699517
0.055173155,0.009586536,0.242460152,0.028713306
0.055174442,0.009587436,0.242419314,0.028727176
0.055175628,0.009588327,0.242378383,0.028741125
0.05517671,0.009589209,0.242337354,0.028755152
0.055177687,0.009590082,0.24229622,0.028769256
0.055178559,0.009590946,0.242254976,0.028783434
0.055179324,0.009591801,0.242213616,0.028797687
0.055179981,0.009592647,0.242172134,0.028812012
0.055180529,0.009593482,0.242130523,0.028826409
0.055180966,0.009594307,0.242088777,0.028840877
0.055181292,0.009595121,0.24204689,0.028855415
0.055181504,0.009595924,0.242004856,0.028870022
0.055181602,0.009596715,0.24196267,0.028884698
0.055181585,0.009597494,0.241920327,0.028899441
0.055181452,0.00959826,0.241877822,0.02891425
0.055181201,0.009599013,0.241835152,0.028929124
0.055180833,0.009599753,0.241792314,0.028944062
0.055180346,0.009600478,0.241749306,0.028959062
0.055179739,0.00960119,0.241706124,0.028974122
0.055179011,0.009601888,0.241662766,0.028989239
0.055178162,0.009602571,0.24161923,0.029004413
0.05517719,0.00960324,0.241575514,0.02901964
0.055176095,0.009603894,0.241531614,0.02903492
0.055174874,0.009604533,0.241487529,0.029050249
0.055173529,0.009605156,0.241443256,0.029065626
0.055172056,0.009605765,0.241398793,0.029081049
0.055170455,0.009606358,0.241354137,0.029096516
0.055168725,0.009606935,0.241309284,0.029112026
0.055166865,0.009607497,0.241264232,0.029127575
0.055164872,0.009608042,0.241218978,0.029143162
0.055162745,0.009608572,0.241173517,0.029158785
0.055160484,0.009609085,0.241127846,0.029174442
0.055158087,0.009609582,0.241081963,0.02919013
0.055155553,0.009610063,0.241035866,0.029205848
0.055152879,0.009610526,0.24098955,0.029221593
0.055150066,0.009610971,0.240943016,0.029237363
0.055147111,0.009611398,0.24089626,0.029253158
0.055144013,0.009611807,0.240849282,0.029268976
0.05514077,0.009612195,0.240802081,0.029284815
0.055137383,0.009612564,0.240754657,0.029300675
0.055133848,0.009612911,0.24070701,0.029316554
0.055130165,0.009613237,0.240659138,0.029332451
0.055126333,0.009613539,0.240611041,0.029348365
0.055122349,0.009613818,0.240562719,0.029364295
0.055118213,0.009614073,0.24051417,0.029380241
0.055113922,0.009614305,0.240465395,0.0293962
0.055109475,0.009614512,0.240416391,0.029412172
0.055104871,0.009614696,0.240367158,0.029428156
0.055100109,0.009614855,0.240317695,0.02944415
0.055095187,0.009614991,0.240268001,0.029460153
0.055090104,0.009615104,0.240218075,0.029476164
0.055084859,0.009615193,0.240167915,0.02949218
0.05507945,0.009615257,0.240117519,0.029508201
0.055073878,0.009615298,0.240066886,0.029524223
0.05506814,0.009615315,0.240016015,0.029540246
0.055062236,0.009615307,0.239964902,0.029556268
0.055056164,0.009615275,0.239913547,0.029572287
0.055049924,0.009615218,0.239861946,0.029588302
0.055043514,0.009615136,0.239810098,0.029604309
0.055036934,0.00961503,0.239758001,0.029620306
0.055030182,0.009614899,0.239705653,0.029636292
0.055023258,0.009614743,0.239653053,0.029652264
0.055016161,0.009614563,0.239600201,0.029668219
0.05500889,0.009614357,0.239547095,0.029684156
0.055001444,0.009614126,0.239493734,0.02970007
0.054993823,0.00961387,0.239440116,0.029715961
0.054986025,0.009613589,0.239386241,0.029731826
0.05497805,0.009613284,0.239332108,0.029747663
0.054969898,0.009612953,0.239277713,0.029763469
0.054961568,0.009612598,0.239223057,0.029779242
0.054953059,0.009612219,0.239168138,0.029794979
0.05494437,0.009611814,0.239112956,0.029810678
0.054935501,0.009611385,0.239057509,0.029826336
0.054926451,0.009610931,0.239001798,0.029841951
0.054917219,0.009610452,0.238945822,0.029857519
0.054907804,0.009609948,0.238889582,0.029873038
0.054898206,0.009609418,0.238833079,0.029888506
0.054888424,0.009608862,0.23877631,0.02990392
0.054878456,0.009608281,0.238719278,0.029919276
0.054868302,0.009607673,0.23866198,0.029934574
0.054857962,0.009607038,0.238604416,0.029949809
0.054847433,0.009606375,0.238546587,0.029964981
0.054836715,0.009605686,0.23848849,0.029980085
0.054825807,0.009604969,0.238430126,0.02999512
0.054814708,0.009604226,0.238371492,0.030010083
0.054803417,0.009603455,0.238312589,0.030024971
0.054791934,0.009602657,0.238253415,0.030039782
0.054780258,0.009601833,0.238193969,0.030054512
0.054768388,0.009600983,0.238134251,0.030069159
0.054756325,0.009600107,0.23807426,0.030083721
0.054744069,0.009599205,0.238013997,0.030098194
0.05473162,0.009598278,0.237953461,0.030112576
0.054718979,0.009597326,0.237892651,0.030126865
0.054706147,0.00959635,0.237831568,0.03014106
0.054693125,0.00959535,0.237770211,0.030155158
0.054679915,0.009594326,0.237708579,0.030169157
0.054666517,0.009593279,0.237646673,0.030183056
0.054652933,0.009592208,0.237584492,0.030196851
0.054639166,0.009591113,0.237522034,0.030210541
0.054625215,0.009589995,0.237459299,0.030224124
0.054611085,0.009588854,0.237396285,0.030237595
0.054596777,0.00958769,0.23733299,0.030250955
0.054582294,0.009586503,0.237269414,0.0302642
0.054567637,0.009585294,0.237205554,0.030277329
0.054552809,0.009584063,0.237141409,0.030290339
0.054537812,0.009582809,0.237076975,0.030303229
0.054522648,0.009581534,0.237012251,0.030315995
0.054507321,0.009580237,0.236947235,0.030328636
0.054491832,0.00957892,0.236881923,0.03034115
0.054476185,0.009577583,0.236816313,0.030353533
0.05446038,0.009576227,0.236750403,0.030365785
0.054444421,0.009574853,0.23668419,0.030377904
0.054428311,0.009573461,0.236617669,0.030389889
0.054412051,0.009572052,0.236550839,0.030401737
0.054395645,0.009570627,0.236483696,0.030413448
0.054379094,0.009569186,0.236416236,0.03042502
0.054362401,0.00956773,0.236348457,0.03043645
0.054345569,0.009566259,0.236280353,0.030447737
0.0543286,0.009564773,0.236211922,0.03045888
0.054311497,0.009563273,0.236143162,0.030469875
0.054294261,0.009561758,0.236074069,0.030480722
0.054276896,0.00956023,0.236004642,0.030491418
0.054259404,0.009558688,0.235934878,0.030501963
0.054241788,0.009557132,0.235864775,0.030512354
0.054224051,0.009555562,0.235794332,0.030522591
0.054206193,0.009553978,0.235723548,0.030532672
0.05418822,0.009552379,0.235652423,0.030542596
0.054170131,0.009550767,0.235580957,0.030552361
0.054151931,0.00954914,0.235509152,0.030561968
0.05413362,0.009547498,0.23543701,0.030571413
0.054115201,0.009545842,0.235364533,0.030580697
0.054096676,0.009544171,0.235291722,0.030589818
0.054078047,0.009542486,0.235218582,0.030598775
0.054059316,0.009540787,0.235145116,0.030607567
0.054040485,0.009539075,0.235071327,0.030616191
0.054021555,0.00953735,0.234997218,0.030624648
0.054002529,0.009535615,0.234922793,0.030632936
0.053983409,0.009533869,0.234848054,0.030641054
0.053964195,0.009532113,0.234773006,0.030649002
0.053944891,0.009530348,0.23469765,0.030656779
0.053925498,0.009528574,0.234621989,0.030664384
0.053906018,0.009526792,0.234546025,0.030671817
0.053886451,0.009525003,0.234469763,0.030679079
0.0538668,0.009523207,0.234393203,0.030686168
0.053847065,0.009521404,0.234316349,0.030693083
0.053827249,0.009519595,0.234239203,0.030699825
0.053807352,0.00951778,0.234161767,0.030706393
0.053787376,0.00951596,0.234084043,0.030712784
0.053767321,0.009514136,0.234006033,0.030718999
0.053747188,0.009512306,0.233927739,0.030725036
0.053726979,0.009510473,0.233849161,0.030730893
0.053706694,0.009508636,0.233770302,0.030736569
0.053686334,0.009506796,0.23369116,0.030742063
0.0536659,0.009504954,0.233611739,0.030747373
0.053645392,0.009503109,0.233532037,0.030752498
0.053624811,0.009501263,0.233452056,0.030757439
0.053604157,0.009499416,0.233371796,0.030762192
0.05358343,0.009497567,0.233291257,0.030766759
0.053562631,0.009495717,0.233210438,0.030771138
0.05354176,0.009493867,0.233129339,0.030775328
0.053520816,0.009492017,0.233047961,0.030779329
0.053499801,0.009490167,0.232966303,0.030783138
0.053478714,0.009488318,0.232884365,0.030786755
0.053457555,0.009486469,0.232802149,0.03079018
0.053436325,0.009484622,0.232719653,0.03079341
0.053415023,0.009482775,0.23263688,0.030796446
0.053393649,0.00948093,0.23255383,0.030799287
0.053372205,0.009479086,0.232470504,0.030801931
0.053350689,0.009477243,0.232386903,0.030804379
0.053329102,0.009475402,0.232303028,0.030806629
0.053307445,0.009473562,0.232218879,0.03080868
0.053285716,0.009471725,0.232134459,0.030810534
0.053263917,0.00946989,0.232049768,0.030812187
0.053242047,0.009468057,0.231964807,0.03081364
0.053220106,0.009466226,0.231879577,0.030814891
0.053198094,0.009464398,0.231794079,0.03081594
0.053176011,0.009462572,0.231708315,0.030816784
0.053153857,0.009460748,0.231622285,0.030817423
0.053131631,0.009458926,0.231535989,0.030817855
0.053109335,0.009457105,0.231449429,0.030818078
0.053086966,0.009455287,0.231362607,0.030818091
0.053064527,0.00945347,0.231275525,0.030817893
0.053042015,0.009451655,0.231188183,0.030817482
0.053019432,0.00944984,0.231100584,0.030816859
0.052996778,0.009448027,0.231012729,0.030816022
0.05297405,0.009446214,0.230924621,0.030814972
0.052951251,0.009444402,0.230836263,0.030813708
0.052928378,0.00944259,0.230747655,0.030812231
0.052905433,0.009440779,0.2306588,0.030810539
0.052882414,0.009438969,0.230569699,0.030808632
0.052859321,0.009437158,0.230480355,0.03080651
0.052836155,0.009435348,0.230390769,0.030804171
0.052812914,0.009433538,0.230300943,0.030801617
0.0527896,0.009431728,0.23021088,0.030798845
0.052766211,0.009429919,0.230120581,0.030795856
0.052742749,0.009428111,0.230030049,0.030792649
0.052719213,0.009426305,0.229939286,0.030789222
0.052695605,0.0094245,0.229848293,0.030785577
0.052671924,0.009422698,0.229757075,0.030781711
0.052648172,0.009420899,0.229665632,0.030777624
0.052624348,0.009419103,0.229573966,0.030773315
0.052600453,0.009417311,0.229482081,0.030768785
0.052576488,0.009415523,0.229389977,0.03076403
0.052552452,0.009413739,0.229297657,0.030759052
0.052528346,0.00941196,0.229205122,0.030753848
0.05250417,0.009410187,0.229112374,0.030748417
0.052479924,0.009408418,0.229019413,0.030742759
0.052455609,0.009406655,0.22892624,0.030736871
0.052431225,0.009404898,0.228832856,0.030730753
0.052406771,0.009403146,0.228739262,0.030724403
0.052382249,0.0094014,0.228645457,0.03071782
0.052357657,0.009399659,0.228551442,0.030711003
0.052332996,0.009397925,0.228457216,0.030703951
0.052308268,0.009396195,0.22836278,0.030696665
0.052283471,0.009394472,0.228268133,0.030689142
0.052258606,0.009392753,0.228173275,0.030681383
0.052233675,0.009391038,0.228078205,0.030673387
0.052208677,0.009389328,0.227982923,0.030665153
0.052183614,0.009387622,0.227887429,0.030656682
0.052158486,0.009385919,0.227791725,0.030647974
0.052133296,0.009384218,0.227695811,0.03063903
0.052108044,0.00938252,0.227599689,0.030629848
0.052082732,0.009380823,0.22750336,0.030620431
0.052057361,0.009379128,0.227406827,0.030610776
0.052031934,0.009377434,0.227310092,0.030600885
0.052006451,0.009375741,0.227213158,0.030590757
0.051980916,0.009374048,0.227116027,0.030580391
0.05195533,0.009372356,0.227018701,0.030569786
0.051929696,0.009370663,0.226921185,0.030558944
0.051904016,0.009368971,0.226823479,0.030547862
0.051878292,0.009367278,0.226725586,0.030536542
0.051852525,0.009365584,0.226627509,0.030524983
0.051826719,0.009363889,0.22652925,0.030513186
0.051800874,0.009362193,0.226430811,0.030501151
0.051774992,0.009360495,0.226332193,0.030488877
0.051749077,0.009358795,0.2262334,0.030476366
0.051723128,0.009357093,0.226134433,0.030463617
0.051697148,0.009355388,0.226035294,0.03045063
0.051671139,0.00935368,0.225935986,0.030437405
0.051645101,0.009351968,0.225836511,0.030423944
0.051619037,0.009350252,0.225736872,0.030410247
0.051592947,0.009348531,0.225637069,0.030396315
0.051566833,0.009346806,0.225537106,0.030382146
0.051540696,0.009345075,0.225436983,0.030367743
0.051514537,0.009343339,0.225336702,0.030353104
0.051488357,0.009341599,0.225236265,0.030338229
0.051462157,0.009339854,0.225135674,0.03032312
0.051435939,0.009338105,0.225034931,0.030307775
0.051409703,0.009336352,0.224934037,0.030292194
0.05138345,0.009334597,0.224832995,0.03027638
0.051357182,0.009332839,0.224731806,0.030260333
0.051330898,0.009331079,0.224630472,0.030244055
0.051304601,0.009329319,0.224528995,0.030227546
0.051278291,0.009327557,0.224427377,0.03021081
0.051251971,0.009325795,0.22432562,0.030193846
0.05122564,0.009324032,0.224223727,0.030176658
0.051199301,0.00932227,0.224121703,0.030159246
0.051172955,0.009320508,0.224019552,0.030141611
0.051146604,0.009318747,0.223917278,0.030123757
0.05112025,0.009316987,0.223814885,0.030105683
0.051093893,0.009315227,0.223712379,0.03008739
0.051067535,0.009313468,0.223609763,0.030068881
0.051041178,0.009311711,0.223507043,0.030050155
0.051014822,0.009309955,0.223404223,0.030031214
0.05098847,0.0093082,0.223301308,0.030012058
0.050962122,0.009306447,0.223198302,0.029992688
0.050935779,0.009304696,0.223095209,0.029973104
0.050909443,0.009302947,0.222992034,0.029953307
0.050883114,0.0093012,0.222888781,0.029933298
0.050856795,0.009299456,0.222785453,0.029913077
0.050830485,0.009297714,0.222682054,0.029892644
0.050804187,0.009295976,0.222578587,0.029872002
0.0507779,0.009294241,0.222475057,0.029851153
0.050751626,0.009292509,0.222371465,0.029830096
0.050725366,0.009290781,0.222267815,0.029808835
0.050699121,0.009289056,0.22216411,0.02978737
0.050672891,0.009287335,0.222060351,0.029765704
0.050646678,0.009285618,0.221956543,0.029743837
0.050620481,0.009283905,0.221852687,0.029721771
0.050594301,0.009282196,0.221748787,0.029699508
0.050568139,0.009280493,0.221644844,0.02967705
0.050541996,0.009278795,0.22154086,0.029654397
0.050515871,0.009277103,0.221436839,0.029631552
0.050489765,0.009275418,0.221332782,0.029608517
0.050463678,0.009273739,0.221228692,0.029585293
0.050437612,0.009272068,0.221124569,0.029561881
0.050411565,0.009270404,0.221020417,0.029538284
0.05038554,0.009268748,0.220916237,0.029514502
0.050359535,0.0092671,0.220812031,0.029490537
0.050333551,0.009265461,0.220707798,0.02946639
0.050307587,0.009263831,0.220603541,0.029442061
0.050281645,0.009262209,0.22049926,0.029417552
0.050255723,0.009260597,0.220394955,0.029392862
0.050229822,0.009258994,0.220290627,0.029367994
0.050203942,0.0092574,0.220186276,0.029342948
0.050178083,0.009255817,0.220081902,0.029317725
0.050152245,0.009254244,0.219977504,0.029292326
0.050126428,0.009252682,0.219873083,0.029266752
0.050100632,0.009251131,0.219768636,0.029241005
0.050074858,0.009249592,0.219664163,0.029215086
0.050049105,0.009248064,0.219559662,0.029188995
0.050023375,0.00924655,0.219455133,0.029162734
0.049997666,0.009245047,0.219350574,0.029136302
0.04997198,0.009243558,0.219245983,0.029109702
0.049946317,0.009242082,0.219141358,0.029082934
0.049920677,0.00924062,0.219036699,0.029055999
0.04989506,0.009239171,0.218932003,0.029028898
0.049869468,0.009237736,0.218827269,0.029001632
0.049843901,0.009236314,0.218722495,0.028974203
0.049818359,0.009234907,0.21861768,0.028946611
0.049792844,0.009233514,0.21851282,0.02891886
0.049767357,0.009232135,0.218407916,0.028890948
0.049741899,0.00923077,0.218302963,0.028862878
0.04971647,0.00922942,0.21819796,0.028834651
0.049691073,0.009228084,0.218092905,0.028806268
0.049665709,0.009226762,0.217987797,0.02877773
0.049640378,0.009225455,0.217882635,0.02874904
0.049615082,0.009224162,0.217777417,0.028720199
0.049589823,0.009222883,0.217672142,0.028691209
0.0495646,0.009221618,0.217566809,0.028662071
0.049539416,0.009220368,0.217461416,0.028632787
0.049514272,0.009219132,0.217355962,0.02860336
0.049489169,0.00921791,0.217250447,0.02857379
0.049464108,0.009216703,0.217144868,0.028544081
0.04943909,0.009215511,0.217039226,0.028514232
0.049414117,0.009214332,0.216933519,0.028484246
0.04938919,0.009213168,0.216827746,0.028454124
0.049364311,0.009212018,0.216721907,0.028423867
0.049339479,0.009210882,0.216616001,0.028393476
0.049314698,0.00920976,0.216510026,0.028362952
0.049289967,0.009208652,0.216403984,0.028332296
0.049265288,0.009207557,0.216297873,0.028301508
0.049240662,0.009206476,0.216191693,0.028270589
0.04921609,0.009205409,0.216085446,0.028239541
0.049191573,0.009204355,0.215979132,0.028208365
0.049167113,0.009203313,0.215872753,0.028177062
0.04914271,0.009202284,0.215766311,0.028145633
0.049118367,0.009201266,0.215659807,0.028114079
0.049094086,0.00920026,0.215553244,0.028082401
0.049069867,0.009199265,0.215446623,0.028050602
0.049045713,0.00919828,0.215339947,0.028018681
0.049021625,0.009197305,0.21523322,0.027986641
0.048997607,0.009196339,0.215126443,0.027954485
0.048973659,0.009195383,0.21501962,0.027922214
0.048949785,0.009194435,0.214912753,0.027889829
0.048925985,0.009193496,0.214805844,0.027857334
0.048902261,0.009192566,0.214698895,0.02782473
0.048878616,0.009191645,0.214591908,0.027792019
0.048855051,0.009190733,0.214484886,0.027759202
0.048831568,0.009189832,0.214377829,0.02772628
0.048808168,0.00918894,0.214270742,0.027693256
0.048784854,0.009188059,0.214163626,0.02766013
0.048761627,0.009187188,0.214056484,0.027626902
0.048738488,0.009186329,0.21394932,0.027593575
0.04871544,0.009185481,0.213842135,0.027560148
0.048692483,0.009184645,0.213734932,0.027526623
0.048669619,0.009183822,0.213627715,0.027493
0.04864685,0.009183012,0.213520485,0.027459281
0.048624176,0.009182214,0.213413244,0.027425467
0.048601599,0.00918143,0.213305995,0.027391558
0.048579119,0.009180659,0.21319874,0.027357556
0.048556738,0.009179902,0.21309148,0.027323463
0.048534457,0.009179158,0.212984218,0.027289278
0.048512276,0.009178427,0.212876955,0.027255002
0.048490198,0.00917771,0.212769692,0.027220638
0.048468222,0.009177006,0.21266243,0.027186184
0.04844635,0.009176315,0.212555171,0.027151642
0.048424584,0.009175638,0.212447914,0.027117014
0.048402923,0.009174975,0.212340661,0.027082299
0.048381369,0.009174325,0.212233413,0.027047499
0.048359922,0.00917369,0.21212617,0.027012615
0.048338585,0.009173068,0.212018933,0.026977651
0.048317357,0.009172461,0.211911702,0.026942606
0.04829624,0.009171867,0.211804478,0.026907483
0.048275235,0.009171287,0.211697261,0.026872283
0.048254344,0.009170721,0.211590051,0.026837007
0.048233566,0.009170169,0.211482848,0.026801657
0.048212902,0.009169631,0.211375651,0.026766234
0.048192355,0.009169106,0.21126846,0.026730739
0.048171923,0.009168596,0.211161275,0.026695174
0.048151608,0.009168099,0.211054097,0.02665954
0.048131411,0.009167616,0.210946924,0.026623838
0.048111331,0.009167148,0.210839758,0.026588071
0.04809137,0.009166693,0.210732598,0.026552238
0.048071527,0.009166253,0.210625444,0.026516341
0.048051804,0.009165826,0.210518297,0.02648038
0.048032202,0.009165414,0.210411156,0.026444356
0.04801272,0.009165016,0.210304022,0.02640827
0.04799336,0.009164632,0.210196894,0.026372122
0.047974122,0.009164262,0.210089773,0.026335912
0.047955009,0.009163907,0.209982658,0.026299642
0.04793602,0.009163567,0.209875549,0.026263312
0.047917156,0.009163242,0.209768446,0.026226921
0.047898419,0.009162932,0.209661349,0.026190472
0.047879809,0.009162637,0.209554258,0.026153965
0.047861328,0.009162357,0.209447171,0.026117402
0.047842976,0.009162092,0.20934009,0.026080782
0.047824754,0.009161842,0.209233014,0.026044108
0.047806663,0.009161606,0.209125942,0.02600738
0.047788704,0.009161385,0.209018876,0.025970599
0.047770877,0.009161179,0.208911814,0.025933766
0.047753184,0.009160986,0.208804756,0.025896882
0.047735624,0.009160808,0.208697704,0.025859948
0.047718198,0.009160643,0.208590657,0.025822964
0.047700907,0.009160492,0.208483615,0.025785932
0.047683752,0.009160354,0.208376579,0.025748853
0.047666731,0.009160229,0.20826955,0.025711727
0.047649848,0.009160117,0.208162526,0.025674557
0.047633101,0.009160018,0.208055509,0.025637343
0.047616491,0.009159932,0.207948497,0.025600087
0.047600018,0.009159858,0.207841492,0.02556279
0.047583684,0.009159798,0.207734493,0.025525452
0.047567488,0.00915975,0.2076275,0.025488075
0.04755143,0.009159716,0.207520513,0.025450659
0.047535511,0.009159695,0.207413532,0.025413204
0.047519731,0.009159687,0.207306557,0.025375711
0.04750409,0.009159692,0.207199587,0.025338179
0.047488589,0.009159711,0.207092623,0.025300611
0.047473226,0.009159743,0.206985663,0.025263004
0.047458003,0.009159788,0.206878707,0.025225361
0.047442918,0.009159845,0.206771755,0.02518768
0.047427972,0.009159914,0.206664805,0.025149963
0.047413165,0.009159996,0.206557858,0.02511221
0.047398497,0.009160089,0.206450912,0.025074422
0.047383967,0.009160193,0.206343967,0.0250366
0.047369576,0.009160308,0.206237022,0.024998746
0.047355324,0.009160434,0.206130076,0.024960859
0.047341211,0.00916057,0.206023128,0.024922942
0.047327239,0.009160716,0.205916176,0.024884995
0.047313406,0.009160871,0.20580922,0.024847021
0.047299714,0.009161034,0.205702257,0.024809021
0.047286164,0.009161205,0.205595287,0.024770996
0.047272755,0.009161384,0.205488308,0.024732949
0.047259489,0.009161571,0.205381318,0.02469488
0.047246366,0.009161764,0.205274316,0.024656791
0.047233387,0.009161964,0.205167299,0.024618684
0.047220552,0.00916217,0.205060265,0.02458056
0.047207861,0.009162382,0.204953213,0.024542421
0.047195316,0.009162599,0.204846144,0.024504268
0.047182915,0.009162822,0.204739055,0.024466104
0.047170659,0.00916305,0.204631947,0.024427929
0.047158548,0.009163284,0.204524821,0.024389745
0.047146583,0.009163523,0.204417679,0.024351554
0.047134762,0.009163769,0.204310523,0.024313356
0.047123088,0.00916402,0.204203356,0.024275154
0.047111558,0.009164278,0.204096183,0.024236947
0.047100175,0.009164543,0.203989008,0.024198738
0.047088937,0.009164814,0.203881834,0.024160526
0.047077845,0.009165092,0.203774669,0.024122314
0.047066899,0.009165376,0.203667515,0.024084101
0.0470561,0.009165667,0.20356038,0.024045889
0.047045447,0.009165964,0.203453268,0.024007679
0.047034941,0.009166267,0.203346184,0.023969473
0.047024581,0.009166575,0.203239133,0.023931271
0.047014368,0.009166889,0.20313212,0.023893076
0.047004302,0.009167209,0.20302515,0.023854888
0.046994382,0.009167534,0.202918229,0.02381671
0.046984608,0.009167864,0.202811362,0.023778543
0.04697498,0.009168199,0.202704554,0.023740388
0.046965497,0.00916854,0.202597811,0.023702247
0.04695616,0.009168885,0.20249114,0.02366412
0.046946969,0.009169237,0.202384547,0.023626009
0.046937923,0.009169594,0.202278037,0.023587916
0.046929023,0.009169958,0.202171617,0.023549842
0.046920267,0.009170328,0.202065292,0.023511789
0.046911656,0.009170706,0.201959067,0.023473757
0.04690319,0.009171091,0.201852948,0.023435749
0.046894868,0.009171484,0.201746941,0.023397766
0.046886691,0.009171886,0.201641049,0.02335981
0.046878657,0.009172295,0.201535277,0.023321881
0.046870767,0.009172714,0.20142963,0.023283981
0.04686302,0.00917314,0.201324111,0.02324611
0.046855416,0.009173575,0.201218724,0.02320827
0.046847953,0.009174019,0.201113473,0.023170461
0.046840631,0.009174471,0.201008361,0.023132683
0.046833449,0.009174932,0.200903392,0.023094938
0.046826406,0.009175401,0.200798571,0.023057225
0.046819503,0.009175879,0.200693902,0.023019546
0.046812737,0.009176365,0.200589388,0.0229819
0.046806109,0.00917686,0.200485034,0.022944288
0.046799618,0.009177363,0.200380844,0.022906711
0.046793265,0.009177875,0.200276825,0.022869169
0.046787048,0.009178395,0.200172979,0.022831663
0.046780968,0.009178922,0.200069311,0.022794193
0.046775024,0.009179456,0.199965825,0.02275676
0.046769216,0.009179997,0.199862526,0.022719365
0.046763543,0.009180545,0.199759418,0.022682009
0.046758006,0.009181098,0.199656506,0.022644693
0.046752603,0.009181657,0.199553794,0.022607419
0.046747335,0.009182222,0.199451287,0.022570185
0.046742202,0.009182791,0.199348987,0.022532995
0.046737203,0.009183365,0.199246898,0.022495848
0.046732338,0.009183944,0.199145024,0.022458745
0.046727607,0.009184526,0.199043367,0.022421687
0.046723011,0.009185112,0.198941929,0.022384674
0.046718549,0.009185702,0.198840714,0.022347708
0.046714221,0.009186295,0.198739722,0.02231079
0.046710027,0.009186891,0.198638956,0.022273919
0.046705967,0.00918749,0.198538417,0.022237098
0.04670204,0.009188093,0.198438106,0.022200328
0.046698247,0.009188698,0.198338025,0.022163609
0.046694587,0.009189305,0.198238174,0.022126943
0.04669106,0.009189914,0.198138555,0.02209033
0.046687665,0.009190525,0.198039168,0.022053771
0.046684404,0.009191137,0.197940013,0.022017267
0.046681274,0.009191751,0.197841091,0.021980819
0.046678277,0.009192366,0.197742401,0.021944426
0.046675411,0.009192982,0.197643944,0.021908089
0.046672678,0.009193598,0.19754572,0.021871809
0.046670076,0.009194215,0.197447729,0.021835585
0.046667606,0.009194831,0.19734997,0.021799419
0.046665268,0.009195446,0.197252443,0.02176331
0.046663062,0.009196061,0.197155147,0.021727261
0.046660988,0.009196674,0.197058081,0.02169127
0.046659046,0.009197286,0.196961245,0.021655338
0.046657238,0.009197897,0.196864637,0.021619467
0.046655563,0.009198506,0.196768255,0.021583656
0.046654023,0.009199112,0.196672099,0.021547907
0.046652618,0.009199716,0.196576167,0.021512218
0.04665135,0.009200317,0.196480457,0.021476592
0.04665022,0.009200915,0.196384967,0.021441029
0.046649229,0.009201508,0.196289696,0.021405528
0.046648379,0.009202098,0.196194644,0.021370091
0.046647669,0.009202682,0.196099808,0.021334719
0.046647101,0.009203262,0.196005188,0.021299411
0.046646676,0.009203836,0.195910782,0.021264169
0.046646394,0.009204404,0.19581659,0.021228993
0.046646257,0.009204966,0.195722611,0.021193883
0.046646265,0.009205521,0.195628843,0.021158842
0.046646418,0.009206068,0.195535285,0.021123868
0.046646718,0.009206608,0.195441937,0.021088963
0.046647165,0.009207139,0.195348796,0.021054126
0.046647758,0.009207662,0.195255861,0.021019357
0.0466485,0.009208175,0.19516313,0.020984657
0.046649389,0.009208677,0.195070602,0.020950024
0.046650427,0.00920917,0.194978274,0.020915461
0.046651613,0.009209653,0.194886146,0.020880966
0.046652947,0.009210125,0.194794214,0.020846541
0.04665443,0.009210586,0.194702479,0.020812187
0.046656062,0.009211037,0.194610938,0.020777903
0.046657842,0.009211478,0.194519588,0.02074369
0.046659773,0.009211908,0.194428429,0.020709548
0.046661853,0.009212327,0.194337457,0.020675477
0.046664083,0.009212736,0.194246671,0.020641477
0.046666463,0.009213134,0.19415607,0.020607549
0.046668995,0.009213523,0.19406565,0.020573692
0.046671678,0.009213903,0.19397541,0.020539906
0.046674514,0.009214273,0.193885349,0.020506191
0.046677502,0.009214634,0.193795465,0.020472547
0.046680643,0.009214987,0.193705757,0.020438976
0.046683938,0.009215331,0.193616224,0.020405476
0.046687385,0.009215666,0.193526866,0.020372048
0.046690987,0.009215993,0.193437682,0.020338693
0.046694742,0.009216312,0.193348674,0.020305412
0.046698651,0.009216623,0.193259843,0.020272204
0.046702714,0.009216925,0.193171188,0.020239071
0.046706929,0.00921722,0.193082713,0.020206015
0.046711298,0.009217508,0.192994417,0.020173037
0.046715821,0.009217789,0.192906304,0.020140137
0.046720496,0.009218064,0.192818373,0.020107319
0.046725324,0.009218332,0.192730626,0.020074582
0.046730304,0.009218595,0.192643066,0.020041929
0.046735438,0.009218853,0.192555691,0.020009361
0.046740723,0.009219105,0.192468504,0.019976878
0.04674616,0.009219352,0.192381505,0.019944482
0.046751748,0.009219595,0.192294695,0.019912173
0.046757487,0.009219834,0.192208074,0.019879952
0.046763377,0.009220068,0.192121643,0.01984782
0.046769415,0.009220298,0.192035402,0.019815776
0.046775602,0.009220525,0.191949352,0.019783822
0.046781937,0.009220748,0.191863493,0.019751957
0.046788419,0.009220968,0.191777826,0.019720183
0.046795046,0.009221185,0.191692351,0.019688501
0.046801819,0.0092214,0.19160707,0.01965691
0.046808736,0.009221611,0.191521982,0.019625411
0.046815796,0.009221821,0.191437087,0.019594006
0.046822999,0.009222027,0.191352387,0.019562695
0.046830342,0.009222231,0.19126788,0.019531481
0.046837826,0.009222432,0.191183566,0.019500364
0.046845448,0.009222631,0.191099445,0.019469348
0.046853209,0.009222827,0.191015515,0.019438432
0.046861107,0.009223021,0.190931776,0.01940762
0.046869141,0.009223214,0.190848228,0.019376912
0.046877313,0.009223406,0.19076487,0.019346311
0.046885621,0.009223598,0.190681702,0.019315817
0.046894066,0.009223791,0.190598724,0.019285433
0.046902647,0.009223985,0.190515937,0.019255161
0.046911366,0.00922418,0.190433343,0.019225001
0.046920222,0.009224378,0.190350941,0.019194955
0.046929216,0.009224578,0.190268736,0.019165024
0.046938347,0.009224782,0.190186729,0.01913521
0.046947616,0.009224988,0.190104925,0.019105513
0.046957023,0.009225199,0.19002333,0.019075934
0.046966569,0.009225413,0.189941946,0.019046475
0.046976254,0.009225631,0.189860779,0.019017137
0.046986079,0.009225852,0.189779832,0.01898792
0.046996042,0.009226078,0.189699111,0.018958828
0.047006146,0.009226308,0.18961862,0.018929865
0.047016389,0.009226541,0.189538364,0.018901032
0.047026774,0.009226778,0.189458347,0.018872334
0.047037299,0.009227019,0.189378577,0.018843774
0.047047965,0.009227264,0.189299056,0.018815354
0.047058773,0.009227513,0.189219792,0.018787078
0.047069724,0.009227765,0.189140789,0.018758948
0.047080816,0.009228022,0.189062051,0.018730967
0.04709205,0.009228283,0.188983585,0.018703137
0.047103426,0.009228549,0.188905395,0.01867546
0.047114945,0.009228819,0.188827484,0.018647938
0.047126605,0.009229094,0.188749858,0.018620573
0.047138407,0.009229375,0.188672519,0.018593368
0.04715035,0.00922966,0.188595473,0.018566324
0.047162434,0.00922995,0.188518722,0.018539443
0.047174658,0.009230246,0.188442271,0.018512728
0.047187022,0.009230546,0.188366122,0.018486179
0.047199524,0.009230852,0.188290279,0.018459798
0.047212165,0.009231163,0.188214746,0.018433588
0.047224943,0.009231479,0.188139524,0.018407549
0.047237857,0.0092318,0.188064618,0.018381684
0.047250906,0.009232125,0.187990028,0.018355993
0.047264089,0.009232456,0.187915758,0.018330478
0.047277405,0.00923279,0.18784181,0.01830514
0.047290853,0.00923313,0.187768184,0.01827998
0.047304431,0.009233474,0.187694883,0.018254999
0.047318138,0.009233821,0.187621908,0.018230198
0.047331972,0.009234173,0.18754926,0.018205579
0.047345932,0.009234528,0.187476938,0.018181141
0.047360016,0.009234887,0.187404944,0.018156886
0.047374223,0.009235248,0.187333277,0.018132815
0.047388549,0.009235612,0.187261937,0.018108929
0.047402994,0.009235977,0.187190924,0.018085228
0.047417555,0.009236344,0.187120238,0.018061713
0.047432231,0.009236713,0.187049879,0.018038385
0.047447018,0.009237084,0.186979848,0.018015244
0.047461916,0.009237455,0.186910144,0.017992291
0.047476922,0.009237828,0.18684077,0.017969528
0.047492034,0.009238202,0.186771726,0.017946955
0.047507252,0.009238577,0.186703015,0.017924575
0.047522572,0.009238952,0.186634638,0.017902389
0.047537994,0.009239328,0.186566599,0.017880399
0.047553516,0.009239703,0.186498905,0.017858607
0.047569136,0.009240079,0.18643156,0.017837014
0.047584852,0.009240453,0.186364573,0.017815622
0.047600663,0.009240827,0.186297951,0.017794432
0.047616567,0.0092412,0.1862317,0.017773448
0.047632562,0.00924157,0.186165828,0.017752669
0.047648647,0.009241939,0.186100339,0.017732099
0.047664821,0.009242305,0.186035242,0.017711739
0.047681081,0.009242668,0.185970541,0.017691592
0.047697427,0.009243026,0.185906243,0.01767166
0.047713857,0.009243381,0.185842354,0.017651945
0.047730368,0.00924373,0.185778879,0.017632451
0.04774696,0.009244074,0.185715825,0.017613178
0.047763631,0.009244412,0.185653197,0.017594129
0.047780381,0.009244743,0.185591,0.017575306
0.047797206,0.009245067,0.18552924,0.017556711
0.047814107,0.009245384,0.185467921,0.017538345
0.047831082,0.009245693,0.185407047,0.017520212
0.04784813,0.009245993,0.185346624,0.017502312
0.047865249,0.009246284,0.185286654,0.017484647
0.047882439,0.009246566,0.185227143,0.017467221
0.047899699,0.009246838,0.185168093,0.017450033
0.047917029,0.0092471,0.185109508,0.017433088
0.047934427,0.009247352,0.185051392,0.017416385
0.047951894,0.009247593,0.184993746,0.017399927
0.047969427,0.009247823,0.184936573,0.017383715
0.047987027,0.009248041,0.184879876,0.017367752
0.048004692,0.009248247,0.184823657,0.017352038
0.048022421,0.00924844,0.184767916,0.017336574
0.048040213,0.00924862,0.184712656,0.017321362
0.048058066,0.009248787,0.184657877,0.017306402
0.04807598,0.009248939,0.184603579,0.017291696
0.048093952,0.009249077,0.184549762,0.017277245
0.048111981,0.0092492,0.184496428,0.017263048
0.048130065,0.009249308,0.184443573,0.017249109
0.048148203,0.0092494,0.184391199,0.017235426
0.048166392,0.009249476,0.184339304,0.017222002
0.048184631,0.009249535,0.184287886,0.017208836
0.048202918,0.009249576,0.184236943,0.01719593
0.048221251,0.009249599,0.184186473,0.017183283
0.048239626,0.009249603,0.184136473,0.017170897
0.048258044,0.009249588,0.184086942,0.017158772
0.0482765,0.009249553,0.184037875,0.017146907
0.048294993,0.009249496,0.18398927,0.017135303
0.04831352,0.009249418,0.183941124,0.01712396
0.04833208,0.009249317,0.183893431,0.017112878
0.04835067,0.009249193,0.183846189,0.017102056
0.048369289,0.009249045,0.183799393,0.017091495
0.048387934,0.009248874,0.183753039,0.017081194
0.048406605,0.009248678,0.183707122,0.017071153
0.048425298,0.009248457,0.18366164,0.017061373
0.048444014,0.009248212,0.183616589,0.017051852
0.04846275,0.009247941,0.183571966,0.017042592
0.048481505,0.009247644,0.183527767,0.017033594
0.04850028,0.009247321,0.183483989,0.017024857
0.048519073,0.009246971,0.183440628,0.017016383
0.048537885,0.009246594,0.183397682,0.017008173
0.048556715,0.009246189,0.183355145,0.017000229
0.048575563,0.009245755,0.183313016,0.016992551
0.048594428,0.009245294,0.183271289,0.016985141
0.048613311,0.009244803,0.183229963,0.016978
0.048632211,0.009244284,0.183189035,0.01697113
0.048651128,0.009243735,0.183148502,0.016964531
0.048670062,0.009243158,0.183108364,0.016958204
0.048689012,0.009242551,0.183068621,0.01695215
0.048707978,0.009241914,0.183029272,0.01694637
0.048726959,0.009241247,0.182990317,0.016940864
0.048745956,0.009240551,0.182951758,0.016935634
0.048764968,0.009239823,0.182913595,0.01693068
0.048783994,0.009239065,0.182875828,0.016926005
0.048803035,0.009238276,0.182838459,0.016921608
0.048822089,0.009237455,0.182801488,0.016917492
0.048841156,0.009236603,0.182764914,0.016913659
0.048860235,0.009235719,0.182728739,0.016910109
0.048879326,0.009234804,0.182692962,0.016906843
0.048898428,0.009233857,0.182657583,0.016903864
0.048917541,0.009232878,0.182622603,0.016901173
0.048936662,0.009231869,0.182588022,0.01689877
0.048955792,0.009230827,0.18255384,0.016896659
0.048974929,0.009229755,0.182520056,0.016894839
0.048994072,0.009228651,0.182486672,0.016893312
0.04901322,0.009227515,0.182453686,0.01689208
0.049032373,0.009226348,0.182421097,0.016891144
0.049051529,0.009225149,0.182388906,0.016890504
0.049070689,0.009223919,0.182357112,0.01689016
0.04908985,0.009222657,0.182325712,0.016890115
0.049109014,0.009221365,0.182294707,0.016890368
0.049128179,0.009220042,0.182264094,0.01689092
0.049147345,0.009218688,0.182233874,0.016891772
0.049166512,0.009217305,0.182204044,0.016892926
0.04918568,0.009215891,0.182174603,0.016894383
0.049204849,0.009214448,0.182145551,0.016896144
0.049224019,0.009212975,0.182116887,0.016898211
0.04924319,0.009211472,0.18208861,0.016900583
0.049262364,0.00920994,0.182060719,0.016903264
0.04928154,0.009208379,0.182033215,0.016906254
0.049300719,0.00920679,0.182006097,0.016909555
0.049319903,0.009205174,0.181979364,0.016913168
0.04933909,0.009203532,0.181953016,0.016917096
0.049358282,0.009201863,0.181927053,0.01692134
0.049377479,0.009200169,0.181901475,0.016925901
0.049396681,0.00919845,0.181876282,0.016930783
0.049415888,0.009196706,0.181851474,0.016935985
0.0494351,0.009194937,0.181827051,0.016941511
0.049454317,0.009193145,0.181803013,0.016947361
0.049473539,0.009191328,0.181779362,0.016953537
0.049492766,0.009189487,0.181756097,0.01696004
0.049511997,0.009187622,0.181733221,0.016966871
0.049531233,0.009185733,0.181710733,0.016974031
0.049550472,0.009183822,0.181688636,0.016981522
0.049569716,0.009181887,0.181666931,0.016989344
0.049588964,0.009179929,0.181645618,0.016997499
0.049608216,0.009177948,0.1816247,0.017005988
0.049627471,0.009175945,0.181604178,0.017014811
0.04964673,0.00917392,0.181584052,0.01702397
0.049665992,0.009171872,0.181564324,0.017033466
0.049685256,0.009169801,0.181544995,0.017043299
0.049704522,0.009167708,0.181526064,0.017053471
0.049723789,0.009165593,0.181507531,0.017063984
0.049743056,0.009163454,0.181489397,0.017074836
0.049762322,0.009161294,0.181471661,0.017086031
0.049781587,0.00915911,0.181454324,0.017097567
0.04980085,0.009156904,0.181437384,0.017109447
0.049820109,0.009154677,0.181420842,0.01712167
0.049839364,0.009152428,0.181404697,0.017134237
0.049858614,0.009150158,0.181388949,0.017147149
0.04987786,0.009147868,0.181373597,0.017160406
0.0498971,0.00914556,0.181358639,0.017174009
0.049916336,0.009143232,0.181344076,0.017187956
0.049935567,0.009140887,0.181329906,0.017202248
0.049954793,0.009138524,0.181316127,0.017216886
0.049974016,0.009136146,0.181302737,0.017231868
0.049993235,0.009133751,0.181289734,0.017247194
0.050012453,0.009131342,0.181277117,0.017262864
0.05003167,0.009128919,0.181264882,0.017278879
0.050050887,0.009126483,0.181253028,0.017295238
0.050070107,0.009124036,0.18124155,0.017311943
0.05008933,0.009121578,0.181230449,0.017328994
0.050108557,0.00911911,0.181219721,0.017346392
0.05012779,0.009116634,0.181209366,0.017364138
0.05014703,0.009114149,0.181199383,0.017382233
0.050166279,0.009111657,0.18118977,0.017400679
0.050185538,0.009109158,0.181180528,0.017419475
0.050204808,0.009106652,0.181171658,0.017438624
0.050224091,0.00910414,0.181163163,0.017458124
0.050243389,0.009101623,0.181155044,0.017477976
0.050262703,0.0090991,0.181147303,0.017498181
0.050282035,0.009096571,0.181139942,0.017518738
0.050301386,0.009094038,0.181132964,0.017539649
0.050320759,0.009091499,0.181126369,0.017560914
0.050340153,0.009088956,0.181120158,0.017582535
0.050359571,0.009086407,0.181114333,0.01760451
0.050379014,0.009083854,0.181108893,0.017626842
0.050398482,0.009081296,0.181103841,0.017649529
0.050417978,0.009078733,0.181099176,0.017672574
0.050437501,0.009076166,0.181094899,0.017695974
0.050457052,0.009073594,0.181091011,0.017719731
0.050476633,0.009071018,0.181087512,0.017743844
0.050496244,0.009068438,0.181084404,0.017768312
0.050515885,0.009065855,0.181081686,0.017793136
0.050535557,0.009063269,0.18107936,0.017818315
0.05055526,0.009060681,0.181077426,0.017843849
0.050574994,0.009058091,0.181075883,0.017869738
0.05059476,0.009055499,0.181074733,0.017895982
0.050614557,0.009052906,0.181073974,0.01792258
0.050634386,0.009050312,0.181073606,0.017949533
0.050654247,0.009047717,0.181073628,0.017976839
0.05067414,0.009045123,0.181074039,0.018004499
0.050694065,0.009042528,0.181074839,0.018032511
0.050714021,0.009039934,0.181076026,0.018060874
0.050734009,0.009037341,0.1810776,0.018089588
0.050754028,0.009034749,0.18107956,0.01811865
0.050774077,0.009032157,0.181081906,0.018148061
0.050794157,0.009029567,0.181084636,0.018177818
0.050814266,0.009026978,0.181087751,0.01820792
0.050834404,0.00902439,0.181091249,0.018238365
0.050854571,0.009021802,0.181095132,0.018269153
0.050874765,0.009019215,0.181099399,0.018300281
0.050894988,0.009016629,0.18110405,0.018331748
0.050915237,0.009014043,0.181109087,0.018363553
0.050935513,0.009011458,0.181114507,0.018395693
0.050955814,0.009008874,0.181120312,0.018428168
0.05097614,0.009006291,0.1811265,0.018460977
0.05099649,0.009003709,0.181133072,0.018494118
0.051016863,0.009001128,0.181140026,0.01852759
0.051037258,0.008998549,0.181147363,0.018561391
0.051057674,0.008995971,0.181155079,0.018595519
0.05107811,0.008993394,0.181163175,0.018629972
0.051098564,0.008990819,0.181171649,0.018664748
0.051119036,0.008988244,0.181180499,0.018699844
0.051139523,0.008985672,0.181189722,0.018735258
0.051160025,0.008983101,0.181199318,0.018770987
0.05118054,0.008980532,0.181209282,0.018807029
0.051201067,0.008977966,0.181219614,0.018843381
0.051221604,0.008975401,0.18123031,0.018880041
0.051242149,0.00897284,0.181241367,0.018917007
0.051262702,0.00897028,0.181252783,0.018954277
0.05128326,0.008967723,0.181264556,0.018991848
0.051303823,0.008965169,0.181276684,0.019029719
0.051324388,0.008962617,0.181289163,0.019067887
0.051344955,0.008960067,0.181301991,0.01910635
0.051365522,0.008957521,0.181315166,0.019145106
0.051386088,0.008954978,0.181328685,0.019184152
0.051406652,0.008952439,0.181342547,0.019223487
0.051427213,0.008949904,0.181356748,0.019263109
0.051447769,0.008947374,0.181371288,0.019303016
0.05146832,0.00894485,0.181386164,0.019343206
0.051488866,0.008942332,0.181401373,0.019383678
0.051509406,0.008939821,0.181416912,0.019424429
0.051529938,0.008937317,0.18143278,0.019465459
0.051550462,0.008934821,0.181448972,0.019506764
0.051570978,0.008932335,0.181465487,0.019548344
0.051591485,0.008929858,0.181482322,0.019590196
0.051611983,0.008927391,0.181499476,0.019632319
0.05163247,0.008924936,0.181516948,0.01967471
0.051652946,0.008922493,0.181534736,0.019717367
0.05167341,0.008920063,0.181552842,0.01976029
0.051693861,0.008917646,0.181571265,0.019803475
0.051714299,0.008915244,0.181590008,0.019846922
0.051734722,0.008912857,0.181609073,0.019890628
0.051755129,0.008910486,0.18162846,0.019934592
0.05177552,0.008908132,0.181648172,0.019978811
0.051795892,0.008905794,0.181668209,0.020023284
0.051816245,0.008903475,0.181688575,0.020068009
0.051836577,0.008901173,0.18170927,0.020112986
0.051856888,0.008898891,0.181730295,0.020158212
0.051877176,0.008896629,0.181751654,0.020203686
0.051897441,0.008894387,0.181773346,0.020249406
0.05191768,0.008892166,0.181795374,0.020295372
0.051937894,0.008889967,0.181817739,0.02034158
0.05195808,0.008887792,0.181840442,0.020388031
0.051978238,0.008885641,0.181863485,0.020434724
0.051998368,0.008883516,0.181886869,0.020481657
0.052018468,0.008881417,0.181910596,0.020528829
0.052038537,0.008879346,0.181934667,0.02057624
0.052058576,0.008877303,0.181959084,0.020623889
0.052078584,0.008875289,0.181983848,0.020671777
0.052098561,0.008873306,0.182008963,0.020719904
0.052118508,0.008871354,0.182034428,0.02076827
0.052138423,0.008869433,0.182060246,0.020816875
0.052158308,0.008867546,0.182086419,0.020865721
0.052178163,0.008865692,0.182112948,0.020914807
0.052197989,0.008863872,0.182139835,0.020964133
0.052217784,0.008862086,0.18216708,0.021013701
0.052237551,0.008860336,0.182194683,0.02106351
0.052257288,0.008858622,0.182222646,0.02111356
0.052276996,0.008856943,0.182250968,0.02116385
0.052296675,0.008855302,0.182279648,0.021214381
0.052316325,0.008853698,0.182308686,0.021265151
0.052335946,0.008852131,0.182338081,0.021316159
0.052355539,0.008850603,0.182367833,0.021367406
0.052375102,0.008849113,0.18239794,0.021418891
0.052394636,0.008847662,0.182428401,0.021470613
0.05241414,0.00884625,0.182459215,0.021522573
0.052433615,0.008844877,0.18249038,0.021574769
0.05245306,0.008843543,0.182521895,0.021627201
0.052472475,0.008842249,0.182553757,0.02167987
0.052491859,0.008840994,0.182585966,0.021732773
0.052511213,0.008839778,0.182618519,0.021785912
0.052530535,0.008838603,0.182651415,0.021839284
0.052549825,0.008837469,0.182684652,0.021892889
0.052569083,0.008836377,0.18271823,0.021946726
0.052588307,0.008835327,0.182752147,0.022000794
0.052607498,0.008834321,0.1827864,0.022055091
0.052626653,0.00883336,0.182820989,0.022109615
0.052645772,0.008832445,0.18285591,0.022164366
0.052664855,0.008831575,0.182891163,0.022219342
0.052683899,0.008830753,0.182926744,0.022274543
0.052702904,0.008829977,0.182962651,0.022329967
0.05272187,0.00882925,0.182998882,0.022385614
0.052740793,0.008828571,0.183035435,0.022441483
0.052759674,0.008827941,0.183072307,0.022497571
0.05277851,0.008827361,0.183109495,0.022553878
0.052797302,0.008826831,0.183146998,0.022610402
0.052816046,0.008826351,0.183184812,0.022667142
0.052834742,0.008825924,0.183222934,0.022724097
0.052853387,0.008825549,0.183261362,0.022781264
0.052871981,0.008825228,0.183300091,0.022838643
0.052890522,0.00882496,0.183339117,0.022896232
0.052909007,0.008824747,0.183378439,0.022954029
0.052927434,0.008824589,0.183418053,0.023012032
0.052945803,0.008824488,0.183457958,0.023070238
0.05296411,0.008824443,0.183498151,0.023128645
0.052982355,0.008824455,0.183538631,0.023187251
0.053000535,0.008824524,0.183579398,0.023246052
0.053018647,0.008824652,0.18362045,0.023305046
0.053036691,0.008824838,0.183661788,0.023364231
0.053054665,0.008825083,0.183703413,0.023423604
0.053072566,0.008825387,0.183745327,0.023483164
0.053090393,0.008825751,0.18378753,0.023542909
0.053108144,0.008826174,0.183830025,0.023602837
0.053125816,0.008826658,0.183872813,0.023662946
0.053143409,0.008827204,0.183915896,0.023723235
0.05316092,0.008827811,0.183959275,0.023783702
0.053178346,0.00882848,0.18400295,0.023844345
0.053195686,0.008829212,0.184046923,0.023905163
0.053212936,0.008830008,0.184091195,0.023966155
0.053230096,0.008830867,0.184135766,0.024027319
0.053247163,0.008831791,0.184180637,0.024088652
0.053264134,0.008832778,0.184225809,0.024150152
0.053281008,0.008833829,0.184271281,0.024211819
0.053297782,0.008834944,0.184317053,0.024273648
0.053314455,0.008836123,0.184363125,0.024335638
0.053331023,0.008837367,0.184409496,0.024397788
0.053347486,0.008838676,0.184456168,0.024460094
0.053363841,0.008840049,0.18450314,0.024522554
0.053380086,0.008841487,0.184550412,0.024585165
0.053396221,0.00884299,0.184597984,0.024647925
0.053412242,0.008844557,0.184645858,0.02471083
0.053428149,0.008846189,0.184694033,0.024773877
0.053443941,0.008847885,0.184742509,0.024837063
0.053459615,0.008849645,0.184791285,0.024900384
0.053475171,0.00885147,0.184840363,0.024963839
0.053490607,0.008853358,0.184889741,0.025027422
0.053505922,0.00885531,0.184939419,0.025091132
0.053521115,0.008857326,0.184989396,0.025154965
0.053536185,0.008859406,0.185039672,0.025218919
0.053551131,0.008861549,0.185090244,0.025282989
0.053565952,0.008863757,0.185141112,0.025347174
0.053580647,0.008866029,0.185192274,0.025411471
0.053595215,0.008868365,0.185243729,0.025475876
0.053609656,0.008870766,0.185295475,0.025540385
0.053623968,0.008873231,0.185347511,0.025604997
0.05363815,0.008875762,0.185399835,0.025669707
0.053652202,0.008878357,0.185452444,0.025734512
0.053666122,0.008881017,0.185505336,0.025799409
0.053679911,0.008883743,0.185558508,0.025864395
0.053693566,0.008886533,0.185611957,0.025929466
0.053707087,0.008889389,0.18566568,0.025994619
0.053720472,0.008892311,0.185719674,0.02605985
0.053733722,0.008895298,0.185773935,0.026125156
0.053746834,0.00889835,0.185828458,0.026190534
0.053759807,0.008901469,0.185883241,0.026255979
0.053772641,0.008904653,0.185938278,0.026321489
0.053785333,0.008907903,0.185993564,0.026387061
0.053797883,0.008911219,0.186049094,0.02645269
0.053810288,0.008914601,0.186104864,0.026518374
0.053822549,0.008918047,0.186160869,0.026584109
0.053834663,0.008921559,0.186217103,0.026649892
0.05384663,0.008925136,0.186273561,0.026715718
0.053858448,0.008928777,0.186330238,0.026781585
0.053870115,0.008932482,0.186387127,0.026847487
0.053881631,0.008936251,0.186444224,0.026913422
0.053892994,0.008940085,0.186501523,0.026979385
0.053904203,0.008943982,0.186559019,0.027045372
0.053915256,0.008947944,0.186616705,0.02711138
0.053926152,0.008951969,0.186674575,0.027177403
0.05393689,0.008956059,0.186732623,0.027243439
0.053947468,0.008960211,0.186790843,0.027309482
0.053957886,0.008964428,0.186849228,0.02737553
0.053968142,0.008968708,0.186907773,0.027441578
0.053978235,0.008973051,0.18696647,0.027507622
0.053988163,0.008977459,0.187025312,0.027573658
0.053997925,0.008981932,0.187084292,0.027639682
0.05400752,0.00898647,0.187143403,0.027705689
0.054016946,0.008991073,0.187202638,0.027771676
0.054026202,0.008995742,0.18726199,0.027837637
0.054035286,0.009000478,0.187321454,0.027903568
0.054044197,0.00900528,0.187381022,0.027969465
0.054052933,0.00901015,0.18744069,0.028035324
0.054061493,0.009015087,0.187500452,0.028101139
0.054069875,0.009020092,0.187560303,0.028166907
0.054078079,0.009025165,0.187620236,0.028232622
0.054086103,0.009030306,0.187680247,0.02829828
0.054093946,0.009035516,0.187740331,0.028363876
0.054101609,0.009040794,0.187800482,0.028429407
0.054109088,0.009046141,0.187860695,0.028494867
0.054116384,0.009051557,0.187920966,0.028560253
