processed_ch1,processed_ch2,processed_ch3,processed_ch4
0.060198298,0.283863465,0.002321304,0.1063143
0.060178844,0.283815298,0.00231265,0.106381619
0.060159497,0.283766775,0.002304057,0.106448934
0.060140257,0.283717895,0.002295524,0.10651624
0.060121124,0.283668656,0.002287052,0.106583527
0.060102101,0.283619058,0.002278642,0.10665079
0.060083187,0.283569099,0.002270292,0.106718019
0.060064383,0.283518778,0.002262005,0.106785208
0.060045691,0.283468096,0.002253779,0.10685235
0.060027109,0.28341705,0.002245615,0.106919435
0.06000864,0.283365641,0.002237513,0.106986458
0.059990283,0.283313868,0.002229473,0.107053412
0.059972038,0.283261731,0.002221496,0.107120291
0.059953906,0.28320923,0.002213582,0.107187088
0.059935888,0.283156365,0.00220573,0.107253799
0.059917984,0.283103138,0.002197942,0.107320417
0.059900195,0.283049551,0.002190217,0.107386937
0.059882523,0.282995606,0.002182556,0.107453353
0.059864967,0.282941304,0.002174958,0.107519659
0.059847528,0.282886647,0.002167425,0.107585847
0.059830209,0.282831637,0.002159956,0.107651913
0.059813009,0.282776275,0.002152551,0.107717851
0.059795931,0.282720563,0.002145212,0.107783654
0.059778973,0.282664501,0.002137937,0.107849318
0.059762139,0.282608089,0.002130728,0.107914837
0.059745428,0.282551329,0.002123584,0.107980207
0.059728841,0.28249422,0.002116506,0.108045421
0.059712379,0.282436761,0.002109494,0.108110474
0.059696042,0.282378952,0.002102549,0.108175362
0.05967983,0.282320792,0.002095671,0.108240078
0.059663744,0.282262279,0.002088859,0.108304618
0.059647784,0.282203411,0.002082115,0.108368978
0.059631951,0.282144187,0.002075438,0.108433154
0.059616244,0.282084606,0.00206883,0.108497143
0.059600663,0.282024665,0.002062289,0.10856094
0.05958521,0.281964362,0.002055816,0.108624543
0.059569883,0.281903696,0.002049412,0.108687949
0.059554684,0.281842667,0.002043076,0.108751158
0.059539613,0.281781272,0.002036808,0.108814167
0.05952467,0.281719513,0.002030609,0.108876977
0.059509854,0.281657387,0.002024479,0.108939587
0.059495166,0.281594896,0.002018416,0.109001997
0.059480605,0.281532039,0.002012423,0.109064206
0.059466171,0.281468815,0.002006497,0.109126213
0.059451865,0.281405225,0.00200064,0.109188017
0.059437684,0.281341267,0.001994851,0.109249617
0.05942363,0.281276942,0.001989131,0.109311012
0.0594097,0.28121225,0.00198348,0.109372201
0.059395896,0.28114719,0.001977898,0.109433181
0.059382215,0.281081764,0.001972385,0.109493953
0.059368657,0.281015972,0.001966942,0.109554514
0.059355222,0.280949815,0.001961568,0.109614862
0.059341908,0.280883293,0.001956263,0.109674997
0.059328715,0.280816409,0.001951029,0.109734915
0.059315641,0.280749161,0.001945863,0.109794616
0.059302685,0.28068155,0.001940767,0.109854098
0.059289846,0.280613576,0.00193574,0.109913358
0.059277123,0.280545239,0.001930783,0.109972394
0.059264515,0.280476538,0.001925894,0.110031203
0.059252019,0.280407471,0.001921075,0.110089783
0.059239635,0.28033804,0.001916324,0.11014813
0.059227363,0.280268241,0.001911642,0.11020624
0.059215199,0.280198074,0.001907028,0.110264112
0.059203144,0.280127538,0.001902483,0.11032174
0.059191196,0.28005663,0.001898005,0.11037912
0.059179352,0.27998535,0.001893595,0.110436249
0.059167613,0.279913696,0.001889252,0.110493123
0.059155975,0.279841665,0.001884977,0.110549737
0.059144437,0.279769258,0.00188077,0.110606088
0.059132998,0.279696471,0.00187663,0.110662171
0.059121656,0.279623303,0.001872556,0.110717982
0.05911041,0.279549752,0.00186855,0.110773517
0.059099256,0.279475814,0.001864611,0.110828771
0.059088194,0.279401488,0.001860738,0.110883741
0.059077222,0.279326771,0.001856932,0.110938422
0.059066337,0.279251659,0.001853192,0.110992813
0.059055538,0.279176149,0.001849517,0.111046909
0.059044824,0.27910024,0.001845909,0.111100708
0.059034193,0.279023929,0.001842365,0.111154206
0.059023645,0.278947215,0.001838886,0.111207402
0.059013178,0.278870095,0.001835472,0.11126029
0.059002791,0.278792568,0.001832122,0.111312867
0.058992483,0.278714635,0.001828836,0.11136513
0.058982255,0.278636294,0.001825614,0.111417074
0.058972105,0.278557543,0.001822455,0.111468696
0.058962032,0.278478382,0.00181936,0.111519991
0.058952037,0.278398809,0.001816327,0.111570956
0.058942117,0.278318824,0.001813359,0.111621587
0.058932272,0.278238426,0.001810453,0.111671879
0.0589225,0.278157613,0.001807611,0.111721832
0.058912802,0.278076386,0.001804831,0.111771441
0.058903176,0.277994741,0.001802114,0.111820704
0.05889362,0.277912679,0.00179946,0.111869618
0.058884133,0.277830196,0.001796868,0.111918181
0.058874715,0.277747292,0.001794339,0.111966389
0.058865364,0.277663963,0.001791872,0.112014238
0.058856078,0.277580207,0.001789468,0.112061726
0.058846858,0.277496021,0.001787126,0.112108849
0.058837701,0.277411403,0.001784847,0.112155602
0.058828607,0.277326349,0.00178263,0.11220198
0.058819574,0.277240857,0.001780476,0.112247981
0.058810603,0.277154922,0.001778383,0.112293598
0.058801691,0.277068541,0.001776353,0.112338828
0.058792838,0.276981711,0.001774385,0.112383666
0.058784044,0.276894427,0.001772478,0.112428105
0.058775308,0.276806686,0.001770633,0.112472142
0.058766627,0.276718484,0.001768849,0.112515771
0.058758002,0.276629817,0.001767126,0.112558987
0.058749432,0.276540681,0.001765464,0.112601784
0.058740914,0.276451073,0.001763862,0.112644159
0.058732449,0.276360991,0.00176232,0.112686108
0.058724036,0.276270432,0.001760838,0.112727627
0.058715673,0.276179397,0.001759415,0.112768712
0.058707359,0.276087885,0.001758051,0.11280936
0.058699093,0.275995897,0.001756746,0.112849569
0.058690874,0.275903433,0.0017555,0.112889334
0.058682702,0.275810494,0.001754312,0.112928654
0.058674573,0.275717082,0.001753184,0.112967526
0.058666488,0.275623199,0.001752114,0.113005949
0.058658444,0.275528846,0.001751103,0.113043921
0.058650441,0.275434027,0.001750151,0.113081442
0.058642477,0.275338743,0.001749257,0.113118509
0.058634552,0.275242995,0.001748422,0.113155123
0.058626663,0.275146786,0.001747644,0.113191283
0.058618809,0.275050117,0.001746925,0.113226989
0.058610989,0.274952991,0.001746262,0.11326224
0.058603202,0.274855409,0.001745657,0.113297036
0.058595445,0.274757376,0.001745109,0.113331375
0.058587719,0.274658895,0.001744617,0.113365257
0.05858002,0.27455997,0.001744182,0.113398681
0.058572349,0.274460607,0.001743802,0.113431648
0.058564703,0.274360811,0.001743478,0.113464156
0.058557082,0.274260586,0.001743208,0.113496207
0.058549485,0.274159938,0.001742993,0.113527799
0.05854191,0.274058873,0.001742833,0.113558935
0.058534357,0.2739574,0.001742726,0.113589618
0.058526823,0.273855524,0.001742674,0.11361985
0.05851931,0.273753255,0.001742675,0.113649635
0.058511814,0.273650598,0.001742731,0.113678976
0.058504336,0.273547563,0.00174284,0.113707875
0.058496874,0.273444155,0.001743004,0.113736334
0.058489427,0.273340381,0.001743221,0.113764356
0.058481995,0.273236249,0.001743492,0.113791943
0.058474576,0.273131763,0.001743818,0.113819096
0.05846717,0.273026929,0.001744197,0.113845816
0.058459776,0.272921754,0.001744629,0.113872105
0.058452393,0.272816241,0.001745115,0.113897962
0.05844502,0.272710396,0.001745653,0.113923389
0.058437657,0.272604222,0.001746244,0.113948384
0.058430302,0.272497723,0.001746888,0.113972949
0.058422956,0.272390902,0.001747584,0.113997083
0.058415616,0.272283764,0.001748332,0.114020786
0.058408283,0.27217631,0.001749132,0.114044058
0.058400956,0.272068543,0.001749984,0.114066899
0.058393634,0.271960468,0.001750888,0.114089311
0.058386317,0.27185209,0.001751843,0.114111294
0.058379005,0.271743412,0.00175285,0.114132851
0.058371698,0.27163444,0.001753908,0.114153983
0.058364396,0.271525182,0.001755017,0.114174692
0.058357099,0.271415644,0.001756176,0.114194979
0.058349808,0.271305836,0.001757385,0.114214846
0.058342524,0.271195767,0.001758644,0.114234294
0.058335245,0.271085446,0.001759953,0.114253324
0.058327974,0.270974883,0.001761312,0.114271937
0.05832071,0.270864086,0.00176272,0.114290135
0.058313453,0.270753065,0.001764177,0.114307918
0.058306203,0.270641827,0.001765685,0.114325286
0.058298962,0.270530381,0.001767241,0.114342239
0.058291728,0.270418734,0.001768847,0.114358777
0.058284502,0.270306895,0.001770503,0.1143749
0.058277284,0.270194872,0.001772207,0.114390607
0.058270074,0.270082672,0.001773961,0.114405898
0.05826287,0.269970302,0.001775763,0.114420773
0.058255674,0.269857768,0.001777614,0.114435229
0.058248485,0.269745077,0.001779513,0.114449268
0.058241302,0.269632234,0.00178146,0.114462888
0.058234125,0.269519245,0.001783455,0.114476088
0.058226954,0.269406115,0.001785498,0.114488867
0.058219789,0.269292847,0.001787588,0.114501222
0.058212629,0.269179447,0.001789726,0.114513154
0.058205474,0.269065918,0.001791911,0.11452466
0.058198323,0.268952265,0.001794142,0.114535738
0.058191176,0.268838491,0.00179642,0.114546387
0.058184033,0.268724602,0.001798744,0.114556603
0.058176891,0.268610601,0.001801113,0.114566386
0.058169752,0.268496494,0.001803527,0.114575731
0.058162613,0.268382288,0.001805986,0.114584637
0.058155475,0.268267988,0.00180849,0.1145931
0.058148335,0.268153598,0.001811037,0.114601118
0.058141194,0.268039124,0.001813628,0.114608688
0.05813405,0.267924571,0.001816262,0.114615807
0.058126903,0.267809942,0.001818938,0.114622472
0.05811975,0.267695241,0.001821658,0.11462868
0.058112591,0.267580472,0.001824419,0.114634431
0.058105426,0.267465639,0.001827222,0.114639721
0.058098252,0.267350745,0.001830066,0.11464455
0.058091069,0.267235793,0.001832951,0.114648917
0.058083876,0.267120788,0.001835877,0.114652819
0.058076672,0.267005731,0.001838844,0.114656255
0.058069455,0.266890626,0.00184185,0.114659225
0.058062226,0.266775476,0.001844895,0.114661726
0.058054982,0.266660284,0.00184798,0.114663759
0.058047723,0.266545052,0.001851104,0.114665322
0.058040448,0.266429784,0.001854265,0.114666414
0.058033156,0.266314483,0.001857464,0.114667033
0.058025847,0.266199155,0.001860701,0.11466718
0.058018519,0.266083802,0.001863975,0.114666853
0.058011171,0.26596843,0.001867285,0.114666053
0.058003804,0.265853041,0.001870632,0.114664779
0.057996417,0.265737641,0.001874015,0.11466303
0.057989009,0.265622232,0.001877433,0.114660805
0.057981581,0.265506818,0.001880887,0.114658105
0.057974133,0.265391401,0.001884375,0.114654929
0.057966664,0.265275985,0.001887898,0.114651277
0.057959174,0.265160572,0.001891456,0.114647149
0.057951663,0.265045164,0.001895049,0.114642545
0.057944133,0.264929763,0.001898676,0.114637466
0.057936583,0.264814371,0.001902337,0.114631912
0.057929013,0.264698989,0.001906033,0.114625883
0.057921424,0.264583618,0.001909764,0.11461938
0.057913815,0.26446826,0.001913529,0.114612402
0.057906186,0.264352917,0.001917329,0.114604952
0.057898538,0.264237588,0.001921164,0.114597029
0.05789087,0.264122277,0.001925033,0.114588637
0.057883182,0.264006983,0.001928936,0.114579778
0.057875474,0.263891707,0.001932872,0.114570453
0.057867746,0.263776451,0.001936843,0.114560667
0.057859998,0.263661214,0.001940847,0.11455042
0.057852229,0.263545997,0.001944883,0.114539717
0.05784444,0.263430801,0.001948952,0.11452856
0.057836632,0.263315626,0.001953054,0.114516953
0.057828803,0.263200471,0.001957188,0.114504899
0.057820955,0.263085339,0.001961353,0.114492401
0.057813086,0.262970231,0.00196555,0.114479463
0.057805198,0.262855147,0.001969778,0.114466089
0.057797291,0.262740088,0.001974037,0.114452282
0.057789363,0.262625056,0.001978327,0.114438045
0.057781415,0.262510052,0.001982647,0.114423383
0.057773446,0.262395077,0.001986997,0.1144083
0.057765457,0.262280133,0.001991377,0.114392798
0.057757446,0.262165221,0.001995787,0.114376882
0.057749413,0.262050343,0.002000226,0.114360555
0.057741358,0.2619355,0.002004695,0.114343821
0.05773328,0.261820693,0.002009194,0.114326683
0.057725179,0.261705923,0.002013722,0.114309143
0.057717055,0.261591192,0.00201828,0.114291206
0.057708906,0.2614765,0.002022867,0.114272873
0.057700734,0.26136185,0.002027485,0.114254147
0.057692536,0.261247243,0.002032131,0.114235032
0.057684314,0.261132682,0.002036807,0.11421553
0.057676067,0.261018173,0.002041513,0.114195643
0.057667794,0.26090372,0.002046247,0.114175377
0.057659495,0.260789331,0.002051009,0.114154732
0.057651169,0.260675012,0.002055801,0.114133713
0.057642816,0.260560771,0.00206062,0.114112324
0.057634437,0.260446617,0.002065467,0.114090566
0.057626029,0.260332558,0.002070341,0.114068445
0.057617594,0.260218603,0.002075243,0.114045963
0.05760913,0.26010476,0.002080172,0.114023123
0.057600638,0.259991036,0.002085128,0.113999928
0.057592118,0.259877438,0.00209011,0.113976382
0.057583569,0.259763974,0.002095118,0.113952487
0.057574991,0.259650651,0.002100152,0.113928247
0.057566385,0.259537474,0.002105212,0.113903662
0.057557751,0.259424451,0.002110298,0.113878737
0.057549088,0.259311586,0.002115409,0.113853473
0.057540396,0.259198886,0.002120545,0.113827873
0.057531675,0.259086356,0.002125708,0.113801941
0.057522926,0.258974001,0.002130895,0.113775678
0.057514147,0.258861826,0.002136109,0.113749085
0.05750534,0.258749838,0.002141348,0.113722166
0.057496503,0.258638041,0.002146612,0.113694922
0.057487637,0.258526441,0.002151902,0.113667354
0.057478741,0.258415043,0.002157216,0.113639465
0.057469816,0.25830385,0.002162555,0.113611259
0.057460859,0.258192868,0.002167919,0.113582738
0.057451873,0.2580821,0.002173306,0.113553906
0.057442855,0.257971549,0.002178717,0.113524768
0.057433807,0.257861218,0.002184151,0.113495325
0.057424726,0.257751111,0.002189608,0.113465582
0.057415614,0.257641231,0.002195087,0.11343554
0.057406469,0.257531581,0.002200588,0.113405202
0.057397291,0.257422164,0.002206111,0.113374571
0.05738808,0.257312981,0.002211655,0.113343648
0.057378835,0.257204035,0.002217221,0.113312434
0.057369556,0.257095326,0.002222807,0.113280931
0.057360241,0.256986857,0.002228414,0.11324914
0.057350891,0.256878628,0.002234042,0.113217061
0.057341504,0.256770639,0.002239689,0.113184695
0.05733208,0.256662892,0.002245355,0.113152042
0.057322618,0.256555387,0.00225104,0.113119104
0.057313116,0.256448126,0.002256744,0.113085879
0.057303575,0.256341109,0.002262466,0.113052369
0.057293995,0.256234338,0.002268205,0.113018575
0.057284374,0.256127814,0.002273962,0.112984498
0.057274714,0.25602154,0.002279734,0.112950137
0.057265013,0.255915518,0.002285524,0.112915494
0.057255273,0.255809754,0.002291328,0.11288057
0.057245494,0.255704253,0.002297149,0.112845365
0.057235677,0.25559902,0.002302984,0.11280988
0.057225824,0.25549406,0.002308835,0.112774118
0.057215934,0.25538938,0.002314699,0.11273808
0.057206011,0.255284986,0.002320578,0.11270177
0.057196056,0.255180885,0.002326472,0.112665189
0.057186069,0.255077085,0.002332379,0.112628339
0.057176052,0.254973593,0.002338299,0.112591221
0.057166006,0.254870415,0.002344233,0.112553838
0.057155932,0.25476756,0.00235018,0.112516188
0.057145832,0.254665033,0.00235614,0.112478275
0.057135706,0.254562842,0.002362112,0.112440098
0.057125555,0.254460992,0.002368096,0.112401658
0.057115381,0.254359487,0.002374092,0.112362956
0.057105184,0.254258335,0.0023801,0.112323992
0.057094968,0.254157538,0.002386119,0.112284767
0.057084732,0.254057102,0.002392148,0.11224528
0.057074478,0.25395703,0.002398188,0.112205533
0.057064208,0.253857326,0.002404238,0.112165524
0.057053923,0.253757995,0.002410297,0.112125253
0.057043624,0.253659041,0.002416366,0.11208472
0.057033312,0.25356047,0.002422443,0.112043924
0.05702299,0.253462285,0.00242853,0.112002865
0.057012659,0.253364492,0.002434624,0.111961543
0.05700232,0.253267094,0.002440727,0.111919958
0.056991975,0.253170094,0.002446839,0.11187811
0.056981625,0.253073496,0.002452958,0.111835999
0.056971271,0.252977303,0.002459085,0.111793626
0.056960915,0.252881517,0.00246522,0.111750989
0.056950558,0.252786141,0.002471362,0.111708089
0.056940202,0.252691177,0.002477511,0.111664925
0.056929848,0.25259663,0.002483667,0.111621497
0.056919498,0.2525025,0.00248983,0.111577803
0.056909152,0.252408789,0.002495999,0.111533844
0.056898813,0.252315501,0.002502174,0.111489617
0.056888482,0.252222635,0.002508356,0.111445123
0.056878161,0.252130194,0.002514543,0.11140036
0.056867851,0.252038178,0.002520736,0.111355326
0.056857555,0.251946591,0.002526934,0.111310021
0.056847273,0.251855435,0.002533138,0.111264444
0.056837007,0.251764712,0.002539346,0.111218593
0.056826759,0.251674425,0.002545559,0.111172467
0.056816531,0.251584576,0.002551777,0.111126067
0.056806323,0.251495166,0.002557998,0.11107939
0.056796136,0.251406196,0.002564224,0.111032437
0.056785972,0.251317669,0.002570454,0.110985206
0.056775832,0.251229584,0.002576686,0.110937696
0.056765716,0.251141943,0.002582922,0.110889908
0.056755626,0.251054746,0.002589161,0.110841841
0.056745561,0.250967994,0.002595403,0.110793495
0.056735524,0.250881686,0.002601648,0.11074487
0.056725514,0.250795825,0.002607895,0.110695968
0.056715532,0.25071041,0.002614144,0.11064679
0.05670558,0.250625444,0.002620395,0.110597337
0.056695658,0.250540928,0.002626648,0.110547611
0.056685766,0.250456865,0.002632902,0.110497617
0.056675905,0.250373256,0.002639157,0.110447355
0.056666077,0.250290105,0.002645413,0.110396831
0.056656281,0.250207413,0.002651669,0.110346046
0.05664652,0.250125182,0.002657925,0.110295005
0.056636793,0.250043415,0.002664179,0.110243711
0.056627103,0.249962113,0.002670433,0.110192169
0.056617449,0.24988128,0.002676685,0.110140381
0.056607834,0.249800916,0.002682935,0.110088352
0.056598259,0.249721024,0.002689182,0.110036086
0.056588726,0.249641605,0.002695427,0.109983585
0.056579237,0.24956266,0.002701668,0.109930854
0.056569793,0.249484191,0.002707907,0.109877895
0.056560396,0.249406199,0.002714142,0.109824712
0.056551048,0.249328685,0.002720374,0.109771309
0.056541751,0.249251649,0.002726601,0.109717687
0.056532507,0.249175092,0.002732825,0.109663851
0.056523318,0.249099016,0.002739044,0.109609803
0.056514185,0.249023422,0.002745258,0.109555546
0.056505112,0.24894831,0.002751467,0.109501084
0.056496099,0.248873683,0.002757671,0.109446419
0.056487148,0.248799542,0.002763869,0.109391554
0.056478261,0.248725888,0.002770062,0.109336491
0.05646944,0.248652723,0.002776247,0.109281233
0.056460686,0.248580048,0.002782426,0.109225782
0.056452001,0.248507865,0.002788598,0.10917014
0.056443386,0.248436177,0.002794761,0.109114311
0.056434843,0.248364987,0.002800916,0.109058297
0.056426374,0.248294297,0.002807063,0.109002102
0.05641798,0.248224113,0.0028132,0.108945727
0.056409663,0.24815444,0.002819327,0.108889177
0.056401423,0.248085284,0.002825445,0.108832454
0.056393262,0.24801665,0.002831552,0.108775564
0.056385181,0.247948545,0.002837649,0.108718507
0.056377183,0.247880974,0.002843736,0.108661289
0.056369269,0.247813944,0.002849812,0.108603912
0.056361439,0.24774746,0.002855878,0.10854638
0.056353697,0.247681529,0.002861932,0.108488694
0.056346042,0.247616156,0.002867976,0.108430858
0.056338478,0.247551349,0.002874007,0.108372874
0.056331004,0.247487113,0.002880028,0.108314746
0.056323622,0.247423454,0.002886036,0.108256476
0.056316334,0.247360378,0.002892031,0.108198067
0.05630914,0.247297889,0.002898014,0.108139523
0.056302041,0.247235995,0.002903984,0.108080847
0.056295038,0.2471747,0.002909941,0.108022042
0.056288132,0.247114008,0.002915884,0.107963113
0.056281324,0.247053925,0.002921813,0.107904064
0.056274614,0.246994454,0.002927728,0.107844899
0.056268002,0.2469356,0.002933629,0.107785624
0.05626149,0.246877364,0.002939515,0.107726243
0.056255077,0.246819751,0.002945387,0.107666761
0.056248765,0.246762763,0.002951245,0.107607184
0.056242555,0.246706403,0.002957087,0.107547516
0.056236446,0.246650675,0.002962913,0.107487763
0.056230441,0.24659558,0.002968723,0.10742793
0.056224539,0.246541121,0.002974517,0.107368021
0.056218742,0.2464873,0.002980295,0.107308042
0.056213052,0.246434118,0.002986056,0.107248001
0.056207468,0.246381577,0.002991799,0.107187903
0.056201993,0.246329677,0.002997526,0.107127754
0.056196627,0.246278421,0.003003234,0.107067563
0.056191372,0.246227808,0.003008925,0.107007335
0.056186228,0.246177841,0.003014598,0.106947077
0.056181198,0.246128521,0.003020253,0.106886795
0.056176282,0.246079847,0.003025889,0.106826497
0.056171481,0.246031823,0.003031505,0.106766189
0.056166798,0.245984451,0.003037103,0.106705876
0.056162232,0.245937731,0.003042681,0.106645566
0.056157786,0.245891666,0.003048238,0.106585263
0.05615346,0.245846258,0.003053775,0.106524974
0.056149255,0.245801506,0.003059292,0.106464706
0.056145172,0.245757413,0.003064787,0.106404463
0.056141211,0.245713978,0.003070261,0.106344251
0.056137374,0.245671201,0.003075713,0.106284077
0.05613366,0.245629081,0.003081143,0.106223946
0.05613007,0.245587619,0.003086551,0.106163864
0.056126606,0.245546815,0.003091937,0.106103836
0.056123267,0.245506668,0.0030973,0.106043868
0.056120054,0.245467178,0.00310264,0.105983965
0.056116968,0.245428344,0.003107957,0.105924131
0.05611401,0.245390165,0.00311325,0.105864372
0.056111179,0.24535264,0.00311852,0.10580469
0.056108479,0.245315769,0.003123766,0.105745092
0.056105908,0.24527955,0.003128988,0.105685579
0.056103469,0.245243984,0.003134186,0.105626155
0.056101163,0.245209069,0.00313936,0.105566825
0.05609899,0.245174805,0.003144508,0.10550759
0.056096952,0.245141192,0.003149632,0.105448454
0.05609505,0.245108231,0.00315473,0.105389421
0.056093285,0.245075923,0.003159802,0.105330494
0.056091658,0.245044267,0.003164849,0.105271679
0.056090171,0.245013263,0.003169869,0.10521298
0.056088823,0.244982912,0.003174863,0.105154403
0.056087616,0.244953212,0.003179831,0.105095952
0.05608655,0.244924162,0.003184772,0.105037633
0.056085627,0.244895762,0.003189686,0.104979451
0.056084846,0.24486801,0.003194573,0.104921411
0.056084209,0.244840905,0.003199434,0.104863517
0.056083716,0.244814445,0.003204267,0.104805772
0.056083367,0.244788629,0.003209072,0.104748183
0.056083164,0.244763455,0.003213849,0.104690751
0.056083105,0.24473892,0.003218598,0.104633482
0.056083193,0.244715022,0.003223318,0.104576377
0.056083426,0.244691758,0.00322801,0.104519441
0.056083805,0.244669127,0.003232672,0.104462677
0.05608433,0.244647126,0.003237305,0.104406086
0.056085002,0.244625753,0.003241907,0.104349671
0.056085819,0.244605005,0.00324648,0.104293436
0.056086783,0.244584881,0.003251022,0.104237383
0.056087893,0.244565378,0.003255533,0.104181516
0.056089149,0.244546495,0.003260012,0.104125841
0.056090551,0.244528231,0.00326446,0.104070361
0.056092099,0.244510584,0.003268876,0.104015082
0.056093792,0.244493554,0.003273259,0.103960007
0.056095631,0.244477141,0.003277609,0.103905141
0.056097614,0.244461344,0.003281926,0.103850489
0.056099742,0.244446164,0.003286209,0.103796053
0.056102013,0.244431601,0.003290459,0.103741838
0.056104426,0.244417654,0.003294673,0.103687847
0.056106982,0.244404325,0.003298854,0.103634082
0.056109679,0.244391612,0.003302999,0.103580547
0.056112517,0.244379518,0.003307108,0.103527245
0.056115494,0.244368043,0.003311182,0.103474176
0.056118609,0.244357188,0.00331522,0.103421344
0.056121861,0.244346953,0.003319221,0.103368751
0.05612525,0.244337337,0.003323186,0.103316399
0.056128773,0.24432834,0.003327113,0.103264291
0.05613243,0.244319962,0.003331003,0.103212431
0.05613622,0.244312203,0.003334856,0.103160822
0.05614014,0.244305063,0.00333867,0.103109468
0.05614419,0.244298547,0.003342446,0.103058374
0.056148369,0.244292657,0.003346184,0.103007544
0.056152674,0.244287398,0.003349883,0.102956981
0.056157105,0.244282773,0.003353543,0.10290669
0.05616166,0.244278788,0.003357164,0.102856674
0.056166336,0.244275447,0.003360746,0.102806939
0.056171133,0.244272752,0.003364288,0.102757488
0.056176047,0.244270709,0.00336779,0.102708325
0.056181079,0.244269319,0.003371253,0.102659456
0.056186224,0.244268586,0.003374675,0.102610883
0.056191482,0.244268511,0.003378056,0.102562611
0.05619685,0.244269096,0.003381397,0.102514642
0.056202327,0.244270343,0.003384698,0.102466981
0.05620791,0.244272253,0.003387957,0.10241963
0.056213596,0.244274826,0.003391175,0.102372593
0.056219385,0.244278064,0.003394352,0.102325874
0.056225274,0.244281966,0.003397487,0.102279477
0.056231261,0.244286533,0.003400581,0.102233404
0.056237343,0.244291764,0.003403633,0.102187659
0.056243519,0.244297659,0.003406643,0.102142244
0.056249787,0.244304217,0.00340961,0.102097163
0.056256144,0.244311437,0.003412536,0.102052417
0.056262589,0.244319319,0.003415418,0.102008011
0.05626912,0.244327863,0.003418258,0.101963947
0.056275734,0.244337067,0.003421055,0.101920227
0.056282431,0.244346931,0.003423809,0.101876855
0.056289207,0.244357453,0.00342652,0.101833833
0.056296062,0.244368633,0.003429188,0.101791162
0.056302993,0.244380467,0.003431814,0.101748846
0.056309998,0.244392954,0.003434397,0.101706888
0.056317076,0.244406091,0.003436937,0.101665289
0.056324225,0.244419876,0.003439435,0.101624052
0.056331442,0.244434305,0.00344189,0.101583181
0.056338726,0.244449375,0.003444302,0.101542679
0.056346075,0.244465082,0.003446672,0.101502549
0.056353488,0.244481425,0.003448998,0.101462796
0.056360962,0.2444984,0.003451281,0.101423423
0.056368496,0.244516007,0.003453521,0.101384434
0.056376087,0.244534244,0.003455717,0.101345833
0.056383734,0.244553108,0.00345787,0.101307623
0.056391435,0.2445726,0.003459979,0.101269807
0.056399188,0.244592717,0.003462044,0.101232389
0.05640699,0.244613459,0.003464066,0.101195371
0.05641484,0.244634825,0.003466044,0.101158755
0.056422734,0.244656812,0.003467978,0.101122543
0.056430671,0.244679419,0.003469869,0.101086738
0.056438649,0.244702644,0.003471716,0.101051339
0.056446665,0.244726485,0.003473521,0.101016349
0.056454716,0.244750941,0.003475282,0.100981769
0.056462801,0.244776011,0.003477,0.1009476
0.056470915,0.244801693,0.003478676,0.100913843
0.056479058,0.244827987,0.00348031,0.100880499
0.056487226,0.244854892,0.003481903,0.10084757
0.056495417,0.244882405,0.003483454,0.100815059
0.056503629,0.244910525,0.003484964,0.100782967
0.056511859,0.24493925,0.003486433,0.100751301
0.056520105,0.244968578,0.003487861,0.100720064
0.056528365,0.244998506,0.003489249,0.10068926
0.056536636,0.245029033,0.003490598,0.100658895
0.056544917,0.245060156,0.003491907,0.100628974
0.056553204,0.245091873,0.003493176,0.100599502
0.056561497,0.245124185,0.003494406,0.100570485
0.056569794,0.24515709,0.003495598,0.100541928
0.056578092,0.24519059,0.00349675,0.100513836
0.05658639,0.245224683,0.003497864,0.100486213
0.056594687,0.245259372,0.00349894,0.100459065
0.05660298,0.245294654,0.003499978,0.100432394
0.056611268,0.245330531,0.003500978,0.100406206
0.056619549,0.245367002,0.00350194,0.100380502
0.056627822,0.245404066,0.003502865,0.100355287
0.056636084,0.245441723,0.003503752,0.100330564
0.056644334,0.24547997,0.003504602,0.100306337
0.056652569,0.245518807,0.003505416,0.100282609
0.056660789,0.245558231,0.003506192,0.100259382
0.05666899,0.24559824,0.003506933,0.100236662
0.056677171,0.245638833,0.003507636,0.100214449
0.05668533,0.245680007,0.003508304,0.100192748
0.056693465,0.24572176,0.003508935,0.100171562
0.056701574,0.245764092,0.00350953,0.100150893
0.056709655,0.245807001,0.003510089,0.100130746
0.056717707,0.245850485,0.003510612,0.100111123
0.056725727,0.245894544,0.003511101,0.10009203
0.056733713,0.245939176,0.003511554,0.100073469
0.056741663,0.245984377,0.003511974,0.100055444
0.056749574,0.246030146,0.00351236,0.10003796
0.056757445,0.246076481,0.003512713,0.100021021
0.056765273,0.246123379,0.003513032,0.100004632
0.056773057,0.246170838,0.003513319,0.099988798
0.056780794,0.246218858,0.003513572,0.099973523
0.056788481,0.246267436,0.003513794,0.099958812
0.056796118,0.246316571,0.003513983,0.099944671
0.056803702,0.246366262,0.00351414,0.099931105
0.056811231,0.246416508,0.003514266,0.099918117
0.056818704,0.246467307,0.00351436,0.099905714
0.056826117,0.246518656,0.003514424,0.099893898
0.05683347,0.246570554,0.003514456,0.099882675
0.056840759,0.246622998,0.003514458,0.099872048
0.056847983,0.246675985,0.003514431,0.099862022
0.05685514,0.246729512,0.003514373,0.099852601
0.056862228,0.246783577,0.003514286,0.099843789
0.056869244,0.246838176,0.00351417,0.099835591
0.056876186,0.246893306,0.003514025,0.099828011
0.056883053,0.246948964,0.003513851,0.099821053
0.056889841,0.247005146,0.003513649,0.099814721
0.05689655,0.247061851,0.003513418,0.099809017
0.056903177,0.247119077,0.00351316,0.099803945
0.05690972,0.247176822,0.003512873,0.099799508
0.056916177,0.247235085,0.003512559,0.099795707
0.056922548,0.247293863,0.003512216,0.099792546
0.05692883,0.247353154,0.003511846,0.099790027
0.056935023,0.247412958,0.003511448,0.099788149
0.056941126,0.24747327,0.003511022,0.099786916
0.056947137,0.24753409,0.003510568,0.099786327
0.056953057,0.247595414,0.003510088,0.099786383
0.056958884,0.24765724,0.003509581,0.099787086
0.056964618,0.247719565,0.003509047,0.099788435
0.056970259,0.247782387,0.003508488,0.099790431
0.056975805,0.247845703,0.003507904,0.099793075
0.056981257,0.24790951,0.003507295,0.099796366
0.056986614,0.247973805,0.003506662,0.099800304
0.056991875,0.248038586,0.003506006,0.09980489
0.05699704,0.248103849,0.003505326,0.099810122
0.057002109,0.248169592,0.003504623,0.099816
0.05700708,0.248235811,0.003503898,0.099822523
0.057011954,0.248302505,0.00350315,0.099829692
0.057016729,0.24836967,0.003502381,0.099837504
0.057021406,0.248437302,0.00350159,0.09984596
0.057025985,0.2485054,0.003500778,0.099855059
0.057030465,0.248573959,0.003499945,0.099864798
0.057034846,0.248642979,0.003499091,0.099875178
0.057039128,0.248712459,0.003498216,0.099886196
0.057043312,0.248782395,0.003497322,0.099897852
0.057047399,0.248852787,0.003496409,0.099910144
0.057051388,0.248923634,0.003495478,0.099923072
0.057055281,0.248994934,0.003494528,0.099936636
0.057059078,0.249066686,0.003493561,0.099950835
0.05706278,0.249138888,0.003492578,0.099965668
0.057066389,0.249211539,0.003491578,0.099981136
0.057069904,0.249284635,0.003490562,0.099997236
0.057073327,0.249358174,0.003489531,0.100013967
0.057076659,0.249432153,0.003488485,0.100031329
0.057079901,0.249506569,0.003487424,0.100049319
0.057083054,0.249581419,0.003486349,0.100067936
0.057086117,0.249656697,0.003485259,0.100087179
0.057089094,0.249732402,0.003484157,0.100107047
0.057091983,0.249808528,0.003483041,0.100127539
0.057094785,0.249885072,0.003481912,0.100148651
0.057097503,0.249962029,0.003480771,0.100170383
0.057100135,0.250039397,0.003479618,0.100192732
0.057102683,0.250117174,0.003478453,0.100215695
0.057105148,0.250195358,0.003477278,0.100239271
0.057107532,0.250273951,0.003476092,0.100263456
0.057109834,0.250352955,0.003474895,0.100288247
0.057112057,0.250432371,0.003473688,0.100313642
0.057114203,0.250512202,0.003472472,0.100339637
0.057116272,0.250592448,0.003471245,0.100366231
0.057118266,0.250673112,0.003470009,0.10039342
0.057120186,0.250754194,0.003468764,0.100421201
0.057122035,0.250835695,0.003467509,0.100449573
0.057123813,0.250917617,0.003466246,0.100478533
0.057125521,0.250999961,0.003464975,0.100508079
0.057127161,0.251082726,0.003463695,0.100538211
0.057128733,0.251165913,0.003462407,0.100568927
0.057130239,0.251249522,0.003461111,0.100600227
0.057131679,0.251333552,0.003459808,0.100632109
0.057133054,0.251418004,0.003458498,0.100664572
0.057134365,0.251502878,0.003457181,0.100697615
0.057135613,0.251588173,0.003455858,0.100731237
0.057136798,0.251673891,0.003454529,0.100765438
0.057137921,0.25176003,0.003453194,0.100800216
0.057138981,0.251846593,0.003451853,0.100835573
0.05713998,0.25193358,0.003450507,0.100871507
0.057140918,0.252020989,0.003449156,0.100908022
0.057141794,0.252108821,0.0034478,0.100945116
0.057142609,0.252197076,0.003446439,0.100982792
0.057143363,0.252285752,0.003445074,0.10102105
0.057144056,0.25237485,0.003443704,0.10105989
0.057144689,0.252464368,0.00344233,0.101099312
0.05714526,0.252554305,0.003440951,0.101139318
0.057145772,0.252644661,0.003439569,0.101179907
0.057146223,0.252735435,0.003438183,0.101221078
0.057146616,0.252826628,0.003436793,0.101262834
0.057146952,0.252918238,0.0034354,0.101305172
0.057147231,0.253010266,0.003434003,0.101348094
0.057147454,0.25310271,0.003432603,0.101391598
0.057147624,0.253195568,0.003431201,0.101435687
0.057147743,0.253288841,0.003429796,0.101480359
0.057147813,0.253382525,0.00342839,0.101525614
0.057147835,0.253476619,0.003426982,0.101571454
0.057147811,0.253571122,0.003425574,0.101617877
0.057147745,0.253666029,0.003424165,0.101664886
0.057147636,0.253761339,0.003422755,0.10171248
0.057147489,0.253857049,0.003421345,0.101760659
0.057147305,0.253953157,0.003419935,0.101809424
0.057147086,0.254049659,0.003418525,0.101858776
0.057146834,0.254146553,0.003417116,0.101908715
0.057146553,0.254243835,0.003415707,0.101959242
0.057146242,0.254341502,0.003414298,0.102010359
0.057145905,0.254439551,0.003412891,0.102062067
0.057145543,0.254537979,0.003411486,0.102114369
0.057145158,0.254636782,0.003410083,0.102167266
0.057144751,0.254735957,0.003408682,0.10222076
0.057144323,0.254835502,0.003407283,0.102274853
0.057143877,0.254935414,0.003405888,0.102329545
0.057143414,0.255035691,0.003404497,0.102384838
0.057142935,0.255136333,0.003403109,0.102440733
0.057142442,0.255237336,0.003401724,0.102497229
0.057141936,0.2553387,0.003400344,0.102554328
0.057141418,0.255440423,0.003398968,0.10261203
0.05714089,0.255542503,0.003397596,0.102670335
0.057140353,0.255644936,0.003396229,0.102729243
0.057139808,0.255747722,0.003394868,0.102788753
0.057139258,0.255850859,0.003393511,0.102848865
0.057138704,0.255954344,0.003392159,0.102909577
0.057138148,0.256058177,0.003390813,0.102970888
0.057137593,0.256162357,0.003389472,0.103032796
0.057137041,0.256266884,0.003388138,0.1030953
0.057136495,0.256371757,0.00338681,0.103158396
0.057135958,0.256476979,0.003385488,0.103222083
0.057135434,0.25658255,0.003384174,0.103286358
0.057134926,0.256688473,0.003382868,0.103351218
0.057134438,0.25679475,0.003381569,0.103416662
0.057133972,0.256901382,0.003380279,0.103482687
0.057133532,0.257008371,0.003378998,0.10354929
0.057133122,0.257115718,0.003377726,0.103616468
0.057132745,0.257223422,0.003376463,0.103684219
0.057132404,0.257331484,0.00337521,0.103752539
0.057132103,0.257439902,0.003373966,0.103821424
0.057131845,0.257548675,0.003372732,0.103890872
0.057131634,0.257657801,0.003371508,0.103960878
0.057131474,0.257767278,0.003370293,0.104031439
0.057131366,0.257877104,0.003369089,0.104102549
0.057131314,0.257987273,0.003367895,0.104174205
0.05713132,0.258097784,0.003366711,0.104246402
0.057131389,0.258208632,0.003365538,0.104319136
0.057131521,0.258319811,0.003364376,0.104392403
0.05713172,0.258431319,0.003363224,0.104466198
0.057131988,0.25854315,0.003362083,0.104540516
0.057132327,0.2586553,0.003360953,0.104615352
0.057132739,0.258767765,0.003359834,0.104690701
0.057133226,0.258880542,0.003358725,0.104766556
0.05713379,0.258993624,0.003357627,0.104842913
0.057134433,0.259107008,0.00335654,0.104919766
0.057135157,0.259220687,0.003355464,0.104997107
0.057135964,0.259334655,0.003354399,0.10507493
0.057136856,0.259448907,0.003353343,0.10515323
0.057137833,0.259563435,0.003352299,0.105232
0.0571389,0.259678233,0.003351265,0.105311234
0.057140056,0.259793294,0.003350241,0.105390925
0.057141304,0.25990861,0.003349228,0.105471067
0.057142645,0.260024174,0.003348225,0.105551653
0.057144082,0.260139979,0.003347233,0.105632674
0.057145617,0.260256015,0.003346251,0.105714125
0.05714725,0.260372276,0.00334528,0.105795998
0.057148984,0.260488751,0.003344321,0.105878284
0.057150821,0.260605434,0.003343371,0.105960977
0.057152762,0.260722316,0.003342433,0.106044068
0.057154809,0.260839388,0.003341504,0.10612755
0.057156964,0.260956644,0.003340586,0.106211415
0.057159228,0.261074075,0.003339678,0.106295655
0.057161602,0.261191677,0.003338781,0.106380262
0.057164087,0.261309443,0.003337893,0.106465229
0.057166685,0.26142737,0.003337015,0.106550547
0.057169397,0.261545456,0.003336147,0.106636209
0.057172224,0.261663702,0.003335289,0.106722207
0.057175167,0.261782107,0.00333444,0.106808531
0.057178228,0.261900673,0.003333601,0.106895175
0.057181407,0.262019401,0.003332771,0.106982128
0.057184705,0.262138296,0.003331951,0.107069384
0.057188125,0.262257361,0.00333114,0.107156932
0.057191666,0.262376598,0.003330338,0.107244766
0.057195331,0.26249601,0.003329546,0.107332876
0.057199121,0.262615602,0.003328762,0.107421257
0.057203038,0.262735375,0.003327989,0.107509901
0.057207083,0.262855332,0.003327224,0.107598801
0.057211258,0.262975477,0.003326469,0.107687951
0.057215565,0.263095813,0.003325723,0.107777345
0.057220005,0.263216343,0.003324987,0.107866976
0.057224579,0.263337071,0.00332426,0.107956838
0.05722929,0.263458002,0.003323543,0.108046925
0.057234138,0.263579141,0.003322834,0.108137231
0.057239124,0.263700491,0.003322135,0.108227752
0.057244251,0.263822056,0.003321445,0.108318483
0.057249519,0.26394384,0.003320765,0.10840942
0.057254929,0.264065846,0.003320093,0.108500559
0.057260482,0.264188078,0.003319431,0.108591897
0.057266178,0.26431054,0.003318778,0.108683431
0.057272019,0.264433236,0.003318134,0.108775156
0.057278005,0.264556169,0.003317499,0.10886707
0.057284138,0.264679345,0.003316873,0.108959169
0.057290418,0.264802768,0.003316256,0.109051452
0.057296846,0.264926441,0.003315647,0.109143917
0.057303424,0.265050371,0.003315047,0.109236563
0.057310152,0.265174565,0.003314455,0.109329387
0.057317032,0.265299028,0.003313871,0.109422388
0.057324064,0.26542377,0.003313297,0.109515566
0.057331251,0.265548797,0.003312731,0.109608919
0.057338592,0.265674116,0.003312174,0.109702449
0.057346088,0.265799732,0.003311627,0.109796157
0.057353742,0.265925652,0.003311089,0.109890042
0.057361552,0.266051881,0.00331056,0.109984106
0.05736952,0.266178424,0.00331004,0.110078348
0.057377646,0.266305288,0.003309531,0.11017277
0.057385932,0.266432477,0.00330903,0.110267372
0.057394377,0.266559994,0.003308539,0.110362153
0.057402982,0.266687845,0.003308057,0.110457112
0.057411748,0.266816035,0.003307585,0.110552248
0.057420675,0.266944565,0.003307121,0.110647561
0.057429764,0.26707344,0.003306667,0.110743047
0.057439014,0.267202663,0.003306222,0.110838707
0.057448426,0.267332234,0.003305785,0.110934536
0.057458,0.267462155,0.003305358,0.111030534
0.057467736,0.267592429,0.00330494,0.111126696
0.057477634,0.267723055,0.00330453,0.11122302
0.057487693,0.267854034,0.003304129,0.111319502
0.057497914,0.267985367,0.003303737,0.111416138
0.057508296,0.268117054,0.003303354,0.111512926
0.057518838,0.268249096,0.003302981,0.111609859
0.05752954,0.268381492,0.003302617,0.111706934
0.057540401,0.268514243,0.003302263,0.111804147
0.05755142,0.26864735,0.003301921,0.111901493
0.057562595,0.268780814,0.003301589,0.111998968
0.057573927,0.268914636,0.003301269,0.112096566
0.057585413,0.269048818,0.003300963,0.112194284
0.057597053,0.26918336,0.003300669,0.112292116
0.057608846,0.269318266,0.003300389,0.112390057
0.057620789,0.269453535,0.003300124,0.112488102
0.057632882,0.269589169,0.003299875,0.112586244
0.057645124,0.269725168,0.003299642,0.112684479
0.057657513,0.269861532,0.003299427,0.112782801
0.057670046,0.269998262,0.003299231,0.112881203
0.057682724,0.270135355,0.003299057,0.112979681
0.057695543,0.270272812,0.003298906,0.113078229
0.057708502,0.270410629,0.00329878,0.113176842
0.057721599,0.270548806,0.003298681,0.113275514
0.057734832,0.270687339,0.003298612,0.11337424
0.057748199,0.270826226,0.003298576,0.113473014
0.057761698,0.270965464,0.003298574,0.113571829
0.057775326,0.271105052,0.00329861,0.113670681
0.057789083,0.271244986,0.003298686,0.113769564
0.057802964,0.271385263,0.003298803,0.113868472
0.057816969,0.27152588,0.003298966,0.1139674
0.057831095,0.271666832,0.003299175,0.114066343
0.05784534,0.271808117,0.003299434,0.114165294
0.057859701,0.27194973,0.003299744,0.114264248
0.057874177,0.272091667,0.003300108,0.114363199
0.057888765,0.272233922,0.003300528,0.114462142
0.057903463,0.27237649,0.003301006,0.11456107
0.057918269,0.272519366,0.003301545,0.114659978
0.05793318,0.272662545,0.003302148,0.114758859
0.057948196,0.27280602,0.003302815,0.114857707
0.057963314,0.272949786,0.003303551,0.114956518
0.057978532,0.273093838,0.003304357,0.115055285
0.057993848,0.273238167,0.003305235,0.115154002
0.05800926,0.273382768,0.003306189,0.115252665
0.058024765,0.273527633,0.00330722,0.115351267
0.058040363,0.273672754,0.00330833,0.115449804
0.058056049,0.273818124,0.003309523,0.11554827
0.058071823,0.273963734,0.003310799,0.115646659
0.058087683,0.274109575,0.003312162,0.115744965
0.058103626,0.274255639,0.003313613,0.115843183
0.058119651,0.27440192,0.003315154,0.115941307
0.058135756,0.274548409,0.003316789,0.11603933
0.058151937,0.274695099,0.003318518,0.116137247
0.058168194,0.274841985,0.003320344,0.11623505
0.058184524,0.274989059,0.003322269,0.116332734
0.058200925,0.275136318,0.003324294,0.116430293
0.058217395,0.275283755,0.003326422,0.116527722
0.058233931,0.275431363,0.003328655,0.116625013
0.058250532,0.275579137,0.003330993,0.116722163
0.058267195,0.27572707,0.003333439,0.116819164
0.058283917,0.275875155,0.003335994,0.116916011
0.058300698,0.276023384,0.00333866,0.117012698
0.058317533,0.276171752,0.003341438,0.117109219
0.058334422,0.276320252,0.00334433,0.117205568
0.058351361,0.276468877,0.003347336,0.117301739
0.058368348,0.276617622,0.003350459,0.117397726
0.058385381,0.27676648,0.0033537,0.117493521
0.058402458,0.276915445,0.003357059,0.11758912
0.058419576,0.277064511,0.003360538,0.117684515
0.058436733,0.277213671,0.003364138,0.1177797
0.058453928,0.277362918,0.00336786,0.117874668
0.058471159,0.277512245,0.003371706,0.117969414
0.058488423,0.277661645,0.003375676,0.118063931
0.05850572,0.277811111,0.003379772,0.118158214
0.058523046,0.277960634,0.003383994,0.118252258
0.058540401,0.278110208,0.003388344,0.118346058
0.058557783,0.278259826,0.003392823,0.118439609
0.058575189,0.278409481,0.00339743,0.118532905
0.058592619,0.278559166,0.003402168,0.118625942
0.05861007,0.278708876,0.003407036,0.118718715
0.058627541,0.278858607,0.003412035,0.118811219
0.058645029,0.279008355,0.003417167,0.11890345
0.058662534,0.279158116,0.003422431,0.118995403
0.058680053,0.279307886,0.003427827,0.119087074
0.058697584,0.279457659,0.003433358,0.119178458
0.058715127,0.279607431,0.003439023,0.119269551
0.05873268,0.279757198,0.003444823,0.119360348
0.058750241,0.279906952,0.00345076,0.119450845
0.05876781,0.28005669,0.003456833,0.119541036
0.058785385,0.280206405,0.003463045,0.119630917
0.058802964,0.28035609,0.003469395,0.119720483
0.058820548,0.280505739,0.003475884,0.11980973
0.058838134,0.280655346,0.003482512,0.119898656
0.058855723,0.280804902,0.00348928,0.119987256
0.058873312,0.2809544,0.003496189,0.120075527
0.058890902,0.281103831,0.003503239,0.120163466
0.058908491,0.281253189,0.003510429,0.120251069
0.058926077,0.281402462,0.003517761,0.120338332
0.058943661,0.281551644,0.003525236,0.120425254
0.058961241,0.281700726,0.003532853,0.12051183
0.058978816,0.281849698,0.003540614,0.120598059
0.058996384,0.281998553,0.003548518,0.120683937
0.059013943,0.282147283,0.003556567,0.120769462
0.059031493,0.282295878,0.003564761,0.120854632
0.059049032,0.282444332,0.0035731,0.120939444
0.059066559,0.282592634,0.003581585,0.121023897
0.059084071,0.282740776,0.003590215,0.121107989
0.059101567,0.28288875,0.003598991,0.121191718
0.059119047,0.283036547,0.003607914,0.121275082
0.059136508,0.28318416,0.003616982,0.12135808
0.059153951,0.28333158,0.003626195,0.121440709
0.059171373,0.283478799,0.003635555,0.121522969
0.059188774,0.283625811,0.00364506,0.121604857
0.059206153,0.283772607,0.003654711,0.12168637
0.059223508,0.283919178,0.003664509,0.121767508
0.05924084,0.284065518,0.003674452,0.121848266
0.059258148,0.284211618,0.003684542,0.121928643
0.05927543,0.284357471,0.003694778,0.122008635
0.059292686,0.284503067,0.003705161,0.122088241
0.059309915,0.284648399,0.003715689,0.122167456
0.059327115,0.284793457,0.003726364,0.12224628
0.059344287,0.284938233,0.003737185,0.122324708
0.059361429,0.285082718,0.003748151,0.122402737
0.059378539,0.285226905,0.003759264,0.122480365
0.059395616,0.285370787,0.003770522,0.122557589
0.059412659,0.285514356,0.003781926,0.122634404
0.059429667,0.285657608,0.003793476,0.122710809
0.059446638,0.285800538,0.00380517,0.1227868
0.05946357,0.285943141,0.00381701,0.122862373
0.059480463,0.286085413,0.003828994,0.122937526
0.059497316,0.286227347,0.003841123,0.123012257
0.059514126,0.28636894,0.003853396,0.123086566
0.059530895,0.286510185,0.003865812,0.123160451
0.059547619,0.286651076,0.003878372,0.123233912
0.059564298,0.28679161,0.003891074,0.123306947
0.059580931,0.286931778,0.003903919,0.123379555
0.059597518,0.287071575,0.003916906,0.123451735
0.059614057,0.287210994,0.003930034,0.123523486
0.059630548,0.287350029,0.003943302,0.123594806
0.059646989,0.287488672,0.003956712,0.123665693
0.059663381,0.287626918,0.003970261,0.123736146
0.059679722,0.287764758,0.00398395,0.123806163
0.059696011,0.287902185,0.003997779,0.123875741
0.059712248,0.288039193,0.004011746,0.123944879
0.059728432,0.288175772,0.004025851,0.124013575
0.059744561,0.288311916,0.004040094,0.124081829
0.059760636,0.288447615,0.004054475,0.124149638
0.059776657,0.288582862,0.004068993,0.124217001
0.059792622,0.288717649,0.004083649,0.124283916
0.059808533,0.288851969,0.004098441,0.124350381
0.059824389,0.288985816,0.004113372,0.124416397
0.059840189,0.289119183,0.004128439,0.124481963
0.059855934,0.289252067,0.004143645,0.124547079
0.059871624,0.289384464,0.004158988,0.124611747
0.059887259,0.289516373,0.004174468,0.12467597
0.059902839,0.289647793,0.004190086,0.124739749
0.059918363,0.289778723,0.004205841,0.124803088
0.059933831,0.289909163,0.004221732,0.124865989
0.059949244,0.290039113,0.004237761,0.124928454
0.059964602,0.290168571,0.004253926,0.124990487
0.059979905,0.290297538,0.004270228,0.125052088
0.059995154,0.290426014,0.004286666,0.125113262
0.060010348,0.290553999,0.00430324,0.125174011
0.060025488,0.290681491,0.00431995,0.12523434
0.060040575,0.290808491,0.004336796,0.125294251
0.060055609,0.290934997,0.004353778,0.125353749
0.060070592,0.291061007,0.004370894,0.125412835
0.060085523,0.291186519,0.004388146,0.125471512
0.060100403,0.291311531,0.004405532,0.125529783
0.060115233,0.29143604,0.004423052,0.125587652
0.060130014,0.291560046,0.004440705,0.12564512
0.060144747,0.291683546,0.004458493,0.125702191
0.060159432,0.291806539,0.004476413,0.125758869
0.060174071,0.291929022,0.004494466,0.125815159
0.060188664,0.292050995,0.004512651,0.125871064
0.060203212,0.292172458,0.004530968,0.125926588
0.060217716,0.292293411,0.004549416,0.125981737
0.060232176,0.292413853,0.004567995,0.126036516
0.060246593,0.292533784,0.004586704,0.126090932
0.060260967,0.292653202,0.004605542,0.126144991
0.060275298,0.292772108,0.00462451,0.126198699
0.060289586,0.292890501,0.004643606,0.126252062
0.060303832,0.293008379,0.00466283,0.126305086
0.060318035,0.293125742,0.004682181,0.126357776
0.060332195,0.293242589,0.004701659,0.126410138
0.060346313,0.293358918,0.004721264,0.126462177
0.060360387,0.293474729,0.004740994,0.126513897
0.060374418,0.29359002,0.00476085,0.126565303
0.060388405,0.293704787,0.00478083,0.126616399
0.060402348,0.29381903,0.004800934,0.126667191
0.060416245,0.293932744,0.004821161,0.12671768
0.060430097,0.294045927,0.00484151,0.126767873
0.060443903,0.294158575,0.00486198,0.126817771
0.060457664,0.294270685,0.00488257,0.126867377
0.06047138,0.294382252,0.004903279,0.126916696
0.060485051,0.294493274,0.004924107,0.126965729
0.060498677,0.294603747,0.004945051,0.127014479
0.060512258,0.294713668,0.004966112,0.127062948
0.060525797,0.294823033,0.004987289,0.127111137
0.060539293,0.294931839,0.005008582,0.127159049
0.060552748,0.295040083,0.005029988,0.127206685
0.060566164,0.295147761,0.005051509,0.127254048
0.060579541,0.29525487,0.005073143,0.127301137
0.06059288,0.295361408,0.00509489,0.127347955
0.060606184,0.295467372,0.005116748,0.127394503
0.060619453,0.29557276,0.005138718,0.127440781
0.060632688,0.295677569,0.005160797,0.127486791
0.06064589,0.295781797,0.005182986,0.127532533
0.060659059,0.295885442,0.005205284,0.127578008
0.060672198,0.295988503,0.005227689,0.127623215
0.060685306,0.296090978,0.005250201,0.127668155
0.060698383,0.296192865,0.005272819,0.127712828
0.06071143,0.296294162,0.005295541,0.127757233
0.060724448,0.296394869,0.005318367,0.127801372
0.060737437,0.296494981,0.005341296,0.127845244
0.060750397,0.296594498,0.005364327,0.127888848
0.060763328,0.296693416,0.005387458,0.127932187
0.060776231,0.296791733,0.00541069,0.127975259
0.060789106,0.296889447,0.00543402,0.128018064
0.060801953,0.296986555,0.005457448,0.128060605
0.060814772,0.297083054,0.005480973,0.128102882
0.060827564,0.297178942,0.005504595,0.128144896
0.060840327,0.297274218,0.005528311,0.128186649
0.060853062,0.297368882,0.005552121,0.128228144
0.060865768,0.297462935,0.005576025,0.128269381
0.060878445,0.297556376,0.00560002,0.12831036
0.060891092,0.297649207,0.005624106,0.128351084
0.06090371,0.297741429,0.005648281,0.128391552
0.060916297,0.297833041,0.005672544,0.128431766
0.060928852,0.297924047,0.005696895,0.128471726
0.060941375,0.298014447,0.005721332,0.128511434
0.060953866,0.298104242,0.005745854,0.128550893
0.060966324,0.298193434,0.00577046,0.128590106
0.060978748,0.298282025,0.005795149,0.128629078
0.060991137,0.298370016,0.005819921,0.12866781
0.061003492,0.298457408,0.005844773,0.128706307
0.06101581,0.298544205,0.005869706,0.128744572
0.061028092,0.298630406,0.005894717,0.128782611
0.061040336,0.298716014,0.005919806,0.128820426
0.061052541,0.298801027,0.005944972,0.128858024
0.061064706,0.298885447,0.005970214,0.128895409
0.06107683,0.298969274,0.005995531,0.128932586
0.061088912,0.299052508,0.006020921,0.128969558
0.06110095,0.299135149,0.006046383,0.129006331
0.061112943,0.299217194,0.006071917,0.12904291
0.061124889,0.299298643,0.006097519,0.129079301
0.061136788,0.299379495,0.00612319,0.12911551
0.061148638,0.299459746,0.006148927,0.129151542
0.061160437,0.299539395,0.00617473,0.129187402
0.061172185,0.299618438,0.006200596,0.129223096
0.061183879,0.299696875,0.006226524,0.129258628
0.061195518,0.299774701,0.006252514,0.129294001
0.061207102,0.299851915,0.006278563,0.129329222
0.061218628,0.299928513,0.00630467,0.129364291
0.061230095,0.300004494,0.006330833,0.129399215
0.061241503,0.300079855,0.006357052,0.129433995
0.061252849,0.300154596,0.006383325,0.129468636
0.061264133,0.300228716,0.00640965,0.129503142
0.061275354,0.300302216,0.006436026,0.129537519
0.06128651,0.300375097,0.006462452,0.12957177
0.061297602,0.30044736,0.006488926,0.129605902
0.061308629,0.300519008,0.006515447,0.129639917
0.061319592,0.300590042,0.006542015,0.129673822
0.061330489,0.300660464,0.006568626,0.12970762
0.061341322,0.300730274,0.006595281,0.129741316
0.06135209,0.300799475,0.006621977,0.129774915
0.061362793,0.300868068,0.006648714,0.129808421
0.061373432,0.300936054,0.006675491,0.12984184
0.061384007,0.301003436,0.006702305,0.129875175
0.061394518,0.301070218,0.006729155,0.129908431
0.061404966,0.301136404,0.006756041,0.129941611
0.061415351,0.301201999,0.00678296,0.129974721
0.061425672,0.301267009,0.006809912,0.130007764
0.061435931,0.301331439,0.006836894,0.130040745
0.061446126,0.301395293,0.006863906,0.130073669
0.061456259,0.301458578,0.006890945,0.130106543
0.061466329,0.301521298,0.006918011,0.130139372
0.061476336,0.301583458,0.006945101,0.130172162
0.061486279,0.301645064,0.006972214,0.13020492
0.061496158,0.30170612,0.00699935,0.130237652
0.061505974,0.301766632,0.007026504,0.130270365
0.061515726,0.301826603,0.007053678,0.130303064
0.061525414,0.301886039,0.007080867,0.130335757
0.061535038,0.301944944,0.007108072,0.13036845
0.061544597,0.302003322,0.007135291,0.130401151
0.061554092,0.302061178,0.007162522,0.130433868
0.061563522,0.302118519,0.007189765,0.130466607
0.061572888,0.302175348,0.007217017,0.130499377
0.061582189,0.302231673,0.007244277,0.130532185
0.061591425,0.3022875,0.007271545,0.130565038
0.061600596,0.302342837,0.007298818,0.130597944
0.061609702,0.302397691,0.007326095,0.130630909
0.061618742,0.30245207,0.007353375,0.13066394
0.061627718,0.30250598,0.007380657,0.130697043
0.061636628,0.302559429,0.007407938,0.130730225
0.061645473,0.302612423,0.007435217,0.13076349
0.061654252,0.302664967,0.007462493,0.130796846
0.061662965,0.302717068,0.007489765,0.130830299
0.061671612,0.30276873,0.00751703,0.130863857
0.061680192,0.30281996,0.007544287,0.130897525
0.061688706,0.302870762,0.007571535,0.130931309
0.061697152,0.302921143,0.007598772,0.130965217
0.061705531,0.302971107,0.007625997,0.130999252
0.061713843,0.30302066,0.007653208,0.131033421
0.061722087,0.303069808,0.007680404,0.131067728
0.061730264,0.303118558,0.007707584,0.131102177
0.061738373,0.303166918,0.007734745,0.131136773
0.061746416,0.303214894,0.007761889,0.131171518
0.061754391,0.303262494,0.007789012,0.131206417
0.061762299,0.303309726,0.007816114,0.131241472
0.061770142,0.303356596,0.007843195,0.131276687
0.061777918,0.303403114,0.007870252,0.131312064
0.06178563,0.303449287,0.007897285,0.131347605
0.061793277,0.303495124,0.007924293,0.131383311
0.061800859,0.303540633,0.007951275,0.131419185
0.061808378,0.303585823,0.00797823,0.131455226
0.061815834,0.303630699,0.008005156,0.131491436
0.061823227,0.30367527,0.008032053,0.131527815
0.061830559,0.303719543,0.00805892,0.131564363
0.061837829,0.303763524,0.008085756,0.131601081
0.061845038,0.30380722,0.008112559,0.131637969
0.061852187,0.303850639,0.008139328,0.131675026
0.061859275,0.303893786,0.008166063,0.131712253
0.061866304,0.30393667,0.008192762,0.131749649
0.061873272,0.303979298,0.008219424,0.131787216
0.061880181,0.30402168,0.008246049,0.131824952
0.061887031,0.304063826,0.008272635,0.131862858
0.061893821,0.304105747,0.00829918,0.131900933
0.061900552,0.304147456,0.008325685,0.131939176
0.061907223,0.304188967,0.008352148,0.131977587
0.061913835,0.304230294,0.008378567,0.132016167
0.061920387,0.304271448,0.008404942,0.132054915
0.061926879,0.304312445,0.008431271,0.132093833
0.061933311,0.304353296,0.008457555,0.132132921
0.061939682,0.304394015,0.008483791,0.132172178
0.061945992,0.304434614,0.008509979,0.132211605
0.061952241,0.304475107,0.008536119,0.1322512
0.061958429,0.304515506,0.00856221,0.132290965
0.061964555,0.304555823,0.008588251,0.132330898
0.061970619,0.30459607,0.008614242,0.132370999
0.06197662,0.30463626,0.008640183,0.132411269
0.061982559,0.304676403,0.008666073,0.132451707
0.061988435,0.304716513,0.008691913,0.132492311
0.061994246,0.304756601,0.008717703,0.132533081
0.061999994,0.304796678,0.008743441,0.132574016
0.062005676,0.304836755,0.008769129,0.132615115
0.062011292,0.304876842,0.008794765,0.132656377
0.062016843,0.304916948,0.008820351,0.132697799
0.062022326,0.304957085,0.008845887,0.132739381
0.062027743,0.30499726,0.008871372,0.132781122
0.062033092,0.305037484,0.008896807,0.132823021
0.062038372,0.305077763,0.008922192,0.132865077
0.062043584,0.305118107,0.008947528,0.132907291
0.062048726,0.305158524,0.008972815,0.132949664
0.062053798,0.305199021,0.008998052,0.132992196
0.062058799,0.305239604,0.009023242,0.13303489
0.062063728,0.305280281,0.009048382,0.133077747
0.062068584,0.305321058,0.009073475,0.133120769
0.062073366,0.305361942,0.009098519,0.133163958
0.062078073,0.305402938,0.009123516,0.133207315
0.062082703,0.305444053,0.009148465,0.133250844
0.062087256,0.30548529,0.009173366,0.133294545
0.062091731,0.305526657,0.00919822,0.133338421
0.062096125,0.305568159,0.009223027,0.133382475
0.062100438,0.305609803,0.009247786,0.133426707
0.062104669,0.305651593,0.009272497,0.13347112
0.062108816,0.305693536,0.009297162,0.133515716
0.062112877,0.305735638,0.009321779,0.133560495
0.062116852,0.305777904,0.00934635,0.13360546
0.062120738,0.30582034,0.009370874,0.133650611
0.062124535,0.305862952,0.009395351,0.133695949
0.06212824,0.305905744,0.009419781,0.133741476
0.062131852,0.305948721,0.009444166,0.13378719
0.062135369,0.305991887,0.009468504,0.133833093
0.062138791,0.306035246,0.009492795,0.133879183
0.062142114,0.306078802,0.009517041,0.13392546
0.062145339,0.306122559,0.009541239,0.133971923
0.062148463,0.306166519,0.009565392,0.134018573
0.062151485,0.306210685,0.009589497,0.134065407
0.062154403,0.306255061,0.009613556,0.134112426
0.062157216,0.306299647,0.009637567,0.134159626
0.062159922,0.306344445,0.009661531,0.134207008
0.062162519,0.306389457,0.009685448,0.134254569
0.062165006,0.306434683,0.009709317,0.134302308
0.062167382,0.306480124,0.009733139,0.134350222
0.062169644,0.306525779,0.009756912,0.134398311
0.062171791,0.306571647,0.009780638,0.134446572
0.062173822,0.306617728,0.009804315,0.134495005
0.062175734,0.306664021,0.009827944,0.134543607
0.062177526,0.306710526,0.009851524,0.134592377
0.062179195,0.306757241,0.009875055,0.134641313
0.062180741,0.306804164,0.009898536,0.134690414
0.062182161,0.306851294,0.009921967,0.134739677
0.062183454,0.306898629,0.009945349,0.134789101
0.062184617,0.306946167,0.00996868,0.134838683
0.06218565,0.306993905,0.009991959,0.134888421
0.062186549,0.30704184,0.010015188,0.134938313
0.062187315,0.30708997,0.010038366,0.134988357
0.062187944,0.307138293,0.010061493,0.135038552
0.062188436,0.307186805,0.010084568,0.135088896
0.062188788,0.307235504,0.010107592,0.135139386
0.062189,0.307284387,0.010130564,0.135190022
0.06218907,0.307333452,0.010153484,0.135240802
0.062188995,0.307382694,0.010176352,0.135291728
0.062188775,0.307432113,0.010199167,0.135342798
0.062188407,0.307481702,0.010221931,0.135394013
0.06218789,0.307531459,0.010244641,0.135445376
0.062187223,0.307581379,0.010267298,0.135496886
0.062186403,0.307631459,0.010289902,0.135548543
0.06218543,0.307681696,0.010312452,0.135600348
0.062184301,0.307732089,0.010334949,0.1356523
0.062183015,0.307782636,0.010357392,0.135704398
0.062181571,0.307833337,0.010379781,0.135756641
0.062179967,0.307884191,0.010402116,0.135809027
0.0621782,0.3079352,0.010424397,0.135861555
0.062176271,0.307986365,0.010446624,0.135914222
0.062174177,0.308037686,0.010468796,0.135967026
0.062171917,0.308089165,0.010490915,0.136019966
0.062169488,0.308140801,0.010512979,0.136073039
0.06216689,0.308192598,0.010534989,0.136126242
0.06216412,0.308244555,0.010556945,0.136179572
0.062161177,0.308296675,0.010578846,0.136233028
0.062158059,0.308348963,0.010600693,0.136286606
0.062154765,0.30840142,0.010622486,0.136340305
0.062151293,0.308454049,0.010644223,0.136394121
0.062147641,0.308506854,0.010665906,0.136448053
0.062143808,0.308559838,0.010687534,0.136502099
0.062139792,0.308613005,0.010709106,0.136556256
0.062135593,0.308666358,0.010730623,0.136610524
0.062131209,0.308719901,0.010752084,0.1366649
0.062126639,0.308773637,0.010773488,0.136719383
0.062121881,0.308827571,0.010794837,0.13677397
0.062116934,0.308881706,0.010816129,0.13682866
0.062111797,0.308936046,0.010837366,0.136883451
0.06210647,0.308990596,0.010858547,0.136938341
0.062100949,0.309045362,0.010879673,0.136993325
0.062095236,0.309100348,0.010900744,0.137048403
0.062089327,0.309155561,0.01092176,0.13710357
0.062083224,0.309211005,0.010942722,0.137158824
0.062076924,0.309266685,0.01096363,0.137214162
0.062070428,0.309322607,0.010984484,0.137269582
0.062063735,0.309378775,0.011005285,0.137325081
0.062056843,0.309435194,0.011026033,0.137380656
0.062049753,0.309491867,0.011046729,0.137436307
0.062042464,0.309548799,0.011067373,0.137492031
0.062034975,0.309605994,0.011087967,0.137547828
0.062027286,0.309663453,0.01110851,0.137603695
0.062019396,0.30972118,0.011129003,0.137659633
0.062011304,0.309779177,0.011149447,0.137715642
0.062003011,0.309837446,0.011169842,0.13777172
0.061994516,0.309895989,0.011190188,0.137827869
0.061985819,0.309954807,0.011210487,0.137884089
0.061976922,0.310013904,0.011230737,0.13794038
0.061967824,0.310073282,0.011250941,0.137996741
0.061958528,0.310132943,0.011271098,0.138053172
0.061949034,0.310192892,0.011291209,0.138109671
0.061939342,0.310253131,0.011311275,0.138166237
0.061929454,0.310313664,0.011331297,0.138222869
0.061919372,0.310374494,0.011351276,0.138279563
0.061909096,0.310435625,0.011371212,0.138336318
0.061898628,0.310497059,0.011391106,0.138393133
0.06188797,0.310558797,0.011410959,0.138450006
0.061877124,0.310620843,0.011430771,0.138506937
0.06186609,0.310683198,0.011450544,0.138563926
0.06185487,0.310745864,0.011470278,0.138620971
0.061843466,0.310808842,0.011489974,0.138678072
0.061831879,0.310872134,0.011509631,0.138735229
0.06182011,0.310935739,0.011529252,0.138792443
0.061808161,0.310999659,0.011548836,0.138849714
0.061796031,0.311063891,0.011568384,0.138907043
0.061783724,0.311128436,0.011587898,0.138964429
0.061771239,0.31119329,0.011607376,0.139021874
0.061758578,0.311258452,0.011626821,0.139079378
0.061745742,0.311323918,0.011646232,0.139136942
0.061732732,0.311389686,0.01166561,0.13919457
0.061719549,0.311455751,0.011684956,0.139252261
0.061706195,0.31152211,0.01170427,0.139310018
0.061692669,0.311588761,0.011723552,0.139367842
0.061678974,0.3116557,0.011742803,0.139425734
0.061665108,0.311722923,0.011762022,0.139483693
0.061651074,0.311790429,0.01178121,0.139541721
0.061636872,0.311858215,0.011800368,0.139599817
0.061622503,0.311926278,0.011819495,0.139657982
0.061607967,0.311994617,0.011838592,0.139716218
0.061593265,0.312063228,0.011857658,0.139774524
0.061578397,0.312132106,0.011876694,0.139832901
0.061563365,0.312201249,0.0118957,0.139891348
0.061548169,0.312270652,0.011914676,0.139949867
0.061532809,0.312340312,0.011933623,0.140008455
0.061517286,0.312410225,0.01195254,0.140067114
0.0615016,0.312480386,0.011971428,0.140125842
0.061485751,0.312550792,0.011990286,0.140184641
0.061469739,0.312621441,0.012009114,0.140243509
0.061453565,0.31269233,0.012027913,0.140302447
0.061437229,0.312763456,0.012046682,0.140361455
0.061420731,0.312834816,0.012065422,0.140420533
0.061404071,0.312906406,0.012084131,0.140479682
0.06138725,0.312978223,0.012102811,0.140538903
0.061370267,0.313050263,0.012121461,0.140598197
0.061353123,0.313122522,0.01214008,0.140657566
0.061335816,0.313194997,0.012158669,0.140717011
0.061318348,0.313267684,0.012177228,0.140776532
0.061300718,0.31334058,0.012195757,0.14083613
0.061282925,0.313413685,0.012214255,0.140895804
0.061264971,0.313486996,0.012232723,0.140955556
0.061246854,0.313560513,0.01225116,0.141015383
0.061228574,0.313634237,0.012269567,0.141075285
0.061210131,0.313708169,0.012287943,0.141135261
0.061191525,0.313782309,0.012306287,0.141195309
0.061172755,0.313856657,0.0123246,0.141255427
0.061153821,0.313931213,0.012342881,0.141315615
0.061134723,0.314005977,0.01236113,0.141375871
0.06111546,0.31408095,0.012379345,0.141436193
0.061096033,0.31415613,0.012397529,0.141496581
0.061076441,0.314231517,0.012415678,0.141557035
0.061056684,0.314307109,0.012433795,0.141617556
0.061036761,0.314382905,0.012451878,0.141678144
0.061016673,0.314458903,0.012469927,0.141738801
0.06099642,0.3145351,0.012487941,0.141799527
0.060976002,0.314611494,0.012505921,0.141860324
0.060955419,0.314688084,0.012523866,0.14192119
0.060934672,0.314764866,0.012541776,0.141982125
0.060913759,0.314841839,0.01255965,0.142043129
0.060892683,0.314919001,0.012577488,0.142104201
0.060871442,0.31499635,0.01259529,0.142165341
0.060850038,0.315073886,0.012613055,0.142226548
0.06082847,0.315151606,0.012630783,0.142287822
0.060806738,0.315229507,0.012648473,0.142349163
0.060784843,0.315307587,0.012666125,0.142410571
0.060762785,0.315385843,0.012683738,0.142472045
0.060740564,0.315464271,0.012701313,0.142533584
0.06071818,0.315542867,0.012718847,0.142595187
0.060695632,0.315621626,0.012736342,0.142656853
0.060672922,0.315700544,0.012753796,0.14271858
0.060650049,0.315779616,0.01277121,0.142780366
0.060627014,0.315858837,0.012788581,0.142842208
0.060603816,0.315938203,0.012805911,0.142904105
0.060580456,0.316017711,0.012823197,0.142966053
0.060556935,0.316097358,0.012840441,0.14302805
0.060533254,0.316177139,0.012857639,0.143090091
0.060509414,0.316257052,0.012874793,0.143152175
0.060485416,0.316337091,0.012891901,0.143214297
0.060461262,0.316417252,0.012908962,0.143276455
0.060436953,0.31649753,0.012925976,0.143338646
0.060412491,0.316577919,0.012942942,0.143400867
0.060387878,0.316658414,0.01295986,0.143463116
0.060363117,0.31673901,0.012976728,0.143525388
0.06033821,0.316819701,0.012993547,0.143587683
0.060313158,0.31690048,0.013010315,0.143649996
0.060287965,0.316981342,0.013027033,0.143712326
0.060262632,0.317062281,0.013043699,0.143774668
0.060237161,0.317143288,0.013060313,0.14383702
0.060211555,0.317224357,0.013076875,0.143899379
0.060185814,0.317305481,0.013093384,0.143961739
0.060159942,0.317386651,0.013109839,0.144024099
0.06013394,0.317467859,0.013126241,0.144086453
0.060107809,0.317549098,0.013142587,0.144148798
0.060081552,0.317630358,0.013158878,0.144211129
0.06005517,0.317711631,0.013175113,0.144273442
0.060028666,0.317792909,0.013191291,0.144335733
0.060002041,0.317874184,0.013207411,0.144397996
0.059975298,0.317955446,0.013223472,0.144460229
0.059948438,0.318036687,0.013239475,0.144522427
0.059921464,0.3181179,0.013255417,0.144584586
0.059894376,0.318199077,0.013271299,0.144646702
0.059867177,0.318280212,0.013287119,0.144708769
0.059839869,0.318361299,0.013302878,0.144770785
0.059812453,0.318442333,0.013318573,0.144832745
0.059784932,0.318523308,0.013334204,0.144894644
0.059757307,0.318604219,0.013349771,0.144956479
0.059729581,0.318685061,0.013365272,0.145018245
0.059701755,0.31876583,0.013380707,0.14507994
0.05967383,0.318846522,0.013396076,0.14514156
0.05964581,0.318927133,0.013411376,0.145203101
0.059617695,0.31900766,0.013426608,0.145264563
0.059589487,0.319088101,0.013441771,0.145325942
0.059561188,0.319168453,0.013456863,0.145387238
0.059532799,0.319248716,0.013471885,0.145448449
0.059504321,0.319328888,0.013486835,0.145509575
0.059475757,0.319408965,0.013501712,0.145570614
0.059447107,0.319488949,0.013516516,0.145631568
0.059418373,0.319568836,0.013531246,0.145692433
0.059389557,0.319648629,0.013545903,0.145753211
0.059360659,0.319728327,0.013560485,0.1458139
0.059331682,0.319807929,0.013574992,0.145874498
0.059302626,0.319887437,0.013589423,0.145935006
0.059273494,0.319966851,0.013603779,0.145995422
0.059244285,0.320046172,0.013618058,0.146055745
0.059215002,0.3201254,0.013632261,0.146115974
0.059185646,0.320204537,0.013646386,0.146176108
0.059156218,0.320283584,0.013660433,0.146236145
0.05912672,0.320362542,0.013674401,0.146296084
0.059097154,0.320441411,0.013688291,0.146355924
0.05906752,0.320520191,0.013702101,0.146415663
0.05903782,0.320598883,0.013715831,0.146475299
0.059008055,0.320677485,0.01372948,0.14653483
0.058978227,0.320755998,0.013743047,0.146594257
0.058948337,0.320834421,0.013756533,0.146653576
0.058918386,0.320912753,0.013769936,0.146712786
0.058888375,0.320990993,0.013783256,0.146771887
0.058858305,0.321069141,0.013796491,0.146830876
0.058828177,0.321147194,0.013809642,0.146889752
0.058797993,0.321225151,0.013822707,0.146948516
0.058767752,0.32130301,0.013835686,0.147007167
0.058737456,0.321380769,0.013848578,0.147065705
0.058707107,0.321458426,0.013861382,0.147124131
0.058676704,0.321535978,0.013874098,0.147182446
0.05864625,0.321613423,0.013886724,0.147240651
0.058615744,0.32169076,0.013899261,0.147298749
0.058585189,0.321767985,0.013911707,0.147356741
0.058554585,0.321845095,0.013924063,0.147414629
0.058523933,0.321922089,0.013936326,0.147472415
0.058493235,0.321998963,0.013948497,0.147530099
0.058462491,0.322075714,0.013960574,0.147587683
0.058431702,0.322152338,0.013972558,0.147645168
0.058400869,0.322228834,0.013984446,0.147702555
0.058369993,0.322305198,0.013996239,0.147759846
0.058339075,0.322381427,0.014007936,0.147817043
0.058308115,0.322457518,0.014019536,0.147874147
0.058277114,0.32253347,0.014031038,0.14793116
0.058246074,0.322609278,0.014042442,0.147988082
0.058214994,0.32268494,0.014053746,0.148044915
0.058183877,0.322760453,0.014064949,0.148101658
0.058152723,0.322835814,0.014076052,0.148158312
0.058121533,0.322911021,0.014087052,0.148214878
0.058090308,0.322986071,0.01409795,0.148271355
0.05805905,0.323060962,0.014108745,0.148327743
0.058027759,0.323135693,0.014119435,0.148384041
0.057996436,0.323210263,0.01413002,0.148440248
0.057965082,0.323284674,0.0141405,0.148496364
0.057933698,0.323358927,0.014150873,0.148552388
0.057902286,0.323433023,0.01416114,0.148608319
0.057870845,0.323506966,0.014171299,0.148664156
0.057839378,0.32358076,0.014181349,0.148719901
0.057807886,0.323654409,0.014191289,0.148775554
0.057776368,0.323727917,0.01420112,0.148831116
0.057744827,0.323801286,0.01421084,0.148886589
0.057713263,0.323874519,0.014220449,0.148941975
0.057681676,0.323947619,0.014229946,0.14899728
0.057650069,0.324020588,0.014239331,0.149052509
0.057618441,0.324093429,0.014248603,0.149107669
0.057586793,0.324166143,0.014257761,0.149162766
0.057555126,0.324238731,0.014266805,0.149217807
0.057523441,0.324311195,0.014275734,0.149272797
0.05749174,0.324383535,0.014284547,0.149327742
0.057460023,0.324455752,0.014293244,0.149382647
0.057428292,0.324527847,0.014301825,0.149437515
0.057396547,0.324599823,0.014310287,0.149492352
0.057364791,0.324671684,0.014318632,0.14954716
0.057333024,0.324743434,0.014326859,0.149601944
0.057301249,0.32481508,0.014334966,0.149656707
0.057269466,0.324886628,0.014342955,0.149711453
0.057237677,0.324958087,0.014350825,0.149766186
0.057205882,0.325029461,0.014358575,0.149820909
0.057174085,0.325100759,0.014366205,0.149875624
0.057142285,0.325171984,0.014373715,0.149930334
0.057110484,0.325243145,0.014381104,0.149985041
0.057078685,0.325314245,0.014388371,0.150039749
0.057046887,0.32538529,0.014395518,0.150094461
0.057015094,0.325456286,0.014402542,0.150149181
0.056983306,0.325527239,0.014409445,0.150203914
0.056951526,0.325598152,0.014416225,0.150258663
0.056919754,0.325669031,0.014422883,0.150313432
0.056887992,0.325739883,0.014429418,0.150368225
0.056856242,0.325810712,0.014435832,0.150423045
0.056824504,0.325881525,0.014442122,0.150477895
0.056792781,0.325952325,0.014448289,0.150532779
0.056761073,0.326023119,0.014454333,0.1505877
0.056729382,0.326093909,0.014460254,0.150642662
0.056697708,0.326164701,0.014466051,0.150697666
0.056666052,0.326235499,0.014471725,0.150752718
0.056634416,0.326306307,0.014477275,0.150807821
0.056602801,0.326377129,0.014482701,0.15086298
0.056571208,0.326447972,0.014488003,0.150918198
0.056539638,0.326518837,0.014493182,0.15097348
0.056508093,0.326589731,0.014498237,0.15102883
0.056476575,0.326660654,0.014503168,0.151084253
0.056445084,0.326731611,0.014507976,0.151139752
0.056413622,0.326802602,0.01451266,0.151195334
0.05638219,0.32687363,0.01451722,0.151251003
0.056350791,0.326944697,0.014521656,0.151306763
0.056319425,0.327015803,0.014525969,0.151362621
0.056288093,0.327086952,0.014530157,0.151418582
0.056256798,0.327158144,0.014534221,0.151474649
0.05622554,0.327229381,0.014538161,0.151530828
0.056194322,0.327300666,0.014541976,0.151587122
0.056163143,0.327371998,0.014545667,0.151643534
0.056132006,0.327443379,0.014549234,0.151700068
0.056100912,0.32751481,0.014552675,0.151756727
0.056069862,0.327586291,0.014555992,0.151813511
0.056038856,0.327657822,0.014559183,0.151870424
0.056007896,0.327729404,0.01456225,0.151927466
0.055976983,0.327801037,0.014565192,0.151984639
0.055946117,0.327872722,0.014568008,0.152041943
0.055915299,0.327944459,0.0145707,0.152099379
0.055884531,0.328016249,0.014573266,0.152156948
0.055853812,0.328088091,0.014575707,0.152214652
0.055823144,0.328159985,0.014578023,0.152272492
0.055792528,0.328231931,0.014580214,0.15233047
0.055761963,0.328303926,0.014582279,0.152388588
0.055731451,0.328375969,0.01458422,0.152446848
0.055700993,0.328448058,0.014586035,0.152505251
0.05567059,0.328520191,0.014587725,0.152563798
0.055640241,0.328592365,0.01458929,0.152622492
0.055609948,0.328664578,0.01459073,0.152681335
0.055579713,0.328736826,0.014592045,0.152740328
0.055549535,0.328809106,0.014593234,0.152799473
0.055519417,0.328881413,0.014594299,0.152858771
0.055489358,0.328953744,0.014595238,0.152918225
0.055459361,0.329026097,0.014596052,0.152977834
0.055429425,0.32909847,0.01459674,0.153037598
0.055399553,0.329170862,0.014597302,0.153097517
0.055369745,0.329243274,0.014597739,0.153157592
0.055340003,0.329315704,0.01459805,0.15321782
0.055310326,0.329388153,0.014598235,0.153278201
0.055280716,0.329460622,0.014598294,0.153338733
0.055251175,0.32953311,0.014598227,0.153399414
0.055221702,0.32960562,0.014598034,0.153460243
0.055192299,0.329678152,0.014597715,0.153521217
0.055162967,0.329750706,0.014597271,0.153582334
0.055133706,0.329823283,0.014596701,0.153643592
0.055104518,0.329895882,0.014596006,0.153704988
0.055075404,0.329968504,0.014595185,0.153766519
0.055046363,0.330041148,0.014594239,0.153828183
0.055017398,0.330113813,0.014593168,0.153889978
0.054988508,0.3301865,0.014591972,0.153951898
0.054959695,0.330259206,0.014590651,0.154013942
0.05493096,0.33033193,0.014589204,0.154076106
0.054902302,0.330404669,0.014587633,0.154138385
0.054873723,0.330477422,0.014585936,0.154200775
0.054845224,0.330550184,0.014584115,0.154263272
0.054816805,0.330622951,0.014582168,0.154325872
0.054788465,0.33069572,0.014580096,0.154388568
0.054760206,0.330768485,0.0145779,0.154451356
0.054732028,0.330841242,0.014575578,0.154514231
0.054703931,0.330913985,0.014573131,0.154577186
0.054675915,0.330986708,0.014570558,0.154640217
0.05464798,0.331059404,0.01456786,0.154703317
0.054620126,0.331132067,0.014565037,0.154766481
0.054592353,0.331204689,0.014562089,0.154829702
0.054564661,0.331277264,0.014559016,0.154892974
0.05453705,0.331349783,0.014555817,0.154956292
0.054509519,0.331422238,0.014552493,0.155019649
0.054482068,0.331494622,0.014549044,0.155083038
0.054454697,0.331566924,0.014545469,0.155146455
0.054427407,0.331639136,0.01454177,0.155209894
0.054400197,0.331711248,0.014537945,0.15527335
0.054373067,0.33178325,0.014533996,0.155336821
0.054346018,0.33185513,0.014529921,0.155400301
0.05431905,0.331926881,0.014525722,0.155463786
0.054292164,0.331998491,0.014521398,0.155527272
0.05426536,0.332069954,0.014516949,0.155590753
0.054238638,0.332141261,0.014512375,0.155654225
0.054212,0.332212405,0.014507677,0.155717681
0.054185446,0.332283381,0.014502855,0.155781118
0.054158977,0.332354182,0.014497907,0.155844529
0.054132594,0.3324248,0.014492835,0.155907907
0.054106297,0.332495228,0.014487637,0.155971248
0.054080087,0.332565459,0.014482315,0.156034544
0.054053967,0.332635483,0.014476867,0.156097789
0.054027935,0.332705293,0.014471295,0.156160977
0.054001994,0.33277488,0.014465597,0.156224099
0.053976145,0.332844235,0.014459775,0.156287149
0.053950387,0.332913349,0.014453828,0.15635012
0.053924723,0.332982217,0.014447756,0.156413005
0.053899152,0.333050829,0.01444156,0.156475798
0.053873675,0.333119182,0.01443524,0.156538491
0.053848294,0.333187274,0.014428795,0.156601079
0.053823009,0.333255104,0.014422227,0.156663552
0.05379782,0.333322673,0.014415535,0.156725904
0.05377273,0.333389982,0.014408719,0.156788127
0.053747739,0.333457034,0.014401781,0.156850212
0.053722847,0.333523829,0.01439472,0.156912151
0.053698056,0.33359037,0.014387538,0.156973935
0.053673366,0.333656658,0.014380234,0.157035556
0.053648778,0.333722695,0.01437281,0.157097006
0.053624293,0.33378848,0.014365266,0.157158277
0.053599912,0.333854015,0.014357603,0.157219361
0.053575635,0.333919301,0.014349822,0.157280249
0.053551462,0.333984336,0.014341923,0.157340933
0.053527394,0.334049121,0.014333907,0.157401406
0.053503432,0.334113656,0.014325774,0.15746166
0.053479575,0.334177939,0.014317527,0.157521689
0.053455825,0.33424197,0.014309164,0.157581486
0.053432181,0.334305748,0.014300687,0.157641046
0.053408644,0.334369272,0.014292097,0.157700366
0.053385215,0.33443254,0.014283394,0.157759444
0.053361893,0.334495549,0.014274579,0.157818278
0.053338679,0.334558298,0.014265653,0.15787687
0.053315572,0.334620783,0.014256617,0.157935217
0.053292574,0.334683001,0.014247472,0.15799332
0.053269683,0.334744948,0.014238219,0.158051177
0.053246901,0.33480662,0.014228858,0.158108788
0.053224226,0.334868012,0.014219391,0.158166152
0.05320166,0.334929119,0.014209817,0.158223268
0.053179201,0.334989938,0.014200139,0.158280136
0.05315685,0.335050463,0.014190356,0.158336755
0.053134607,0.335110689,0.01418047,0.158393124
0.053112472,0.335170614,0.01417048,0.158449241
0.053090444,0.335230237,0.014160389,0.158505107
0.053068523,0.335289556,0.014150196,0.158560719
0.05304671,0.335348574,0.014139902,0.158616077
0.053025004,0.335407296,0.01412951,0.158671179
0.053003405,0.335465729,0.014119018,0.158726024
0.052981913,0.335523879,0.014108429,0.158780612
0.052960527,0.335581753,0.014097743,0.158834943
0.052939247,0.335639357,0.014086962,0.158889014
0.052918072,0.335696699,0.014076085,0.158942827
0.052897003,0.335753786,0.014065114,0.158996379
0.052876039,0.335810625,0.01405405,0.15904967
0.052855179,0.335867224,0.014042893,0.159102699
0.052834425,0.335923592,0.014031645,0.159155464
0.052813775,0.335979736,0.014020305,0.159207963
0.052793229,0.336035663,0.014008876,0.159260195
0.052772786,0.336091381,0.013997358,0.159312158
0.052752446,0.336146899,0.013985751,0.159363849
0.052732209,0.336202223,0.013974058,0.159415266
0.052712073,0.336257361,0.013962278,0.159466408
0.052692037,0.33631232,0.013950413,0.159517271
0.052672102,0.336367106,0.013938465,0.159567855
0.052652265,0.336421725,0.013926434,0.159618155
0.052632527,0.336476184,0.013914321,0.159668171
0.052612886,0.336530488,0.013902128,0.159717902
0.052593341,0.33658464,0.013889856,0.159767349
0.052573892,0.336638645,0.013877505,0.15981651
0.052554538,0.336692508,0.013865077,0.159865388
0.052535278,0.336746232,0.013852572,0.159913982
0.052516112,0.33679982,0.013839992,0.159962294
0.052497039,0.336853276,0.013827338,0.160010323
0.052478058,0.336906602,0.013814611,0.16005807
0.052459167,0.336959801,0.013801811,0.160105535
0.052440368,0.337012877,0.013788941,0.160152719
0.052421657,0.33706583,0.013776,0.160199621
0.052403035,0.337118663,0.01376299,0.16024624
0.052384501,0.337171377,0.013749912,0.160292577
0.052366054,0.337223972,0.013736766,0.160338632
0.052347693,0.337276449,0.013723553,0.160384403
0.052329417,0.337328806,0.013710275,0.160429892
0.052311226,0.337381045,0.013696931,0.160475097
0.052293118,0.337433163,0.013683522,0.160520021
0.052275093,0.337485161,0.01367005,0.160564664
0.052257149,0.337537036,0.013656515,0.160609029
0.052239286,0.337588788,0.013642917,0.160653119
0.052221503,0.337640416,0.013629257,0.16069694
0.052203797,0.337691917,0.013615536,0.160740495
0.05218617,0.337743291,0.013601755,0.160783787
0.052168618,0.337794536,0.013587914,0.160826823
0.052151142,0.33784565,0.013574014,0.160869605
0.05213374,0.337896635,0.013560056,0.160912139
0.052116412,0.337947492,0.01354604,0.160954428
0.052099155,0.337998223,0.013531967,0.160996478
0.05208197,0.33804883,0.013517838,0.161038292
0.052064855,0.338099316,0.013503654,0.161079876
0.05204781,0.338149683,0.013489415,0.161121235
0.052030833,0.33819993,0.013475122,0.161162372
0.052013924,0.33825006,0.013460775,0.161203292
0.051997082,0.338300071,0.013446376,0.161243999
0.051980306,0.338349965,0.013431924,0.161284497
0.051963596,0.338399741,0.013417421,0.16132479
0.051946951,0.3384494,0.013402867,0.161364881
0.05193037,0.338498941,0.013388262,0.161404773
0.051913853,0.338548366,0.013373607,0.161444471
0.051897398,0.338597676,0.013358902,0.161483977
0.051881006,0.338646873,0.013344149,0.161523294
0.051864675,0.338695957,0.013329348,0.161562426
0.051848405,0.338744931,0.013314499,0.161601375
0.051832195,0.338793797,0.013299603,0.161640144
0.051816044,0.338842555,0.013284661,0.161678734
0.051799953,0.338891207,0.013269673,0.161717149
0.051783919,0.338939751,0.013254641,0.161755389
0.051767942,0.338988188,0.013239564,0.161793456
0.051752023,0.339036517,0.013224444,0.161831352
0.051736159,0.339084736,0.013209281,0.161869077
0.051720351,0.339132843,0.013194075,0.161906632
0.051704598,0.339180836,0.013178827,0.161944019
0.0516889,0.339228715,0.013163538,0.161981236
0.051673255,0.339276477,0.013148209,0.162018284
0.051657664,0.339324121,0.013132839,0.162055163
0.051642127,0.339371644,0.01311743,0.162091873
0.051626642,0.339419047,0.013101983,0.162128413
0.05161121,0.339466328,0.013086498,0.162164782
0.05159583,0.339513488,0.013070975,0.16220098
0.051580502,0.339560525,0.013055417,0.162237004
0.051565225,0.33960744,0.013039824,0.162272854
0.05155,0.33965423,0.013024196,0.162308528
0.051534825,0.339700894,0.013008535,0.162344024
0.051519701,0.339747431,0.01299284,0.16237934
0.051504627,0.339793837,0.012977113,0.162414474
0.051489602,0.339840111,0.012961354,0.162449424
0.051474626,0.339886248,0.012945564,0.162484189
0.051459699,0.339932245,0.012929743,0.162518764
0.051444819,0.339978098,0.012913891,0.162553148
0.051429986,0.340023802,0.012898008,0.162587339
0.0514152,0.340069352,0.012882096,0.162621333
0.051400458,0.340114745,0.012866153,0.162655128
0.051385762,0.340159975,0.012850181,0.162688721
0.051371108,0.340205038,0.01283418,0.162722111
0.051356497,0.340249929,0.012818151,0.162755295
0.051341928,0.340294646,0.012802092,0.162788271
0.051327399,0.340339181,0.012786006,0.162821036
0.051312909,0.340383532,0.012769891,0.162853589
0.051298458,0.340427694,0.012753749,0.162885927
0.051284045,0.340471664,0.012737581,0.162918048
0.051269668,0.340515436,0.012721385,0.162949948
0.051255328,0.340559009,0.012705163,0.162981626
0.051241023,0.340602378,0.012688915,0.163013079
0.051226753,0.340645539,0.012672642,0.163044306
0.051212517,0.34068849,0.012656343,0.163075302
0.051198315,0.340731226,0.012640019,0.163106067
0.051184146,0.340773746,0.012623671,0.163136595
0.05117001,0.340816045,0.012607298,0.163166886
0.051155906,0.340858121,0.012590901,0.163196934
0.051141834,0.340899971,0.01257448,0.163226738
0.051127796,0.340941594,0.012558034,0.163256293
0.05111379,0.340982988,0.012541565,0.163285595
0.051099818,0.341024152,0.012525073,0.163314641
0.051085879,0.341065085,0.012508558,0.163343427
0.051071975,0.341105786,0.01249202,0.163371949
0.051058108,0.341146255,0.012475461,0.163400205
0.051044277,0.341186491,0.01245888,0.163428191
0.051030485,0.341226493,0.012442279,0.163455909
0.051016734,0.34126626,0.012425657,0.163483359
0.051003026,0.341305793,0.012409016,0.163510544
0.050989361,0.341345089,0.012392355,0.163537465
0.050975742,0.341384148,0.012375675,0.163564125
0.050962171,0.341422969,0.012358977,0.163590525
0.050948647,0.34146155,0.01234226,0.163616668
0.050935174,0.341499889,0.012325526,0.163642557
0.050921751,0.341537984,0.012308774,0.163668194
0.05090838,0.341575833,0.012292005,0.163693582
0.050895063,0.341613432,0.01227522,0.163718724
0.0508818,0.341650779,0.012258418,0.163743622
0.050868592,0.34168787,0.0122416,0.16376828
0.05085544,0.341724701,0.012224765,0.163792701
0.050842346,0.341761269,0.012207915,0.163816887
0.05082931,0.341797568,0.012191049,0.163840842
0.050816334,0.341833597,0.012174168,0.163864568
0.050803418,0.341869351,0.012157272,0.16388807
0.050790563,0.341904829,0.012140362,0.163911351
0.05077777,0.341940026,0.012123438,0.163934415
0.05076504,0.341974941,0.012106499,0.163957268
0.050752374,0.342009572,0.012089548,0.163979914
0.050739773,0.342043916,0.012072584,0.164002358
0.050727236,0.342077973,0.012055607,0.164024604
0.050714765,0.34211174,0.012038619,0.164046655
0.05070236,0.342145217,0.012021619,0.164068515
0.050690021,0.342178402,0.012004607,0.164090186
0.050677749,0.342211294,0.011987585,0.164111671
0.050665542,0.342243892,0.011970552,0.164132973
0.050653402,0.342276195,0.011953508,0.164154093
0.050641327,0.342308203,0.011936456,0.164175035
0.050629319,0.342339915,0.011919393,0.164195799
0.050617376,0.342371329,0.011902322,0.164216387
0.050605498,0.342402445,0.011885243,0.164236803
0.050593686,0.342433262,0.011868155,0.164257047
0.050581938,0.342463778,0.011851059,0.164277122
0.050570255,0.342493993,0.011833956,0.16429703
0.050558635,0.342523903,0.011816846,0.164316773
0.050547079,0.342553507,0.011799729,0.164336352
0.050535586,0.342582804,0.011782604,0.164355769
0.050524156,0.342611792,0.011765474,0.164375024
0.050512787,0.34264047,0.011748336,0.164394117
0.050501479,0.342668834,0.011731192,0.16441305
0.050490232,0.342696884,0.011714043,0.164431822
0.050479043,0.342724617,0.011696886,0.164450433
0.050467913,0.342752031,0.011679724,0.164468881
0.05045684,0.342779125,0.011662556,0.164487167
0.050445823,0.342805898,0.011645382,0.164505288
0.050434862,0.342832349,0.011628202,0.164523244
0.050423955,0.342858481,0.011611017,0.164541035
0.0504131,0.342884293,0.011593825,0.16455866
0.050402298,0.34290979,0.011576628,0.164576119
0.050391547,0.342934973,0.011559425,0.164593412
0.050380846,0.342959845,0.011542217,0.164610539
0.050370194,0.342984409,0.011525002,0.164627497
0.050359591,0.343008667,0.011507782,0.164644285
0.050349035,0.343032621,0.011490556,0.164660904
0.050338525,0.343056272,0.011473325,0.16467735
0.050328062,0.343079621,0.011456088,0.164693624
0.050317643,0.343102669,0.011438845,0.164709723
0.050307269,0.343125418,0.011421598,0.164725646
0.050296938,0.343147867,0.011404345,0.16474139
0.050286651,0.343170016,0.011387087,0.164756953
0.050276405,0.343191865,0.011369825,0.164772334
0.050266201,0.343213413,0.011352558,0.164787529
0.050256037,0.343234659,0.011335286,0.164802536
0.050245913,0.343255601,0.01131801,0.164817353
0.050235828,0.343276239,0.01130073,0.164831975
0.050225781,0.343296571,0.011283445,0.1648464
0.050215772,0.343316596,0.011266157,0.164860624
0.0502058,0.343336315,0.011248865,0.164874645
0.050195864,0.34335573,0.011231568,0.16488846
0.050185964,0.343374842,0.011214268,0.164902069
0.050176099,0.343393656,0.011196963,0.16491547
0.050166269,0.343412174,0.011179654,0.164928664
0.050156474,0.3434304,0.011162341,0.164941652
0.050146711,0.34344834,0.011145023,0.164954433
0.050136982,0.343465996,0.0111277,0.164967007
0.050127285,0.343483376,0.011110373,0.164979373
0.05011762,0.343500482,0.01109304,0.164991531
0.050107986,0.343517322,0.011075703,0.16500348
0.050098382,0.343533898,0.011058361,0.16501522
0.050088808,0.343550217,0.011041014,0.165026748
0.050079263,0.343566281,0.011023662,0.165038065
0.050069747,0.343582094,0.011006305,0.165049169
0.050060259,0.34359766,0.010988944,0.16506006
0.050050799,0.343612981,0.010971578,0.165070736
0.050041367,0.34362806,0.010954206,0.165081196
0.050031962,0.343642898,0.01093683,0.165091438
0.050022584,0.343657498,0.010919448,0.165101461
0.050013231,0.34367186,0.010902061,0.165111264
0.050003905,0.343685986,0.010884668,0.165120843
0.049994603,0.343699877,0.01086727,0.165130197
0.049985326,0.343713533,0.010849866,0.165139324
0.049976073,0.343726957,0.010832457,0.165148221
0.049966844,0.343740147,0.010815042,0.165156887
0.049957637,0.343753105,0.010797621,0.165165319
0.049948453,0.343765831,0.010780195,0.165173515
0.04993929,0.343778323,0.010762762,0.165181471
0.049930148,0.343790583,0.010745324,0.165189187
0.049921026,0.343802609,0.010727881,0.165196661
0.049911924,0.343814402,0.010710431,0.165203892
0.049902842,0.34382596,0.010692976,0.16521088
0.049893779,0.343837282,0.010675515,0.165217625
0.049884734,0.343848368,0.010658047,0.165224125
0.049875708,0.343859215,0.010640574,0.165230381
0.0498667,0.343869821,0.010623094,0.165236391
0.049857709,0.343880187,0.010605608,0.165242154
0.049848736,0.343890309,0.010588115,0.165247668
0.049839779,0.343900189,0.010570616,0.165252933
0.049830838,0.343909824,0.010553111,0.165257947
0.049821914,0.343919213,0.010535598,0.165262708
0.049813006,0.343928357,0.010518079,0.165267213
0.049804113,0.343937253,0.010500552,0.165271461
0.049795236,0.343945902,0.010483018,0.165275451
0.049786374,0.343954305,0.010465477,0.16527918
0.049777526,0.343962461,0.010447929,0.165282649
0.049768693,0.343970372,0.010430372,0.165285854
0.049759874,0.343978039,0.010412808,0.165288797
0.049751069,0.343985462,0.010395237,0.165291474
0.049742278,0.343992642,0.010377659,0.165293886
0.049733501,0.343999581,0.010360074,0.16529603
0.049724736,0.344006278,0.010342483,0.165297905
0.049715985,0.344012734,0.010324886,0.165299509
0.049707246,0.34401895,0.010307283,0.165300841
0.049698518,0.344024927,0.010289674,0.1653019
0.049689802,0.344030666,0.010272061,0.165302685
0.049681096,0.344036167,0.010254442,0.165303195
0.049672401,0.344041431,0.010236818,0.16530343
0.049663716,0.344046457,0.01021919,0.165303388
0.049655041,0.344051248,0.010201557,0.165303068
0.049646375,0.344055802,0.010183919,0.165302468
0.049637717,0.344060119,0.010166277,0.165301587
0.049629069,0.344064201,0.010148631,0.165300424
0.049620429,0.344068046,0.010130981,0.165298977
0.049611797,0.344071655,0.010113328,0.165297245
0.049603174,0.344075029,0.010095671,0.165295229
0.049594559,0.34407817,0.010078011,0.165292927
0.049585955,0.344081079,0.010060348,0.16529034
0.049577359,0.344083756,0.010042684,0.16528747
0.049568774,0.344086204,0.010025017,0.16528432
0.0495602,0.344088423,0.010007349,0.165280895
0.049551637,0.344090413,0.00998968,0.1652772
0.049543086,0.344092174,0.009972009,0.165273242
0.049534548,0.344093706,0.009954338,0.165269032
0.049526026,0.344095011,0.009936666,0.165264582
0.049517521,0.344096086,0.009918995,0.165259904
0.049509036,0.344096932,0.009901323,0.165255012
0.049500572,0.344097547,0.009883651,0.165249919
0.049492132,0.34409793,0.009865981,0.165244639
0.049483717,0.344098078,0.009848311,0.165239184
0.04947533,0.344097991,0.009830642,0.165233567
0.049466973,0.344097665,0.009812975,0.165227799
0.049458649,0.344097097,0.009795309,0.165221893
0.049450359,0.344096285,0.009777645,0.16521586
0.049442106,0.344095226,0.009759983,0.165209712
0.049433894,0.344093915,0.009742323,0.16520346
0.049425723,0.34409235,0.009724666,0.165197115
0.049417598,0.344090525,0.009707011,0.165190684
0.049409519,0.344088438,0.009689358,0.16518418
0.049401489,0.344086084,0.009671708,0.16517761
0.049393511,0.344083459,0.009654061,0.165170982
0.049385586,0.344080561,0.009636416,0.165164307
0.049377717,0.344077386,0.009618774,0.165157592
0.049369906,0.344073934,0.009601136,0.165150846
0.049362155,0.344070202,0.0095835,0.165144079
0.049354465,0.344066189,0.009565869,0.165137298
0.049346838,0.344061895,0.009548241,0.165130511
0.049339276,0.344057319,0.009530617,0.165123727
0.049331781,0.34405246,0.009512997,0.165116952
0.049324353,0.344047317,0.009495382,0.165110196
0.049316995,0.34404189,0.009477773,0.165103464
0.049309708,0.344036178,0.009460168,0.165096763
0.049302493,0.344030179,0.009442569,0.1650901
0.049295351,0.344023891,0.009424976,0.165083482
0.049288283,0.344017315,0.009407389,0.165076913
0.049281292,0.344010447,0.009389808,0.165070401
0.049274377,0.344003288,0.009372233,0.16506395
0.049267541,0.343995835,0.009354664,0.165057566
0.049260784,0.343988087,0.009337102,0.165051254
0.049254108,0.343980042,0.009319546,0.165045019
0.049247514,0.343971699,0.009301997,0.165038865
0.049241003,0.343963054,0.009284455,0.165032796
0.049234576,0.343954104,0.009266921,0.165026816
0.049228234,0.343944848,0.009249395,0.165020929
0.049221978,0.343935283,0.009231878,0.165015139
0.04921581,0.343925406,0.009214368,0.165009448
0.049209729,0.343915214,0.009196867,0.165003859
0.049203738,0.343904707,0.009179376,0.164998376
0.049197837,0.343893882,0.009161893,0.164993002
0.049192026,0.343882738,0.00914442,0.164987739
0.049186307,0.343871271,0.009126956,0.16498259
0.04918068,0.34385948,0.009109501,0.164977555
0.049175145,0.343847361,0.009092056,0.164972637
0.049169702,0.343834912,0.00907462,0.164967837
0.049164353,0.343822129,0.009057195,0.164963157
0.049159096,0.34380901,0.009039778,0.164958596
0.049153932,0.34379555,0.009022372,0.164954157
0.04914886,0.343781748,0.009004976,0.164949842
0.049143881,0.343767601,0.00898759,0.16494565
0.049138994,0.343753106,0.008970215,0.164941584
0.0491342,0.343738261,0.00895285,0.164937645
0.049129497,0.343723062,0.008935496,0.164933832
0.049124885,0.343707507,0.008918154,0.164930147
0.049120365,0.343691594,0.008900822,0.16492659
0.049115936,0.343675322,0.008883502,0.164923162
0.049111597,0.343658688,0.008866193,0.164919864
0.049107348,0.34364169,0.008848896,0.164916698
0.049103188,0.343624325,0.008831611,0.164913663
0.049099116,0.343606592,0.008814337,0.164910762
0.049095132,0.343588488,0.008797075,0.164907993
0.049091235,0.343570011,0.008779824,0.164905356
0.049087424,0.34355116,0.008762586,0.164902851
0.049083699,0.343531932,0.008745359,0.164900478
0.049080059,0.343512325,0.008728143,0.164898237
0.049076504,0.34349234,0.008710939,0.164896126
0.049073034,0.343471975,0.008693747,0.164894145
0.049069649,0.34345123,0.008676567,0.164892295
0.049066348,0.343430104,0.0086594,0.164890574
0.049063131,0.343408597,0.008642244,0.164888982
0.049059998,0.343386707,0.008625102,0.164887519
0.049056949,0.343364435,0.008607972,0.164886185
0.049053985,0.343341778,0.008590854,0.164884979
0.049051107,0.343318736,0.00857375,0.164883903
0.049048314,0.343295307,0.008556659,0.164882957
0.049045606,0.343271489,0.008539582,0.16488214
0.049042984,0.343247282,0.008522518,0.164881455
0.049040449,0.343222685,0.008505469,0.1648809
0.049037999,0.343197697,0.008488433,0.164880476
0.049035636,0.343172321,0.008471412,0.164880183
0.049033359,0.343146558,0.008454406,0.164880023
0.049031169,0.343120412,0.008437414,0.164879994
0.049029065,0.343093889,0.008420438,0.164880098
0.049027049,0.343066992,0.008403476,0.164880334
0.049025121,0.343039727,0.00838653,0.164880704
0.049023281,0.343012099,0.008369599,0.164881209
0.04902153,0.342984111,0.008352684,0.16488185
0.049019867,0.342955769,0.008335785,0.164882632
0.049018295,0.342927077,0.008318904,0.164883558
0.049016812,0.34289804,0.008302039,0.164884634
0.049015419,0.342868663,0.008285191,0.164885863
0.049014116,0.342838951,0.008268361,0.16488725
0.049012903,0.34280891,0.008251548,0.1648888
0.04901178,0.342778543,0.008234753,0.164890515
0.049010747,0.342747857,0.008217975,0.1648924
0.049009804,0.342716854,0.008201215,0.164894458
0.049008951,0.342685541,0.008184473,0.164896692
0.049008189,0.342653921,0.008167749,0.164899105
0.049007516,0.342622,0.008151042,0.164901698
0.049006934,0.342589783,0.008134353,0.164904474
0.049006441,0.342557275,0.008117683,0.164907435
0.049006039,0.34252448,0.00810103,0.164910582
0.049005726,0.342491403,0.008084396,0.164913917
0.049005504,0.342458046,0.00806778,0.164917441
0.049005373,0.342424412,0.008051182,0.164921156
0.049005332,0.342390504,0.008034602,0.164925061
0.049005382,0.342356324,0.008018041,0.164929158
0.049005525,0.342321873,0.008001499,0.164933446
0.049005761,0.342287154,0.007984976,0.164937927
0.04900609,0.342252167,0.007968472,0.1649426
0.049006513,0.342216915,0.007951988,0.164947465
0.04900703,0.342181398,0.007935523,0.164952522
0.049007643,0.342145621,0.007919077,0.164957769
0.049008352,0.342109585,0.007902652,0.164963206
0.049009157,0.342073294,0.007886245,0.164968832
0.04901006,0.342036752,0.007869858,0.164974646
0.04901106,0.341999962,0.007853491,0.164980647
0.04901216,0.341962926,0.007837143,0.164986837
0.04901336,0.341925647,0.007820815,0.164993214
0.04901466,0.341888127,0.007804507,0.164999779
0.049016063,0.34185037,0.007788218,0.165006531
0.049017567,0.341812379,0.007771949,0.165013469
0.049019175,0.341774158,0.007755699,0.165020592
0.049020886,0.34173571,0.007739469,0.165027897
0.049022701,0.341697042,0.007723259,0.165035382
0.04902462,0.341658158,0.007707068,0.165043045
0.049026644,0.341619065,0.007690897,0.165050884
0.049028772,0.341579768,0.007674744,0.165058895
0.049031004,0.341540274,0.007658611,0.165067075
0.049033341,0.341500589,0.007642498,0.165075422
0.049035782,0.341460718,0.007626403,0.165083933
0.049038328,0.341420668,0.007610328,0.165092605
0.049040977,0.341380444,0.007594272,0.165101438
0.049043731,0.341340053,0.007578235,0.165110429
0.049046589,0.341299499,0.007562216,0.165119576
0.049049552,0.341258788,0.007546217,0.165128877
0.049052618,0.341217926,0.007530236,0.165138328
0.049055789,0.341176917,0.007514274,0.165147927
0.049059064,0.341135765,0.00749833,0.165157671
0.049062443,0.341094475,0.007482405,0.165167555
0.049065926,0.34105305,0.007466498,0.165177575
0.049069514,0.341011494,0.00745061,0.165187727
0.049073206,0.340969808,0.007434739,0.165198008
0.049077003,0.340927995,0.007418886,0.16520841
0.049080903,0.340886059,0.007403051,0.165218931
0.049084908,0.340844001,0.007387234,0.165229564
0.049089016,0.340801826,0.007371434,0.165240305
0.049093228,0.340759537,0.007355651,0.165251148
0.049097543,0.340717139,0.007339886,0.16526209
0.049101961,0.340674636,0.007324139,0.165273125
0.049106482,0.340632035,0.007308409,0.165284248
0.049111105,0.340589343,0.007292697,0.165295453
0.049115831,0.340546569,0.007277003,0.165306737
0.049120658,0.340503722,0.007261326,0.165318095
0.049125586,0.34046081,0.007245668,0.165329522
0.049130615,0.340417843,0.007230027,0.165341014
0.049135744,0.340374829,0.007214405,0.165352568
0.049140973,0.340331777,0.0071988,0.165364177
0.049146302,0.340288695,0.007183214,0.165375838
0.049151729,0.340245589,0.007167646,0.165387547
0.049157254,0.340202469,0.007152096,0.165399297
0.049162876,0.340159341,0.007136565,0.165411086
0.049168594,0.340116213,0.007121051,0.165422908
0.049174409,0.34007309,0.007105555,0.16543476
0.049180318,0.340029979,0.007090077,0.165446638
0.049186322,0.339986886,0.007074617,0.165458538
0.049192421,0.339943817,0.007059175,0.165470456
0.049198613,0.339900776,0.007043751,0.165482389
0.049204898,0.33985777,0.007028344,0.165494332
0.049211277,0.339814802,0.007012955,0.165506281
0.049217748,0.339771877,0.006997585,0.165518232
0.049224311,0.339728997,0.006982233,0.165530183
0.049230967,0.339686166,0.0069669,0.165542129
0.049237715,0.339643387,0.006951586,0.165554066
0.049244555,0.339600662,0.00693629,0.165565992
0.049251486,0.339557993,0.006921014,0.165577901
0.049258509,0.339515384,0.006905757,0.165589792
0.049265624,0.339472836,0.006890519,0.165601658
0.049272831,0.33943035,0.006875301,0.165613496
0.049280129,0.339387931,0.006860103,0.165625301
0.049287518,0.339345579,0.006844925,0.165637068
0.049294997,0.3393033,0.006829768,0.165648791
0.049302568,0.339261097,0.006814632,0.165660466
0.049310228,0.339218977,0.006799518,0.165672086
0.049317978,0.339176945,0.006784426,0.165683646
0.049325817,0.339135006,0.006769357,0.16569514
0.049333746,0.339093163,0.006754311,0.165706562
0.049341763,0.339051423,0.006739288,0.165717906
0.049349869,0.339009787,0.00672429,0.165729166
0.049358063,0.338968261,0.006709315,0.165740336
0.049366345,0.338926847,0.006694365,0.165751409
0.049374715,0.33888555,0.006679439,0.16576238
0.049383174,0.338844371,0.006664538,0.165773244
0.04939172,0.338803316,0.006649662,0.165783996
0.049400355,0.338762386,0.006634812,0.165794631
0.049409077,0.338721586,0.006619987,0.165805143
0.049417886,0.338680919,0.006605188,0.165815527
0.049426782,0.338640389,0.006590416,0.165825778
0.049435766,0.338600002,0.00657567,0.165835888
0.049444835,0.338559759,0.00656095,0.165845851
0.04945399,0.338519667,0.006546258,0.165855661
0.049463229,0.33847973,0.006531593,0.165865311
0.049472553,0.338439952,0.006516956,0.165874795
0.04948196,0.338400336,0.006502346,0.165884105
0.04949145,0.338360888,0.006487765,0.165893234
0.049501021,0.338321612,0.006473212,0.165902176
0.049510674,0.338282513,0.006458687,0.165910922
0.049520406,0.338243593,0.006444191,0.165919467
0.049530218,0.338204858,0.006429724,0.165927804
0.049540108,0.338166311,0.006415286,0.165935927
0.049550075,0.338127956,0.006400876,0.165943829
0.049560118,0.338089796,0.006386496,0.165951507
0.049570237,0.338051834,0.006372144,0.165958956
0.049580429,0.338014075,0.006357821,0.165966174
0.049590694,0.337976521,0.006343527,0.165973158
0.04960103,0.337939177,0.006329261,0.165979908
0.049611436,0.337902047,0.006315025,0.165986423
0.04962191,0.337865133,0.006300817,0.165992703
0.049632451,0.337828441,0.006286639,0.165998747
0.049643057,0.337791974,0.00627249,0.166004554
0.049653728,0.337755734,0.006258369,0.166010126
0.049664462,0.337719725,0.006244278,0.166015461
0.049675257,0.33768395,0.006230215,0.166020561
0.049686112,0.337648412,0.006216181,0.166025426
0.049697026,0.337613113,0.006202176,0.166030055
0.049707997,0.337578055,0.0061882,0.166034449
0.049719024,0.337543241,0.006174253,0.166038606
0.049730104,0.337508671,0.006160335,0.166042526
0.049741236,0.337474347,0.006146446,0.166046208
0.049752418,0.337440268,0.006132587,0.166049651
0.049763648,0.337406434,0.006118758,0.166052854
0.049774925,0.337372846,0.006104959,0.166055815
0.049786246,0.337339503,0.00609119,0.166058531
0.04979761,0.337306404,0.006077451,0.166061001
0.049809013,0.337273547,0.006063743,0.166063222
0.049820455,0.33724093,0.006050065,0.166065191
0.049831932,0.337208552,0.006036419,0.166066906
0.049843443,0.33717641,0.006022803,0.166068363
0.049854986,0.337144501,0.006009218,0.16606956
0.049866558,0.337112821,0.005995664,0.166070494
0.049878157,0.337081369,0.005982141,0.166071162
0.049889781,0.337050142,0.005968648,0.16607156
0.049901427,0.337019137,0.005955187,0.166071684
0.049913094,0.336988351,0.005941756,0.166071533
0.049924778,0.336957781,0.005928357,0.166071101
0.049936478,0.336927426,0.005914989,0.166070385
0.049948191,0.336897283,0.005901652,0.166069381
0.049959915,0.33686735,0.005888346,0.166068087
0.049971647,0.336837623,0.005875072,0.166066499
0.049983386,0.3368081,0.005861829,0.166064614
0.049995129,0.336778779,0.005848619,0.166062429
0.050006875,0.336749654,0.00583544,0.166059943
0.050018622,0.336720723,0.005822295,0.166057151
0.050030368,0.33669198,0.005809181,0.166054053
0.050042111,0.336663423,0.0057961,0.166050645
0.05005385,0.336635047,0.005783052,0.166046928
0.050065582,0.336606849,0.005770037,0.1660429
0.050077306,0.336578824,0.005757054,0.166038561
0.05008902,0.336550968,0.005744103,0.16603391
0.050100722,0.336523277,0.005731185,0.166028949
0.050112412,0.33649575,0.0057183,0.16602368
0.050124086,0.336468384,0.005705447,0.166018105
0.050135743,0.336441175,0.005692626,0.166012225
0.050147381,0.336414121,0.005679838,0.166006044
0.050159,0.33638722,0.005667083,0.165999564
0.050170595,0.336360469,0.005654361,0.165992788
0.050182167,0.336333864,0.005641671,0.16598572
0.050193714,0.336307404,0.005629014,0.165978364
0.050205232,0.336281086,0.00561639,0.165970722
0.050216722,0.336254909,0.005603799,0.165962798
0.050228181,0.336228873,0.00559124,0.165954595
0.050239607,0.336202974,0.005578714,0.165946115
0.050250998,0.336177214,0.005566222,0.165937361
0.050262354,0.336151589,0.005553763,0.165928335
0.050273671,0.336126098,0.005541337,0.165919041
0.050284949,0.336100739,0.005528944,0.165909479
0.050296185,0.336075512,0.005516584,0.165899653
0.050307378,0.336050412,0.005504258,0.165889564
0.050318526,0.336025438,0.005491965,0.165879214
0.050329626,0.336000588,0.005479705,0.165868606
0.050340678,0.335975858,0.005467478,0.165857741
0.05035168,0.335951247,0.005455285,0.165846621
0.050362629,0.335926753,0.005443124,0.165835245
0.050373524,0.335902371,0.005430997,0.165823616
0.050384364,0.335878099,0.005418904,0.165811733
0.050395147,0.335853936,0.005406844,0.165799596
0.050405871,0.335829879,0.005394818,0.165787207
0.050416534,0.335805927,0.005382826,0.165774567
0.050427137,0.335782077,0.005370868,0.165761677
0.050437676,0.335758327,0.005358944,0.165748539
0.050448151,0.335734675,0.005347055,0.165735155
0.05045856,0.335711117,0.0053352,0.165721528
0.050468902,0.335687651,0.00532338,0.165707662
0.050479175,0.335664273,0.005311595,0.16569356
0.050489379,0.335640981,0.005299844,0.165679227
0.050499512,0.335617769,0.005288129,0.165664667
0.050509571,0.335594636,0.005276448,0.165649883
0.050519556,0.335571577,0.005264803,0.165634878
0.050529465,0.33554859,0.005253192,0.165619656
0.050539296,0.335525671,0.005241616,0.165604221
0.050549048,0.335502817,0.005230076,0.165588577
0.050558719,0.335480024,0.00521857,0.165572729
0.050568307,0.335457288,0.0052071,0.165556681
0.050577811,0.335434606,0.005195666,0.165540438
0.050587229,0.335411973,0.005184267,0.165524003
0.050596559,0.335389384,0.005172904,0.16550738
0.0506058,0.335366837,0.005161576,0.165490573
0.050614949,0.335344325,0.005150285,0.165473585
0.050624006,0.335321843,0.005139029,0.165456417
0.050632967,0.335299387,0.005127808,0.165439074
0.050641832,0.335276951,0.005116624,0.165421557
0.050650599,0.33525453,0.005105475,0.165403868
0.050659265,0.335232119,0.005094362,0.165386009
0.050667829,0.335209713,0.005083284,0.165367982
0.050676289,0.335187306,0.005072243,0.165349788
0.050684643,0.335164894,0.005061239,0.165331429
0.050692889,0.33514247,0.00505027,0.165312907
0.050701026,0.33512003,0.005039338,0.165294224
0.050709051,0.335097568,0.005028443,0.165275383
0.050716963,0.33507508,0.005017585,0.165256388
0.05072476,0.33505256,0.005006763,0.165237242
0.05073244,0.335030004,0.004995977,0.165217949
0.050740003,0.335007408,0.004985228,0.165198511
0.050747447,0.334984766,0.004974516,0.165178933
0.050754771,0.334962072,0.00496384,0.165159216
0.050761972,0.334939321,0.0049532,0.165139362
0.050769052,0.334916506,0.004942596,0.165119374
0.050776007,0.334893622,0.004932029,0.165099253
0.050782836,0.33487066,0.004921497,0.165079
0.050789539,0.334847614,0.004911002,0.165058616
0.050796115,0.334824476,0.004900543,0.165038102
0.050802561,0.334801241,0.00489012,0.165017459
0.050808878,0.3347779,0.004879734,0.164996687
0.050815065,0.334754447,0.004869385,0.164975786
0.050821121,0.334730876,0.004859072,0.164954756
0.050827044,0.334707178,0.004848797,0.164933599
0.050832836,0.334683347,0.004838559,0.164912314
0.050838495,0.334659376,0.004828358,0.164890903
0.05084402,0.334635258,0.004818195,0.164869367
0.050849412,0.334610985,0.004808068,0.164847707
0.050854669,0.334586551,0.004797979,0.164825923
0.050859791,0.334561948,0.004787926,0.164804015
0.050864777,0.334537167,0.004777911,0.164781986
0.050869627,0.334512201,0.004767932,0.164759834
0.05087434,0.334487041,0.004757991,0.164737561
0.050878916,0.334461678,0.004748086,0.164715167
0.050883352,0.334436106,0.004738218,0.164692652
0.05088765,0.334410316,0.004728386,0.164670016
0.050891807,0.334384302,0.00471859,0.164647259
0.050895824,0.334358059,0.004708831,0.164624382
0.0508997,0.334331583,0.004699108,0.164601384
0.050903433,0.334304868,0.004689421,0.164578266
0.050907023,0.334277912,0.00467977,0.164555027
0.050910469,0.334250709,0.004670155,0.164531668
0.05091377,0.334223258,0.004660575,0.164508189
0.050916926,0.334195553,0.004651032,0.164484589
0.050919934,0.334167591,0.004641524,0.164460867
0.050922796,0.334139369,0.004632052,0.164437022
0.050925508,0.334110885,0.004622615,0.164413054
0.050928071,0.334082134,0.004613213,0.164388961
0.050930484,0.334053115,0.004603847,0.164364741
0.050932744,0.334023825,0.004594515,0.164340394
0.050934852,0.333994261,0.004585219,0.164315919
0.050936806,0.333964421,0.004575957,0.164291314
0.050938605,0.333934301,0.00456673,0.164266581
0.050940248,0.333903898,0.004557538,0.164241717
0.050941733,0.333873208,0.004548381,0.164216722
0.050943061,0.333842227,0.004539258,0.164191595
0.050944229,0.333810951,0.004530171,0.164166336
0.050945238,0.333779375,0.004521119,0.164140944
0.050946085,0.333747494,0.004512103,0.164115416
0.050946771,0.333715304,0.004503121,0.164089754
0.050947295,0.333682801,0.004494175,0.164063954
0.050947655,0.333649981,0.004485265,0.164038017
0.050947851,0.333616839,0.004476389,0.164011942
0.050947883,0.333583371,0.00446755,0.163985727
0.050947749,0.333549575,0.004458745,0.16395937
0.050947449,0.333515445,0.004449976,0.163932871
0.050946983,0.333480978,0.004441242,0.163906227
0.050946351,0.333446168,0.004432543,0.163879439
0.050945552,0.333411013,0.00442388,0.163852503
0.050944586,0.333375506,0.004415251,0.163825421
0.050943454,0.333339642,0.004406658,0.163798189
0.050942154,0.333303417,0.0043981,0.163770809
0.050940688,0.333266823,0.004389578,0.163743277
0.050939055,0.333229856,0.004381092,0.163715595
0.050937255,0.33319251,0.004372641,0.16368776
0.05093529,0.333154777,0.004364227,0.16365977
0.050933158,0.333116652,0.004355849,0.163631626
0.050930861,0.333078128,0.004347507,0.163603324
0.050928399,0.333039198,0.004339202,0.163574863
0.050925773,0.332999857,0.004330932,0.163546242
0.050922983,0.332960097,0.004322699,0.163517459
0.05092003,0.332919913,0.004314502,0.163488511
0.050916913,0.332879296,0.004306341,0.163459397
0.050913634,0.332838242,0.004298216,0.163430115
0.050910194,0.332796742,0.004290127,0.163400661
0.050906591,0.332754789,0.004282074,0.163371034
0.050902828,0.332712376,0.004274057,0.163341233
0.050898903,0.332669495,0.004266077,0.163311256
0.050894818,0.332626138,0.004258132,0.163281103
0.050890573,0.332582298,0.004250224,0.163250774
0.050886168,0.332537968,0.004242352,0.163220268
0.050881605,0.33249314,0.004234516,0.163189584
0.050876882,0.332447808,0.004226717,0.163158722
0.050872002,0.332401966,0.004218953,0.163127682
0.050866964,0.33235561,0.004211225,0.163096462
0.05086177,0.332308736,0.004203534,0.163065062
0.050856419,0.332261342,0.004195878,0.163033482
0.050850912,0.332213426,0.004188258,0.163001721
0.05084525,0.332164991,0.004180674,0.162969781
0.050839432,0.332116036,0.004173126,0.162937665
0.05083346,0.332066562,0.004165614,0.162905372
0.050827334,0.33201657,0.004158137,0.162872906
0.050821053,0.331966059,0.004150696,0.162840269
0.050814619,0.331915031,0.004143291,0.162807461
0.050808031,0.331863485,0.00413592,0.162774486
0.050801291,0.331811421,0.004128584,0.162741346
0.0507944,0.331758839,0.004121283,0.162708042
0.050787357,0.33170574,0.004114017,0.162674578
0.050780164,0.331652124,0.004106784,0.162640956
0.050772821,0.331597992,0.004099586,0.162607177
0.05076533,0.331543345,0.004092421,0.162573246
0.050757689,0.331488184,0.00408529,0.162539162
0.050749901,0.331432508,0.004078192,0.162504929
0.050741965,0.331376318,0.004071127,0.162470548
0.050733883,0.331319614,0.004064095,0.16243602
0.050725654,0.331262395,0.004057095,0.162401348
0.050717279,0.33120466,0.004050126,0.162366533
0.05070876,0.331146408,0.00404319,0.162331576
0.050700096,0.331087639,0.004036285,0.162296477
0.050691288,0.331028349,0.004029412,0.162261238
0.050682338,0.330968539,0.00402257,0.16222586
0.050673245,0.330908206,0.004015759,0.162190341
0.050664011,0.33084735,0.004008979,0.162154684
0.050654637,0.33078597,0.004002232,0.162118887
0.050645123,0.330724066,0.003995516,0.162082953
0.050635471,0.33066164,0.003988832,0.162046881
0.050625682,0.330598692,0.00398218,0.162010673
0.050615756,0.330535223,0.00397556,0.161974329
0.050605694,0.330471234,0.003968973,0.161937851
0.050595498,0.330406726,0.003962417,0.16190124
0.050585168,0.330341701,0.003955893,0.161864497
0.050574706,0.330276158,0.003949401,0.161827623
0.050564112,0.330210098,0.003942941,0.161790621
0.050553387,0.330143524,0.003936513,0.161753491
0.050542531,0.330076433,0.003930116,0.161716235
0.050531547,0.330008828,0.003923752,0.161678856
0.050520434,0.329940707,0.00391742,0.161641355
0.050509193,0.329872069,0.003911119,0.161603735
0.050497824,0.329802914,0.003904851,0.161565997
0.050486329,0.329733239,0.003898614,0.161528145
0.050474708,0.329663044,0.003892409,0.161490178
0.050462962,0.329592327,0.003886236,0.1614521
0.05045109,0.329521087,0.003880094,0.16141391
0.050439094,0.329449323,0.003873983,0.16137561
0.050426975,0.329377034,0.003867903,0.1613372
0.050414731,0.329304221,0.003861854,0.16129868
0.050402365,0.329230884,0.003855835,0.16126005
0.050389877,0.329157027,0.003849847,0.161221308
0.050377266,0.329082654,0.003843889,0.161182454
0.050364533,0.329007769,0.003837961,0.161143485
0.050351679,0.328932378,0.003832064,0.161104401
0.050338705,0.328856486,0.003826197,0.161065199
0.050325609,0.328780097,0.00382036,0.161025878
0.050312394,0.328703216,0.003814554,0.160986435
0.050299059,0.328625849,0.003808778,0.160946871
0.050285606,0.328547998,0.003803032,0.160907184
0.050272034,0.328469667,0.003797317,0.160867371
0.050258344,0.328390861,0.003791632,0.160827431
0.050244538,0.328311583,0.003785977,0.160787363
0.050230615,0.328231835,0.003780352,0.160747164
0.050216576,0.32815162,0.003774756,0.160706833
0.050202421,0.328070941,0.00376919,0.16066637
0.050188151,0.3279898,0.003763653,0.160625773
0.050173767,0.327908199,0.003758145,0.160585041
0.050159269,0.327826139,0.003752666,0.160544173
0.050144657,0.327743621,0.003747215,0.160503168
0.050129933,0.327660648,0.003741793,0.160462023
0.050115097,0.327577219,0.003736399,0.160420736
0.050100148,0.327493336,0.003731033,0.160379305
0.050085089,0.327408998,0.003725695,0.160337728
0.050069918,0.327324208,0.003720384,0.160296
0.050054637,0.327238964,0.003715101,0.16025412
0.050039246,0.327153268,0.003709845,0.160212083
0.050023745,0.327067119,0.003704616,0.160169887
0.050008135,0.326980519,0.003699414,0.160127528
0.049992417,0.326893467,0.003694239,0.160085001
0.049976592,0.326805964,0.003689089,0.160042304
0.04996066,0.326718014,0.003683966,0.159999433
0.049944623,0.32662962,0.003678868,0.159956385
0.049928483,0.326540786,0.003673795,0.159913155
0.049912239,0.326451516,0.003668747,0.159869741
0.049895893,0.326361814,0.003663725,0.159826139
0.049879446,0.326271685,0.003658727,0.159782345
0.049862899,0.326181134,0.003653755,0.159738356
0.049846254,0.326090164,0.003648806,0.159694167
0.049829512,0.325998783,0.003643883,0.159649775
0.049812674,0.325906993,0.003638983,0.159605175
0.049795742,0.325814801,0.003634108,0.159560364
0.049778716,0.325722211,0.003629258,0.159515338
0.049761598,0.32562923,0.003624432,0.159470093
0.049744389,0.325535862,0.00361963,0.159424627
0.04972709,0.325442113,0.003614852,0.159378941
0.049709702,0.325347988,0.003610098,0.159333032
0.049692226,0.325253491,0.003605367,0.159286902
0.049674663,0.325158628,0.003600661,0.15924055
0.049657015,0.325063401,0.003595977,0.159193975
0.049639282,0.324967814,0.003591317,0.159147177
0.049621465,0.324871871,0.003586679,0.159100155
0.049603566,0.324775574,0.003582064,0.159052908
0.049585585,0.324678926,0.003577471,0.159005436
0.049567524,0.324581928,0.003572901,0.158957737
0.049549383,0.324484584,0.003568353,0.15890981
0.049531165,0.324386894,0.003563826,0.158861655
0.04951287,0.324288862,0.003559322,0.158813271
0.049494499,0.324190489,0.003554839,0.158764654
0.049476053,0.324091779,0.003550378,0.158715806
0.049457535,0.323992731,0.003545939,0.158666724
0.049438944,0.32389335,0.003541521,0.158617407
0.049420282,0.323793638,0.003537124,0.158567856
0.04940155,0.323693597,0.003532748,0.15851807
0.049382749,0.323593232,0.003528393,0.158468049
0.04936388,0.323492546,0.003524059,0.158417796
0.049344943,0.323391544,0.003519746,0.158367312
0.049325941,0.32329023,0.003515453,0.158316603
0.049306874,0.323188609,0.003511179,0.158265671
0.049287743,0.323086685,0.003506926,0.158214524
0.049268549,0.322984465,0.003502691,0.158163165
0.049249292,0.322881955,0.003498476,0.158111603
0.049229975,0.322779159,0.00349428,0.158059845
0.049210596,0.322676084,0.003490102,0.158007903
0.049191158,0.322572736,0.003485944,0.157955787
0.04917166,0.322469119,0.003481803,0.15790351
0.049152103,0.322365239,0.003477681,0.157851081
0.049132487,0.322261102,0.003473578,0.157798514
0.049112814,0.322156713,0.003469492,0.157745817
0.049093084,0.322052077,0.003465424,0.157693003
0.049073297,0.3219472,0.003461373,0.15764008
0.049053454,0.321842088,0.003457339,0.157587059
0.049033556,0.321736744,0.003453322,0.157533948
0.049013604,0.321631176,0.003449321,0.157480756
0.048993598,0.321525387,0.003445337,0.157427492
0.048973539,0.321419383,0.003441368,0.157374163
0.048953428,0.321313166,0.003437416,0.157320778
0.048933266,0.321206742,0.003433479,0.157267343
0.048913053,0.321100114,0.003429558,0.157213866
0.04889279,0.320993286,0.003425651,0.157160354
0.048872478,0.320886261,0.00342176,0.157106812
0.048852118,0.320779042,0.003417883,0.157053248
0.04883171,0.320671631,0.003414021,0.156999666
0.048811254,0.320564031,0.003410173,0.156946074
0.048790751,0.320456244,0.00340634,0.156892475
0.048770202,0.320348272,0.00340252,0.156838875
0.048749607,0.320240117,0.003398713,0.156785279
0.048728967,0.320131784,0.00339492,0.156731691
0.048708282,0.320023274,0.003391139,0.156678116
0.048687553,0.319914591,0.00338737,0.156624557
0.04866678,0.319805737,0.003383613,0.15657102
0.048645965,0.319696717,0.003379868,0.156517508
0.048625109,0.319587534,0.003376134,0.156464025
0.048604212,0.319478192,0.003372412,0.156410576
0.048583276,0.319368696,0.0033687,0.156357163
0.048562303,0.319259052,0.003364999,0.156303791
0.048541295,0.319149268,0.003361308,0.156250461
0.048520253,0.31903935,0.003357628,0.156197177
0.048499179,0.318929307,0.003353959,0.156143941
0.048478077,0.318819148,0.003350301,0.156090757
0.048456948,0.31870888,0.003346653,0.156037627
0.048435794,0.318598512,0.003343016,0.155984553
0.048414619,0.318488052,0.003339389,0.155931536
0.048393423,0.318377507,0.003335774,0.155878578
0.04837221,0.318266885,0.003332169,0.155825681
0.048350982,0.318156192,0.003328576,0.155772847
0.04832974,0.318045436,0.003324994,0.155720077
0.048308487,0.317934622,0.003321423,0.155667373
0.048287224,0.317823758,0.003317864,0.155614735
0.048265954,0.317712848,0.003314316,0.155562165
0.048244678,0.317601898,0.003310781,0.155509664
0.048223398,0.317490913,0.003307257,0.155457234
0.048202116,0.317379898,0.003303745,0.155404877
0.048180834,0.317268857,0.003300246,0.155352594
0.048159553,0.317157794,0.003296759,0.155300388
0.048138275,0.317046712,0.003293284,0.155248259
0.048117002,0.316935615,0.003289821,0.155196209
0.048095735,0.316824504,0.003286371,0.155144238
0.048074476,0.316713383,0.003282933,0.155092347
0.048053226,0.316602253,0.003279507,0.155040536
0.048031985,0.316491116,0.003276094,0.154988805
0.048010756,0.316379975,0.003272693,0.154937153
0.047989539,0.316268832,0.003269305,0.154885581
0.047968335,0.316157691,0.003265928,0.154834087
0.047947146,0.316046554,0.003262564,0.15478267
0.047925972,0.315935423,0.003259212,0.15473133
0.047904814,0.315824302,0.003255871,0.154680065
0.047883672,0.315713193,0.003252543,0.154628875
0.047862548,0.315602097,0.003249226,0.154577756
0.047841442,0.315491016,0.003245922,0.154526707
0.047820355,0.315379953,0.003242628,0.154475727
0.047799287,0.315268907,0.003239346,0.154424811
0.04777824,0.315157881,0.003236076,0.154373958
0.047757214,0.315046875,0.003232816,0.154323165
0.047736209,0.31493589,0.003229568,0.154272429
0.047715227,0.314824927,0.003226331,0.154221747
0.047694268,0.314713989,0.003223104,0.154171119
0.047673334,0.314603076,0.003219889,0.154120542
0.047652426,0.314492193,0.003216685,0.154070014
0.047631546,0.31438134,0.003213491,0.154019533
0.047610695,0.31427052,0.003210308,0.153969098
0.047589875,0.314159735,0.003207136,0.153918706
0.047569089,0.314048989,0.003203975,0.153868357
0.047548338,0.313938282,0.003200824,0.153818048
0.047527626,0.313827618,0.003197684,0.153767779
0.047506956,0.313716999,0.003194555,0.153717548
0.047486329,0.313606428,0.003191437,0.153667354
0.047465749,0.313495907,0.003188329,0.153617197
0.047445219,0.313385438,0.003185232,0.153567075
0.04742474,0.313275022,0.003182144,0.153516986
0.047404315,0.31316466,0.003179067,0.153466931
0.047383947,0.313054352,0.003176001,0.153416906
0.047363639,0.312944099,0.003172944,0.153366912
0.047343392,0.312833901,0.003169896,0.153316947
0.047323209,0.312723756,0.003166859,0.153267009
0.047303092,0.312613663,0.003163831,0.153217099
0.047283044,0.312503621,0.003160812,0.153167213
0.047263066,0.312393627,0.003157803,0.153117352
0.047243162,0.31228368,0.003154802,0.153067513
0.047223333,0.312173777,0.003151811,0.153017695
0.047203582,0.312063915,0.003148828,0.152967895
0.04718391,0.31195409,0.003145853,0.152918113
0.047164321,0.3118443,0.003142887,0.152868345
0.047144816,0.311734542,0.00313993,0.152818588
0.047125397,0.311624812,0.003136981,0.152768841
0.047106067,0.311515108,0.003134041,0.152719099
0.047086827,0.311405427,0.00313111,0.152669361
0.047067679,0.311295764,0.003128187,0.152619623
0.047048625,0.311186116,0.003125272,0.152569881
0.047029667,0.311076478,0.003122366,0.152520132
0.047010806,0.310966846,0.003119468,0.152470373
0.046992045,0.310857213,0.003116578,0.1524206
0.046973383,0.310747576,0.003113696,0.15237081
0.046954825,0.310637928,0.003110821,0.152321
0.046936369,0.310528263,0.003107955,0.152271167
0.046918019,0.310418576,0.003105096,0.152221308
0.046899775,0.310308861,0.003102245,0.152171421
0.04688164,0.310199113,0.003099401,0.152121505
0.046863614,0.310089328,0.003096564,0.152071557
0.046845701,0.3099795,0.003093734,0.152021579
0.046827902,0.309869626,0.003090911,0.151971571
0.046810219,0.309759703,0.003088095,0.151921534
0.046792655,0.309649729,0.003085286,0.151871469
0.046775212,0.309539702,0.003082483,0.151821378
0.046757893,0.309429619,0.003079687,0.151771261
0.046740701,0.309319478,0.003076898,0.15172112
0.046723639,0.309209277,0.003074116,0.151670955
0.046706709,0.309099013,0.003071339,0.151620767
