processed_ch1,processed_ch2,processed_ch3,processed_ch4
0.01300457,0.005523952,0.145078315,0.005400232
0.012981565,0.005530883,0.145020325,0.005404576
0.012958588,0.005537887,0.144962416,0.005408967
0.012935642,0.005544964,0.144904585,0.005413407
0.012912726,0.005552114,0.144846832,0.005417895
0.012889842,0.005559336,0.144789154,0.005422431
0.012866991,0.005566629,0.144731549,0.005427015
0.012844173,0.005573992,0.144674018,0.005431647
0.012821389,0.005581424,0.144616558,0.005436328
0.012798641,0.005588924,0.14455917,0.005441056
0.012775929,0.005596492,0.144501852,0.005445832
0.012753253,0.005604126,0.144444605,0.005450656
0.012730616,0.005611825,0.144387429,0.005455528
0.012708017,0.005619589,0.144330321,0.005460447
0.012685459,0.005627416,0.144273283,0.005465414
0.012662941,0.005635305,0.144216314,0.005470429
0.012640465,0.005643255,0.144159413,0.005475492
0.012618033,0.005651267,0.144102581,0.005480602
0.012595644,0.005659339,0.144045816,0.00548576
0.0125733,0.005667471,0.143989119,0.005490964
0.012551003,0.005675663,0.14393249,0.005496216
0.012528752,0.005683913,0.143875928,0.005501513
0.012506549,0.005692222,0.143819435,0.005506856
0.012484395,0.005700588,0.14376301,0.005512245
0.012462291,0.00570901,0.143706654,0.005517678
0.012440238,0.005717488,0.143650365,0.005523156
0.012418235,0.005726021,0.143594145,0.005528679
0.012396285,0.005734606,0.143537991,0.005534246
0.012374388,0.005743244,0.143481905,0.005539858
0.012352545,0.005751933,0.143425885,0.005545512
0.012330756,0.005760673,0.143369931,0.00555121
0.012309023,0.00576946,0.143314043,0.00555695
0.012287345,0.005778296,0.143258221,0.005562731
0.012265724,0.00578718,0.143202465,0.005568553
0.01224416,0.005796109,0.143146775,0.005574416
0.012222654,0.005805084,0.143091151,0.005580319
0.012201205,0.005814104,0.143035593,0.005586261
0.012179815,0.005823168,0.142980101,0.005592241
0.012158485,0.005832274,0.142924674,0.005598258
0.012137214,0.005841422,0.142869312,0.005604313
0.012116003,0.005850611,0.142814014,0.005610403
0.012094854,0.00585984,0.14275878,0.005616527
0.012073768,0.005869107,0.142703609,0.005622685
0.012052745,0.005878413,0.142648502,0.005628875
0.012031785,0.005887755,0.142593458,0.005635096
0.012010891,0.005897134,0.142538476,0.005641347
0.011990062,0.005906547,0.142483557,0.005647627
0.0119693,0.005915993,0.1424287,0.005653934
0.011948605,0.005925472,0.142373904,0.005660269
0.011927978,0.005934983,0.142319169,0.005666629
0.01190742,0.005944524,0.142264494,0.005673015
0.011886932,0.005954095,0.142209877,0.005679426
0.011866516,0.005963694,0.142155319,0.00568586
0.011846171,0.00597332,0.142100817,0.005692317
0.0118259,0.005982973,0.142046372,0.005698796
0.011805703,0.00599265,0.141991983,0.005705296
0.011785582,0.006002351,0.14193765,0.005711817
0.011765538,0.006012076,0.141883372,0.005718357
0.011745573,0.006021823,0.141829149,0.005724916
0.011725688,0.006031592,0.14177498,0.005731494
0.011705886,0.006041382,0.141720864,0.005738088
0.011686166,0.006051192,0.141666801,0.0057447
0.01166653,0.006061022,0.141612788,0.005751327
0.01164698,0.00607087,0.141558825,0.005757969
0.011627516,0.006080737,0.141504911,0.005764625
0.01160814,0.006090621,0.141451044,0.005771293
0.011588853,0.006100522,0.141397223,0.005777974
0.011569655,0.006110439,0.141343447,0.005784666
0.011550548,0.00612037,0.141289713,0.005791367
0.011531532,0.006130316,0.141236022,0.005798078
0.011512609,0.006140275,0.141182371,0.005804796
0.011493779,0.006150247,0.141128758,0.005811521
0.011475045,0.006160231,0.141075183,0.005818253
0.011456406,0.006170227,0.141021642,0.00582499
0.011437864,0.006180234,0.140968134,0.005831732
0.01141942,0.006190251,0.140914656,0.005838477
0.011401075,0.006200279,0.140861207,0.005845225
0.011382829,0.006210315,0.140807785,0.005851974
0.011364683,0.00622036,0.140754387,0.005858724
0.011346639,0.006230412,0.140701011,0.005865473
0.011328696,0.006240471,0.140647655,0.005872221
0.011310855,0.006250536,0.140594317,0.005878967
0.011293118,0.006260605,0.140540995,0.005885709
0.011275485,0.006270679,0.140487687,0.005892446
0.011257956,0.006280755,0.140434391,0.005899178
0.011240532,0.006290833,0.140381104,0.005905904
0.011223215,0.006300913,0.140327825,0.005912623
0.011206003,0.006310992,0.140274552,0.005919333
0.011188898,0.006321071,0.140221284,0.005926033
0.011171901,0.006331149,0.140168018,0.005932723
0.011155012,0.006341225,0.140114754,0.005939401
0.011138231,0.006351297,0.140061489,0.005946067
0.011121559,0.006361365,0.140008221,0.005952719
0.011104996,0.006371428,0.139954949,0.005959358
0.011088542,0.006381486,0.139901671,0.005965982
0.011072198,0.006391536,0.139848385,0.005972594
0.011055964,0.006401579,0.13979509,0.005979192
0.01103984,0.006411613,0.139741783,0.005985778
0.011023827,0.006421638,0.139688463,0.005992352
0.011007925,0.006431651,0.13963513,0.005998915
0.010992133,0.006441654,0.13958178,0.006005467
0.010976453,0.006451644,0.139528415,0.00601201
0.010960885,0.006461621,0.139475034,0.006018543
0.01094543,0.006471583,0.139421634,0.006025068
0.010930087,0.00648153,0.139368217,0.006031586
0.010914858,0.006491461,0.139314781,0.006038098
0.010899743,0.006501375,0.139261326,0.006044604
0.010884741,0.00651127,0.13920785,0.006051105
0.010869854,0.006521148,0.139154354,0.006057602
0.010855082,0.006531007,0.139100836,0.006064095
0.010840425,0.006540848,0.139047296,0.006070583
0.010825883,0.006550668,0.138993731,0.006077068
0.010811457,0.006560469,0.138940141,0.00608355
0.010797146,0.006570249,0.138886523,0.006090029
0.010782951,0.006580007,0.138832877,0.006096504
0.010768871,0.006589744,0.138779201,0.006102976
0.010754908,0.006599459,0.138725493,0.006109445
0.010741061,0.006609151,0.138671751,0.00611591
0.010727329,0.00661882,0.138617975,0.006122372
0.010713714,0.006628465,0.138564161,0.006128831
0.010700215,0.006638086,0.13851031,0.006135285
0.010686832,0.006647682,0.138456419,0.006141736
0.010673565,0.006657253,0.138402488,0.006148182
0.010660415,0.006666798,0.138348516,0.006154624
0.010647383,0.006676317,0.138294503,0.006161061
0.010634467,0.00668581,0.138240449,0.006167493
0.010621669,0.006695275,0.138186352,0.006173919
0.01060899,0.006704712,0.138132214,0.006180339
0.010596429,0.00671412,0.138078035,0.006186753
0.010583989,0.006723499,0.138023814,0.00619316
0.010571669,0.006732847,0.137969555,0.006199559
0.01055947,0.006742165,0.137915259,0.006205951
0.010547394,0.006751452,0.137860926,0.006212334
0.010535441,0.006760706,0.13780656,0.006218709
0.010523612,0.006769929,0.137752161,0.006225075
0.010511907,0.006779118,0.137697732,0.006231432
0.010500327,0.006788275,0.137643273,0.006237779
0.010488873,0.006797398,0.137588789,0.006244116
0.010477546,0.006806486,0.137534283,0.006250443
0.010466346,0.006815539,0.137479757,0.006256758
0.010455273,0.006824557,0.137425217,0.006263063
0.010444329,0.006833538,0.137370668,0.006269357
0.010433514,0.006842481,0.137316115,0.006275638
0.010422829,0.006851387,0.137261564,0.006281907
0.010412275,0.006860254,0.13720702,0.006288164
0.010401853,0.006869082,0.137152491,0.006294406
0.010391563,0.006877869,0.137097982,0.006300635
0.010381406,0.006886616,0.1370435,0.00630685
0.010371383,0.006895322,0.136989051,0.006313049
0.010361495,0.006903985,0.136934643,0.006319232
0.010351742,0.006912607,0.136880282,0.0063254
0.010342126,0.006921186,0.136825975,0.006331551
0.010332648,0.006929722,0.13677173,0.006337685
0.010323307,0.006938214,0.136717555,0.006343802
0.010314105,0.006946664,0.136663456,0.006349901
0.010305043,0.006955069,0.136609443,0.006355982
0.010296121,0.00696343,0.136555523,0.006362044
0.010287341,0.006971746,0.136501704,0.006368088
0.010278702,0.006980017,0.136447995,0.006374112
0.010270206,0.006988241,0.136394405,0.006380116
0.010261853,0.006996418,0.136340941,0.0063861
0.010253645,0.007004549,0.136287612,0.006392062
0.010245582,0.007012631,0.136234426,0.006398003
0.010237663,0.007020665,0.136181391,0.006403922
0.01022989,0.007028651,0.136128516,0.006409817
0.010222264,0.007036586,0.136075809,0.006415689
0.010214783,0.007044472,0.136023278,0.006421537
0.01020745,0.007052307,0.135970932,0.00642736
0.010200264,0.00706009,0.135918777,0.006433158
0.010193226,0.007067821,0.135866822,0.00643893
0.010186336,0.0070755,0.135815073,0.006444676
0.010179595,0.007083125,0.135763537,0.006450396
0.010173004,0.007090698,0.135712221,0.00645609
0.010166562,0.007098216,0.135661131,0.006461756
0.010160272,0.007105681,0.135610273,0.006467396
0.010154133,0.00711309,0.135559653,0.006473009
0.010148146,0.007120445,0.135509276,0.006478595
0.010142313,0.007127743,0.135459147,0.006484154
0.010136633,0.007134986,0.135409271,0.006489685
0.010131108,0.007142172,0.135359654,0.006495189
0.010125738,0.007149301,0.1353103,0.006500664
0.010120524,0.007156372,0.135261213,0.006506111
0.010115465,0.007163386,0.135212399,0.006511528
0.010110562,0.007170341,0.135163861,0.006516917
0.010105815,0.007177237,0.135115603,0.006522276
0.010101226,0.007184074,0.135067628,0.006527605
0.010096793,0.007190851,0.135019941,0.006532903
0.010092518,0.007197567,0.134972545,0.00653817
0.0100884,0.007204222,0.134925443,0.006543405
0.010084439,0.007210814,0.13487864,0.006548607
0.010080637,0.007217345,0.134832139,0.006553775
0.010076992,0.007223812,0.134785944,0.00655891
0.010073505,0.007230215,0.134740059,0.006564009
0.010070177,0.007236554,0.134694488,0.006569073
0.010067007,0.00724283,0.134649237,0.006574101
0.010063996,0.007249041,0.134604308,0.006579092
0.010061144,0.007255189,0.134559706,0.006584045
0.010058451,0.007261272,0.134515435,0.00658896
0.010055917,0.007267292,0.134471499,0.006593836
0.010053542,0.007273246,0.134427903,0.006598673
0.010051326,0.007279137,0.13438465,0.006603469
0.01004927,0.007284963,0.134341745,0.006608225
0.010047372,0.007290724,0.13429919,0.006612939
0.010045633,0.00729642,0.134256991,0.00661761
0.010044052,0.007302052,0.13421515,0.006622238
0.01004263,0.007307619,0.13417367,0.006626821
0.010041366,0.007313121,0.134132555,0.00663136
0.010040259,0.007318558,0.134091808,0.006635853
0.01003931,0.007323929,0.134051431,0.0066403
0.010038517,0.007329234,0.134011427,0.0066447
0.010037881,0.007334473,0.133971798,0.006649053
0.010037402,0.007339646,0.133932548,0.006653358
0.010037078,0.007344753,0.133893679,0.006657615
0.010036911,0.007349793,0.133855194,0.006661824
0.010036899,0.007354767,0.133817095,0.006665984
0.010037043,0.007359674,0.133779386,0.006670095
0.010037341,0.007364514,0.133742068,0.006674156
0.010037795,0.007369288,0.133705145,0.006678168
0.010038403,0.007373994,0.133668619,0.00668213
0.010039165,0.007378632,0.133632491,0.006686041
0.010040081,0.007383204,0.133596764,0.006689901
0.01004115,0.007387707,0.133561439,0.006693709
0.010042372,0.007392143,0.133526517,0.006697464
0.010043747,0.007396511,0.133492,0.006701167
0.010045273,0.007400812,0.13345789,0.006704816
0.010046951,0.007405044,0.133424189,0.006708412
0.010048778,0.007409207,0.133390896,0.006711953
0.010050756,0.007413302,0.133358014,0.00671544
0.010052882,0.007417327,0.133325543,0.006718871
0.010055157,0.007421283,0.133293484,0.006722247
0.010057579,0.007425169,0.133261838,0.006725567
0.010060148,0.007428986,0.133230604,0.00672883
0.010062862,0.007432733,0.133199784,0.006732036
0.010065721,0.00743641,0.133169378,0.006735184
0.010068724,0.007440018,0.133139386,0.006738272
0.010071871,0.007443555,0.133109808,0.0067413
0.01007516,0.007447022,0.133080645,0.006744267
0.01007859,0.007450419,0.133051898,0.006747173
0.010082161,0.007453745,0.133023566,0.006750016
0.010085873,0.007457,0.132995649,0.006752797
0.010089724,0.007460184,0.132968148,0.006755514
0.010093713,0.007463297,0.132941063,0.006758168
0.010097841,0.007466339,0.132914393,0.006760757
0.010102106,0.007469309,0.132888139,0.006763282
0.010106508,0.007472208,0.1328623,0.006765741
0.010111045,0.007475034,0.132836874,0.006768136
0.010115718,0.007477788,0.132811862,0.006770463
0.010120525,0.007480469,0.132787263,0.006772724
0.010125465,0.007483077,0.132763076,0.006774917
0.010130538,0.007485611,0.1327393,0.006777042
0.010135743,0.007488072,0.132715933,0.006779098
0.010141078,0.007490459,0.132692976,0.006781083
0.010146543,0.007492771,0.132670427,0.006782998
0.010152137,0.00749501,0.132648283,0.006784841
0.010157858,0.007497175,0.132626544,0.006786611
0.010163705,0.007499266,0.132605208,0.006788309
0.010169679,0.007501284,0.132584274,0.006789932
0.010175776,0.007503228,0.132563741,0.006791481
0.010181997,0.007505099,0.132543606,0.006792955
0.01018834,0.007506898,0.132523869,0.006794353
0.010194804,0.007508624,0.132504528,0.006795675
0.010201387,0.007510278,0.132485581,0.006796921
0.01020809,0.00751186,0.132467027,0.006798089
0.01021491,0.007513371,0.132448863,0.006799179
0.010221845,0.007514811,0.132431087,0.006800192
0.010228896,0.00751618,0.132413698,0.006801125
0.01023606,0.007517479,0.132396692,0.00680198
0.010243336,0.007518708,0.132380069,0.006802755
0.010250724,0.007519866,0.132363825,0.00680345
0.010258221,0.007520955,0.132347958,0.006804066
0.010265828,0.007521975,0.132332465,0.006804601
0.010273541,0.007522925,0.132317344,0.006805055
0.010281361,0.007523805,0.132302593,0.006805427
0.010289286,0.007524617,0.132288208,0.006805718
0.010297315,0.00752536,0.132274189,0.006805926
0.010305446,0.007526035,0.132260531,0.006806051
0.010313678,0.007526642,0.132247234,0.006806093
0.010322009,0.007527181,0.132234295,0.00680605
0.010330438,0.007527655,0.132221711,0.006805922
0.010338964,0.007528062,0.13220948,0.006805709
0.010347586,0.007528405,0.1321976,0.006805409
0.010356301,0.007528683,0.132186068,0.006805023
0.010365109,0.007528898,0.132174881,0.00680455
0.010374009,0.00752905,0.132164036,0.006803992
0.010382998,0.007529139,0.132153529,0.006803348
0.010392076,0.007529166,0.132143358,0.00680262
0.010401241,0.007529131,0.132133519,0.00680181
0.010410492,0.007529035,0.13212401,0.006800917
0.010419828,0.007528878,0.132114827,0.006799943
0.010429249,0.007528661,0.132105968,0.006798888
0.010438752,0.007528384,0.13209743,0.006797754
0.010448339,0.007528047,0.13208921,0.00679654
0.010458008,0.007527651,0.132081304,0.006795248
0.010467758,0.007527196,0.13207371,0.006793878
0.010477589,0.007526683,0.132066423,0.00679243
0.010487501,0.007526111,0.13205944,0.006790904
0.010497492,0.007525482,0.132052757,0.006789301
0.010507562,0.007524795,0.132046369,0.006787621
0.010517711,0.00752405,0.132040274,0.006785864
0.010527937,0.007523247,0.132034465,0.006784029
0.010538239,0.007522388,0.132028938,0.006782119
0.010548617,0.00752147,0.13202369,0.006780131
0.01055907,0.007520495,0.132018714,0.006778067
0.010569598,0.007519462,0.132014005,0.006775927
0.010580198,0.007518371,0.132009559,0.006773709
0.01059087,0.007517224,0.13200537,0.006771415
0.010601614,0.007516019,0.132001433,0.006769044
0.010612428,0.007514759,0.131997742,0.006766596
0.010623312,0.007513443,0.131994292,0.006764071
0.010634265,0.007512073,0.131991079,0.00676147
0.010645285,0.007510648,0.131988098,0.006758793
0.010656373,0.00750917,0.131985344,0.00675604
0.010667526,0.007507639,0.131982813,0.00675321
0.010678745,0.007506055,0.131980503,0.006750305
0.010690028,0.007504419,0.13197841,0.006747324
0.010701375,0.007502731,0.13197653,0.006744268
0.010712784,0.007500992,0.131974862,0.006741138
0.010724256,0.007499203,0.131973403,0.006737933
0.010735789,0.007497363,0.131972148,0.006734654
0.010747382,0.007495473,0.131971095,0.006731301
0.010759034,0.007493534,0.131970241,0.006727874
0.010770744,0.007491545,0.131969582,0.006724374
0.010782512,0.007489509,0.131969116,0.006720799
0.010794335,0.007487425,0.13196884,0.00671715
0.010806213,0.007485294,0.131968751,0.006713427
0.010818146,0.007483116,0.131968846,0.006709629
0.01083013,0.007480893,0.131969125,0.006705758
0.010842167,0.007478625,0.131969583,0.006701812
0.010854254,0.007476312,0.13197022,0.006697793
0.01086639,0.007473956,0.131971034,0.0066937
0.010878574,0.007471556,0.131972022,0.006689534
0.010890806,0.007469115,0.131973182,0.006685296
0.010903083,0.007466632,0.131974513,0.006680984
0.010915405,0.007464108,0.131976012,0.0066766
0.01092777,0.007461544,0.131977677,0.006672144
0.010940177,0.007458941,0.131979506,0.006667615
0.010952625,0.0074563,0.131981496,0.006663014
0.010965113,0.00745362,0.131983646,0.00665834
0.010977639,0.007450903,0.131985953,0.006653595
0.010990202,0.007448149,0.131988414,0.006648777
0.0110028,0.007445359,0.131991027,0.006643887
0.011015433,0.007442532,0.131993788,0.006638926
0.011028099,0.007439671,0.131996696,0.006633892
0.011040796,0.007436774,0.131999747,0.006628787
0.011053523,0.007433844,0.132002937,0.006623611
0.011066279,0.00743088,0.132006264,0.006618364
0.011079063,0.007427883,0.132009725,0.006613045
0.011091872,0.007424854,0.132013315,0.006607654
0.011104706,0.007421793,0.132017032,0.006602192
0.011117563,0.0074187,0.132020873,0.006596658
0.011130443,0.007415577,0.132024833,0.006591053
0.011143344,0.007412423,0.132028909,0.006585376
0.011156266,0.007409239,0.132033097,0.006579629
0.011169206,0.007406026,0.132037394,0.00657381
0.011182165,0.007402783,0.132041795,0.006567921
0.01119514,0.007399513,0.132046296,0.006561961
0.011208132,0.007396214,0.132050894,0.00655593
0.011221137,0.007392887,0.132055584,0.006549829
0.011234156,0.007389533,0.132060362,0.006543657
0.011247187,0.007386152,0.132065223,0.006537416
0.011260229,0.007382744,0.132070165,0.006531105
0.01127328,0.007379309,0.132075181,0.006524724
0.011286339,0.007375847,0.132080271,0.006518274
0.011299405,0.00737236,0.132085429,0.006511754
0.011312477,0.007368846,0.132090653,0.006505164
0.011325552,0.007365307,0.13209594,0.006498506
0.011338631,0.007361742,0.132101289,0.006491779
0.011351711,0.007358153,0.132106696,0.006484982
0.011364793,0.00735454,0.132112159,0.006478116
0.011377873,0.007350902,0.132117676,0.006471182
0.011390952,0.007347241,0.132123244,0.006464177
0.011404029,0.007343556,0.132128861,0.006457104
0.011417101,0.007339848,0.132134523,0.006449962
0.011430169,0.007336117,0.132140227,0.00644275
0.01144323,0.007332364,0.132145971,0.006435469
0.011456283,0.007328589,0.132151753,0.006428118
0.011469327,0.007324791,0.132157568,0.006420699
0.011482362,0.007320971,0.132163416,0.006413211
0.011495385,0.00731713,0.132169295,0.006405655
0.011508396,0.007313266,0.132175202,0.00639803
0.011521393,0.007309381,0.132181137,0.006390336
0.011534376,0.007305476,0.132187099,0.006382574
0.011547344,0.007301553,0.132193086,0.006374744
0.011560295,0.007297611,0.132199097,0.006366847
0.011573228,0.007293653,0.132205132,0.006358882
0.011586144,0.007289679,0.132211189,0.006350851
0.011599042,0.007285692,0.132217268,0.006342754
0.011611921,0.007281693,0.132223368,0.006334591
0.011624781,0.007277681,0.132229489,0.006326363
0.011637623,0.00727366,0.132235629,0.006318069
0.011650446,0.00726963,0.132241789,0.006309711
0.01166325,0.007265592,0.132247972,0.006301289
0.011676036,0.007261549,0.132254177,0.006292803
0.011688802,0.0072575,0.132260409,0.006284254
0.01170155,0.007253448,0.13226667,0.006275642
0.011714279,0.007249393,0.132272965,0.006266968
0.011726989,0.007245338,0.1322793,0.006258233
0.011739681,0.007241281,0.132285679,0.006249436
0.011752354,0.007237226,0.132292106,0.006240579
0.011765008,0.007233172,0.132298588,0.006231662
0.011777644,0.007229121,0.132305128,0.006222685
0.01179026,0.007225074,0.132311731,0.006213649
0.011802857,0.007221032,0.132318403,0.006204554
0.011815434,0.007216994,0.132325148,0.006195401
0.011827992,0.007212963,0.132331971,0.006186189
0.011840529,0.007208939,0.132338879,0.00617692
0.011853045,0.007204923,0.132345876,0.006167592
0.01186554,0.007200914,0.132352967,0.006158207
0.011878014,0.007196915,0.132360158,0.006148766
0.011890466,0.007192926,0.132367453,0.006139268
0.011902896,0.007188947,0.132374856,0.006129713
0.011915304,0.007184979,0.132382373,0.006120103
0.011927688,0.007181023,0.132390006,0.006110437
0.011940049,0.007177079,0.132397761,0.006100717
0.011952386,0.007173147,0.132405641,0.006090941
0.011964698,0.007169229,0.132413648,0.006081112
0.011976985,0.007165325,0.132421788,0.00607123
0.011989247,0.007161435,0.132430062,0.006061295
0.012001483,0.00715756,0.132438474,0.006051311
0.012013692,0.0071537,0.132447027,0.006041277
0.012025875,0.007149856,0.132455721,0.006031198
0.01203803,0.007146027,0.13246456,0.006021075
0.012050157,0.007142215,0.132473545,0.006010911
0.012062255,0.00713842,0.132482678,0.006000709
0.012074324,0.007134641,0.13249196,0.00599047
0.012086362,0.00713088,0.132501392,0.005980197
0.01209837,0.007127137,0.132510975,0.005969893
0.012110345,0.007123412,0.13252071,0.005959558
0.012122289,0.007119706,0.132530596,0.005949194
0.012134199,0.00711602,0.132540635,0.005938804
0.012146075,0.007112353,0.132550827,0.005928388
0.012157916,0.007108705,0.132561172,0.005917948
0.012169722,0.007105079,0.13257167,0.005907485
0.012181491,0.007101472,0.132582322,0.005897002
0.012193224,0.007097887,0.132593126,0.005886499
0.012204918,0.007094323,0.132604082,0.005875977
0.012216573,0.007090781,0.132615191,0.00586544
0.012228189,0.007087261,0.132626451,0.005854887
0.012239764,0.007083764,0.132637864,0.005844319
0.012251299,0.007080288,0.132649429,0.005833739
0.012262793,0.007076835,0.132661147,0.005823147
0.012274244,0.007073404,0.132673018,0.005812544
0.012285653,0.007069996,0.132685043,0.005801931
0.012297018,0.007066611,0.132697221,0.00579131
0.012308339,0.007063249,0.132709553,0.005780681
0.012319615,0.00705991,0.132722038,0.005770046
0.012330847,0.007056593,0.132734677,0.005759405
0.012342032,0.007053299,0.132747469,0.005748759
0.012353171,0.007050028,0.132760413,0.005738109
0.012364264,0.007046781,0.13277351,0.005727458
0.012375309,0.007043557,0.132786758,0.005716804
0.012386306,0.007040358,0.132800157,0.00570615
0.012397255,0.007037183,0.132813707,0.005695496
0.012408155,0.007034034,0.132827408,0.005684843
0.012419007,0.00703091,0.132841259,0.005674194
0.012429809,0.007027811,0.13285526,0.005663547
0.012440561,0.007024739,0.13286941,0.005652906
0.012451262,0.007021693,0.132883709,0.005642271
0.012461913,0.007018673,0.132898156,0.005631643
0.012472512,0.00701568,0.132912751,0.005621023
0.01248306,0.007012713,0.132927492,0.005610413
0.012493555,0.007009773,0.132942379,0.005599814
0.012503997,0.00700686,0.132957412,0.005589226
0.012514384,0.007003974,0.132972588,0.005578651
0.012524717,0.007001115,0.132987908,0.005568089
0.012534995,0.006998284,0.13300337,0.005557542
0.012545216,0.00699548,0.133018973,0.00554701
0.01255538,0.006992704,0.133034716,0.005536495
0.012565487,0.006989956,0.133050596,0.005525996
0.012575535,0.006987235,0.133066614,0.005515516
0.012585524,0.006984543,0.133082766,0.005505054
0.012595452,0.006981879,0.133099051,0.005494611
0.01260532,0.006979243,0.133115466,0.005484188
0.012615127,0.006976636,0.13313201,0.005473786
0.012624871,0.006974057,0.133148679,0.005463406
0.012634552,0.006971507,0.133165472,0.005453047
0.01264417,0.006968985,0.133182386,0.00544271
0.012653722,0.006966491,0.133199417,0.005432397
0.012663209,0.006964025,0.133216564,0.005422109
0.012672629,0.006961588,0.133233823,0.005411845
0.012681981,0.006959179,0.133251191,0.005401608
0.012691266,0.006956798,0.133268665,0.005391398
0.012700481,0.006954445,0.133286243,0.005381217
0.012709628,0.006952119,0.133303921,0.005371065
0.012718704,0.006949821,0.133321697,0.005360944
0.012727709,0.00694755,0.133339567,0.005350854
0.012736643,0.006945306,0.133357527,0.005340795
0.012745505,0.006943089,0.133375575,0.00533077
0.012754295,0.0069409,0.133393709,0.005320778
0.012763011,0.006938737,0.133411924,0.00531082
0.012771653,0.006936601,0.133430217,0.005300896
0.012780221,0.006934491,0.133448586,0.005291008
0.012788713,0.006932407,0.133467026,0.005281155
0.012797128,0.006930349,0.133485534,0.005271339
0.012805467,0.006928317,0.133504107,0.005261559
0.012813727,0.00692631,0.133522741,0.005251817
0.012821909,0.006924328,0.133541434,0.005242113
0.012830012,0.006922371,0.13356018,0.005232448
0.012838034,0.006920439,0.133578976,0.005222822
0.012845974,0.006918532,0.133597818,0.005213236
0.012853832,0.00691665,0.133616702,0.00520369
0.012861607,0.006914792,0.133635623,0.005194184
0.012869298,0.006912959,0.133654579,0.005184718
0.012876904,0.006911149,0.133673564,0.005175294
0.012884424,0.006909364,0.133692576,0.005165909
0.012891857,0.006907601,0.133711611,0.005156565
0.012899203,0.006905862,0.133730665,0.005147261
0.012906459,0.006904146,0.133749735,0.005137998
0.012913626,0.006902453,0.133768817,0.005128776
0.012920701,0.006900782,0.133787909,0.005119596
0.012927686,0.006899132,0.133807007,0.005110457
0.012934577,0.006897505,0.13382611,0.005101361
0.012941376,0.006895898,0.133845215,0.005092307
0.012948081,0.006894313,0.13386432,0.005083297
0.012954691,0.006892749,0.133883425,0.005074332
0.012961207,0.006891207,0.13390253,0.00506541
0.012967628,0.006889685,0.133921634,0.005056534
0.012973953,0.006888185,0.133940736,0.005047702
0.012980183,0.006886706,0.133959835,0.005038916
0.012986317,0.006885248,0.133978932,0.005030176
0.012992354,0.006883811,0.133998025,0.005021481
0.012998294,0.006882396,0.134017114,0.005012833
0.013004136,0.006881001,0.134036198,0.005004231
0.013009882,0.006879628,0.134055278,0.004995675
0.013015529,0.006878275,0.134074352,0.004987167
0.013021078,0.006876942,0.13409342,0.004978705
0.013026528,0.006875629,0.134112482,0.004970291
0.013031879,0.006874336,0.134131537,0.004961925
0.013037131,0.006873062,0.134150584,0.004953608
0.013042284,0.006871807,0.134169623,0.004945339
0.013047336,0.006870571,0.134188654,0.004937119
0.013052287,0.006869353,0.134207676,0.004928947
0.013057138,0.006868153,0.134226688,0.004920826
0.013061887,0.00686697,0.13424569,0.004912754
0.013066534,0.006865805,0.134264679,0.004904732
0.013071079,0.006864657,0.134283655,0.004896759
0.013075521,0.006863527,0.134302616,0.004888838
0.01307986,0.006862413,0.134321562,0.004880966
0.013084096,0.006861316,0.13434049,0.004873145
0.013088229,0.006860235,0.134359399,0.004865374
0.013092257,0.00685917,0.134378288,0.004857654
0.013096181,0.006858121,0.134397155,0.004849983
0.013100001,0.006857086,0.134415997,0.004842362
0.013103716,0.006856067,0.134434816,0.00483479
0.013107326,0.006855061,0.134453609,0.004827268
0.013110831,0.006854071,0.134472377,0.004819794
0.013114231,0.006853094,0.13449112,0.004812368
0.013117525,0.006852133,0.134509837,0.00480499
0.013120714,0.006851188,0.134528529,0.00479766
0.013123796,0.006850258,0.134547196,0.004790378
0.013126773,0.006849344,0.134565837,0.004783143
0.013129643,0.006848447,0.134584455,0.004775954
0.013132406,0.006847566,0.13460305,0.004768813
0.013135063,0.006846702,0.134621623,0.004761717
0.013137613,0.006845855,0.134640175,0.004754667
0.013140057,0.006845025,0.134658706,0.004747661
0.013142394,0.006844212,0.134677219,0.0047407
0.013144625,0.006843417,0.134695714,0.004733784
0.013146749,0.006842638,0.134714192,0.004726914
0.013148767,0.006841877,0.134732654,0.00472009
0.013150678,0.006841133,0.134751101,0.004713315
0.013152483,0.006840406,0.134769532,0.004706589
0.013154181,0.006839697,0.134787949,0.004699914
0.013155772,0.006839005,0.134806352,0.004693291
0.013157257,0.006838331,0.134824742,0.00468672
0.013158636,0.006837674,0.134843118,0.004680202
0.013159907,0.006837035,0.13486148,0.004673738
0.013161071,0.006836414,0.134879829,0.00466733
0.013162128,0.00683581,0.134898165,0.004660976
0.013163078,0.006835223,0.134916486,0.004654678
0.013163921,0.006834653,0.134934794,0.004648436
0.013164655,0.0068341,0.134953086,0.00464225
0.013165283,0.006833564,0.134971364,0.004636121
0.013165802,0.006833043,0.134989626,0.004630048
0.013166214,0.006832539,0.135007871,0.004624031
0.013166519,0.006832051,0.135026099,0.004618071
0.013166717,0.006831578,0.135044308,0.004612168
0.013166809,0.00683112,0.135062497,0.004606322
0.013166794,0.006830678,0.135080664,0.004600534
0.013166675,0.00683025,0.135098808,0.004594804
0.013166451,0.006829837,0.135116928,0.004589131
0.013166124,0.006829437,0.135135021,0.004583518
0.013165694,0.006829052,0.135153086,0.004577963
0.013165161,0.006828681,0.135171121,0.004572467
0.013164526,0.006828323,0.135189123,0.004567031
0.013163791,0.006827979,0.135207092,0.004561654
0.013162955,0.006827647,0.135225024,0.004556336
0.013162018,0.00682733,0.135242918,0.004551078
0.013160983,0.006827025,0.135260773,0.00454588
0.013159848,0.006826733,0.135278587,0.004540741
0.013158615,0.006826453,0.135296359,0.004535662
0.013157285,0.006826187,0.135314087,0.004530644
0.013155857,0.006825933,0.13533177,0.004525685
0.013154333,0.006825692,0.135349409,0.004520785
0.013152713,0.006825464,0.135367001,0.004515944
0.013150997,0.00682525,0.135384548,0.004511163
0.013149188,0.006825051,0.135402048,0.004506439
0.013147284,0.006824868,0.135419501,0.004501774
0.013145287,0.006824702,0.135436906,0.004497167
0.013143198,0.006824553,0.135454261,0.004492618
0.013141016,0.006824423,0.135471566,0.004488126
0.013138743,0.006824312,0.135488821,0.004483691
0.013136379,0.006824222,0.135506022,0.004479313
0.013133925,0.006824152,0.13552317,0.004474992
0.01313138,0.006824105,0.135540264,0.004470728
0.013128745,0.006824081,0.135557302,0.00446652
0.01312602,0.006824081,0.135574284,0.004462369
0.013123206,0.006824108,0.135591208,0.004458274
0.013120303,0.00682416,0.135608072,0.004454236
0.01311731,0.006824241,0.135624876,0.004450254
0.013114229,0.006824349,0.135641616,0.004446328
0.01311106,0.006824488,0.135658292,0.004442458
0.013107802,0.006824657,0.135674902,0.004438644
0.013104456,0.006824857,0.135691443,0.004434885
0.013101022,0.006825089,0.135707913,0.00443118
0.013097501,0.006825354,0.13572431,0.00442753
0.013093892,0.006825652,0.135740631,0.004423933
0.013090195,0.006825985,0.135756875,0.00442039
0.013086412,0.006826353,0.135773039,0.004416901
0.013082542,0.006826757,0.135789121,0.004413465
0.013078584,0.006827196,0.135805118,0.004410083
0.01307454,0.006827672,0.135821027,0.004406755
0.013070409,0.006828184,0.135836846,0.004403481
0.013066191,0.006828734,0.135852572,0.004400261
0.013061887,0.006829322,0.135868202,0.004397094
0.013057496,0.006829949,0.135883733,0.00439398
0.013053019,0.006830614,0.135899163,0.004390921
0.013048456,0.006831319,0.135914488,0.004387914
0.013043807,0.006832064,0.135929707,0.00438496
0.013039072,0.006832849,0.135944815,0.004382058
0.013034252,0.006833674,0.13595981,0.004379208
0.013029347,0.006834539,0.135974689,0.004376409
0.013024358,0.006835446,0.135989447,0.004373661
0.013019285,0.006836394,0.136004083,0.004370964
0.013014129,0.006837383,0.136018592,0.004368317
0.013008891,0.006838415,0.13603297,0.00436572
0.013003571,0.00683949,0.136047215,0.004363174
0.012998171,0.006840609,0.136061323,0.004360677
0.012992692,0.006841771,0.13607529,0.004358231
0.012987133,0.006842979,0.136089112,0.004355835
0.012981496,0.006844231,0.136102786,0.00435349
0.012975783,0.00684553,0.136116306,0.004351195
0.012969993,0.006846874,0.13612967,0.004348953
0.012964128,0.006848266,0.136142874,0.004346765
0.012958189,0.006849704,0.136155913,0.004344632
0.012952177,0.00685119,0.136168784,0.004342556
0.012946092,0.006852724,0.136181483,0.004340538
0.012939937,0.006854307,0.136194006,0.00433858
0.01293371,0.00685594,0.136206349,0.004336683
0.012927415,0.006857623,0.136218508,0.004334847
0.012921051,0.006859358,0.136230479,0.004333074
0.012914619,0.006861143,0.136242257,0.004331365
0.01290812,0.006862982,0.136253841,0.00432972
0.012901555,0.006864873,0.136265227,0.00432814
0.012894925,0.006866817,0.136276412,0.004326624
0.012888231,0.006868815,0.136287393,0.004325174
0.012881473,0.006870867,0.13629817,0.004323789
0.012874653,0.006872974,0.136308741,0.004322471
0.012867771,0.006875137,0.136319104,0.00432122
0.012860828,0.006877356,0.136329258,0.004320036
0.012853826,0.006879631,0.136339201,0.00431892
0.012846765,0.006881962,0.136348933,0.004317872
0.012839645,0.006884352,0.136358452,0.004316892
0.012832467,0.006886799,0.136367756,0.004315981
0.012825233,0.006889304,0.136376846,0.004315138
0.012817942,0.006891868,0.13638572,0.004314364
0.012810596,0.006894492,0.136394376,0.004313658
0.012803194,0.006897175,0.136402815,0.004313021
0.012795738,0.006899919,0.136411033,0.004312452
0.012788228,0.006902726,0.13641903,0.004311952
0.012780665,0.006905594,0.136426805,0.00431152
0.012773049,0.006908526,0.136434355,0.004311155
0.01276538,0.006911522,0.13644168,0.004310859
0.01275766,0.006914583,0.136448779,0.004310631
0.012749887,0.006917709,0.136455649,0.004310469
0.012742064,0.006920902,0.136462292,0.004310375
0.01273419,0.00692416,0.136468705,0.004310348
0.012726265,0.006927486,0.136474888,0.004310388
0.012718291,0.006930878,0.136480841,0.004310495
0.012710267,0.006934339,0.136486563,0.004310668
0.012702194,0.006937867,0.136492054,0.004310908
0.012694073,0.006941463,0.136497314,0.004311214
0.012685905,0.006945128,0.136502341,0.004311586
0.012677691,0.00694886,0.136507135,0.004312023
0.012669432,0.006952661,0.136511694,0.004312526
0.012661129,0.006956531,0.136516019,0.004313093
0.012652783,0.006960469,0.136520108,0.004313723
0.012644395,0.006964475,0.13652396,0.004314418
0.012635966,0.00696855,0.136527574,0.004315175
0.012627497,0.006972693,0.136530949,0.004315995
0.012618989,0.006976906,0.136534085,0.004316877
0.012610442,0.006981187,0.136536981,0.00431782
0.012601859,0.006985538,0.136539634,0.004318825
0.01259324,0.006989957,0.136542045,0.004319891
0.012584585,0.006994446,0.136544212,0.004321018
0.012575896,0.006999004,0.136546133,0.004322206
0.012567174,0.007003631,0.136547808,0.004323455
0.012558421,0.007008327,0.136549235,0.004324764
0.012549637,0.007013092,0.136550413,0.004326134
0.012540824,0.007017925,0.136551341,0.004327563
0.012531983,0.007022828,0.136552016,0.004329053
0.012523116,0.007027798,0.136552439,0.004330602
0.012514224,0.007032837,0.136552609,0.00433221
0.012505308,0.007037945,0.136552525,0.004333878
0.01249637,0.00704312,0.136552188,0.004335604
0.012487412,0.007048364,0.136551597,0.004337388
0.012478434,0.007053675,0.136550753,0.004339229
0.012469438,0.007059053,0.136549657,0.004341127
0.012460426,0.007064499,0.136548309,0.00434308
0.012451398,0.007070012,0.136546711,0.004345089
0.012442356,0.007075591,0.136544865,0.004347152
0.012433302,0.007081237,0.13654277,0.004349269
0.012424235,0.007086948,0.136540429,0.004351438
0.012415158,0.007092725,0.136537844,0.00435366
0.012406072,0.007098567,0.136535015,0.004355933
0.012396978,0.007104474,0.136531946,0.004358256
0.012387876,0.007110445,0.136528638,0.00436063
0.012378769,0.00711648,0.136525092,0.004363053
0.012369657,0.007122578,0.136521311,0.004365525
0.012360541,0.007128739,0.136517296,0.004368045
0.012351423,0.007134962,0.136513049,0.004370613
0.012342303,0.007141247,0.136508572,0.004373227
0.012333182,0.007147593,0.136503864,0.004375888
0.012324061,0.007153999,0.136498929,0.004378594
0.012314942,0.007160465,0.136493767,0.004381345
0.012305825,0.007166991,0.136488378,0.00438414
0.012296711,0.007173576,0.136482765,0.004386978
0.012287601,0.00718022,0.136476928,0.004389859
0.012278496,0.007186923,0.136470867,0.004392781
0.012269397,0.007193684,0.136464584,0.004395744
0.012260304,0.007200504,0.136458079,0.004398748
0.012251219,0.007207382,0.136451352,0.004401792
0.012242142,0.007214317,0.136444404,0.004404875
0.012233075,0.007221309,0.136437236,0.004407997
0.012224017,0.007228359,0.136429847,0.004411157
0.012214971,0.007235465,0.13642224,0.004414355
0.012205937,0.007242626,0.136414414,0.00441759
0.012196914,0.007249843,0.136406371,0.004420862
0.012187905,0.007257114,0.136398111,0.004424169
0.012178909,0.00726444,0.136389636,0.004427511
0.012169927,0.007271819,0.136380947,0.004430888
0.01216096,0.007279252,0.136372045,0.004434298
0.012152009,0.00728674,0.136362932,0.00443774
0.012143075,0.007294283,0.136353609,0.004441213
0.012134158,0.007301882,0.136344079,0.004444717
0.012125258,0.007309537,0.136334342,0.00444825
0.012116377,0.007317249,0.136324402,0.004451813
0.012107515,0.007325018,0.136314259,0.004455404
0.012098673,0.007332843,0.136303917,0.004459023
0.012089851,0.007340726,0.136293376,0.004462669
0.012081051,0.007348665,0.136282639,0.00446634
0.012072272,0.007356662,0.13627171,0.004470038
0.012063516,0.007364716,0.136260589,0.00447376
0.012054784,0.007372826,0.136249281,0.004477508
0.012046075,0.007380992,0.136237786,0.004481282
0.012037392,0.007389215,0.136226107,0.004485084
0.012028735,0.007397493,0.136214248,0.004488915
0.012020105,0.007405826,0.136202212,0.004492775
0.012011503,0.007414214,0.136190001,0.004496665
0.01200293,0.007422656,0.136177619,0.004500587
0.011994387,0.007431151,0.136165069,0.00450454
0.011985876,0.0074397,0.136152355,0.004508525
0.011977397,0.007448302,0.136139481,0.004512543
0.011968951,0.007456955,0.136126449,0.004516595
0.011960541,0.007465661,0.136113262,0.004520679
0.011952166,0.007474417,0.136099924,0.004524797
0.011943828,0.007483224,0.136086438,0.004528948
0.011935528,0.007492082,0.136072808,0.004533132
0.011927268,0.00750099,0.136059035,0.00453735
0.011919048,0.007509946,0.136045123,0.0045416
0.011910869,0.007518952,0.136031074,0.004545883
0.011902733,0.007528006,0.136016891,0.004550199
0.01189464,0.007537107,0.136002575,0.004554546
0.011886592,0.007546255,0.135988129,0.004558925
0.011878588,0.007555449,0.135973555,0.004563336
0.01187063,0.00756469,0.135958855,0.004567778
0.011862719,0.007573976,0.13594403,0.00457225
0.011854855,0.007583306,0.135929082,0.004576752
0.011847039,0.007592682,0.135914014,0.004581284
0.011839273,0.007602102,0.135898827,0.004585846
0.011831557,0.007611565,0.135883524,0.004590438
0.011823892,0.00762107,0.135868105,0.00459506
0.011816279,0.007630619,0.135852574,0.004599711
0.011808719,0.007640208,0.135836931,0.004604392
0.011801214,0.007649839,0.135821177,0.004609103
0.011793763,0.00765951,0.135805315,0.004613844
0.011786368,0.007669221,0.135789343,0.004618615
0.01177903,0.007678971,0.135773265,0.004623415
0.011771749,0.00768876,0.135757079,0.004628246
0.011764526,0.007698587,0.135740787,0.004633107
0.011757361,0.007708451,0.135724389,0.004637997
0.011750255,0.007718352,0.135707887,0.004642917
0.011743209,0.007728289,0.135691279,0.004647866
0.011736222,0.007738262,0.135674567,0.004652845
0.011729296,0.007748271,0.135657751,0.004657852
0.011722431,0.007758314,0.13564083,0.004662888
0.011715627,0.007768392,0.135623806,0.004667952
0.011708884,0.007778504,0.13560668,0.004673045
0.011702203,0.007788648,0.135589452,0.004678167
0.011695584,0.007798826,0.135572124,0.004683316
0.011689027,0.007809035,0.135554698,0.004688493
0.011682532,0.007819277,0.135537177,0.004693697
0.0116761,0.007829549,0.135519563,0.004698927
0.011669731,0.007839852,0.135501859,0.004704183
0.011663425,0.007850185,0.135484069,0.004709465
0.011657183,0.007860548,0.135466198,0.004714771
0.011651005,0.007870941,0.135448248,0.0047201
0.011644893,0.007881362,0.135430224,0.004725454
0.011638845,0.007891811,0.135412128,0.004730831
0.011632863,0.007902288,0.135393963,0.00473623
0.011626947,0.007912792,0.135375734,0.004741653
0.011621098,0.007923323,0.135357444,0.004747099
0.011615316,0.00793388,0.135339097,0.004752569
0.011609602,0.007944464,0.135320696,0.004758062
0.011603956,0.007955073,0.135302247,0.004763578
0.011598379,0.007965708,0.135283752,0.004769117
0.011592871,0.007976368,0.135265217,0.00477468
0.011587433,0.007987053,0.135246646,0.004780266
0.011582064,0.007997763,0.135228043,0.004785875
0.011576766,0.008008498,0.135209411,0.004791507
0.011571538,0.008019257,0.135190755,0.00479716
0.01156638,0.008030039,0.13517208,0.004802836
0.011561294,0.008040844,0.135153389,0.004808532
0.011556278,0.008051671,0.135134687,0.004814249
0.011551334,0.00806252,0.135115977,0.004819987
0.01154646,0.00807339,0.135097264,0.004825744
0.011541658,0.00808428,0.135078552,0.004831521
0.011536927,0.008095191,0.135059845,0.004837316
0.011532269,0.008106122,0.135041149,0.00484313
0.011527682,0.008117071,0.135022468,0.004848962
0.011523168,0.00812804,0.135003806,0.004854812
0.011518726,0.008139028,0.134985168,0.004860679
0.011514358,0.008150033,0.134966559,0.004866564
0.011510063,0.008161057,0.134947984,0.004872465
0.011505841,0.008172097,0.134929446,0.004878383
0.011501693,0.008183153,0.134910952,0.004884319
0.01149762,0.008194226,0.134892505,0.00489027
0.01149362,0.008205313,0.134874111,0.004896238
0.011489695,0.008216415,0.134855774,0.004902222
0.011485844,0.00822753,0.134837498,0.004908221
0.011482067,0.008238658,0.134819288,0.004914236
0.011478366,0.008249798,0.134801148,0.004920266
0.011474739,0.00826095,0.134783082,0.004926311
0.011471187,0.008272113,0.134765095,0.00493237
0.01146771,0.008283285,0.13474719,0.004938444
0.011464309,0.008294466,0.134729371,0.004944532
0.011460983,0.008305655,0.134711643,0.004950635
0.011457733,0.008316851,0.134694008,0.00495675
0.011454559,0.008328053,0.13467647,0.00496288
0.011451461,0.008339261,0.134659033,0.004969022
0.011448439,0.008350474,0.134641699,0.004975176
0.011445492,0.008361691,0.13462447,0.004981343
0.011442622,0.008372912,0.13460735,0.004987522
0.011439827,0.008384135,0.13459034,0.004993714
0.011437108,0.008395361,0.134573444,0.00499992
0.011434465,0.008406588,0.134556663,0.005006141
0.011431898,0.008417816,0.134539998,0.005012379
0.011429406,0.008429044,0.134523453,0.005018635
0.011426989,0.008440271,0.134507028,0.005024913
0.011424648,0.008451496,0.134490724,0.005031212
0.011422382,0.00846272,0.134474544,0.005037535
0.011420191,0.008473941,0.134458489,0.005043882
0.011418075,0.008485158,0.134442561,0.005050255
0.011416033,0.008496371,0.134426759,0.005056655
0.011414066,0.00850758,0.134411087,0.005063083
0.011412174,0.008518782,0.134395544,0.005069539
0.011410356,0.008529979,0.134380131,0.005076025
0.011408611,0.008541169,0.134364851,0.00508254
0.011406941,0.008552351,0.134349703,0.005089086
0.011405343,0.008563525,0.134334689,0.005095663
0.011403818,0.00857469,0.134319809,0.00510227
0.011402366,0.008585845,0.134305063,0.005108909
0.011400985,0.00859699,0.134290452,0.005115578
0.011399676,0.008608124,0.134275975,0.005122279
0.011398439,0.008619246,0.134261632,0.005129012
0.011397272,0.008630355,0.134247424,0.005135776
0.011396176,0.008641452,0.134233351,0.005142571
0.01139515,0.008652534,0.134219412,0.005149398
0.011394195,0.008663602,0.134205608,0.005156258
0.011393312,0.008674654,0.13419194,0.005163151
0.0113925,0.008685689,0.134178407,0.005170077
0.01139176,0.008696707,0.134165012,0.005177037
0.011391092,0.008707706,0.134151756,0.005184032
0.011390498,0.008718686,0.134138642,0.005191062
0.011389978,0.008729646,0.134125672,0.005198127
0.011389532,0.008740586,0.13411285,0.005205227
0.01138916,0.008751505,0.134100179,0.005212364
0.011388863,0.008762402,0.134087662,0.005219535
0.011388641,0.008773278,0.134075303,0.005226743
0.011388494,0.008784131,0.134063104,0.005233985
0.011388423,0.00879496,0.134051068,0.005241262
0.011388428,0.008805766,0.1340392,0.005248573
0.011388508,0.008816546,0.134027503,0.005255918
0.011388665,0.008827301,0.134015981,0.005263296
0.011388898,0.008838029,0.134004637,0.005270706
0.011389208,0.00884873,0.133993474,0.00527815
0.011389594,0.008859403,0.133982498,0.005285625
0.011390058,0.008870047,0.133971711,0.005293133
0.0113906,0.008880661,0.133961119,0.005300673
0.011391219,0.008891244,0.133950725,0.005308245
0.011391916,0.008901796,0.133940535,0.005315849
0.011392691,0.008912314,0.133930551,0.005323486
0.011393544,0.008922799,0.133920781,0.005331156
0.011394476,0.008933249,0.133911227,0.005338859
0.011395486,0.008943664,0.133901895,0.005346595
0.011396577,0.008954042,0.133892791,0.005354365
0.011397747,0.008964383,0.133883919,0.005362169
0.011398998,0.008974686,0.133875284,0.005370007
0.011400329,0.00898495,0.133866891,0.005377879
0.011401741,0.008995176,0.133858745,0.005385784
0.011403235,0.009005362,0.133850851,0.005393723
0.01140481,0.009015509,0.133843215,0.005401695
0.011406468,0.009025616,0.133835839,0.005409702
0.011408209,0.009035683,0.133828729,0.005417741
0.011410032,0.00904571,0.133821888,0.005425813
0.011411939,0.009055696,0.133815322,0.005433918
0.01141393,0.009065642,0.133809032,0.005442056
0.011416004,0.009075546,0.133803024,0.005450225
0.011418161,0.00908541,0.133797299,0.005458426
0.011420403,0.009095232,0.133791862,0.00546666
0.011422729,0.009105012,0.133786716,0.005474924
0.011425138,0.00911475,0.133781863,0.005483219
0.011427631,0.009124445,0.133777308,0.005491545
0.011430208,0.009134097,0.133773054,0.005499901
0.011432868,0.009143706,0.133769104,0.005508287
0.011435612,0.00915327,0.133765462,0.005516701
0.011438439,0.009162791,0.133762133,0.005525144
0.011441349,0.009172267,0.133759123,0.005533615
0.011444343,0.009181697,0.133756437,0.005542112
0.011447419,0.009191082,0.13375408,0.005550636
0.011450579,0.009200421,0.133752057,0.005559185
0.011453821,0.009209713,0.133750376,0.005567759
0.011457145,0.009218958,0.133749042,0.005576357
0.011460551,0.009228154,0.133748061,0.005584977
0.01146404,0.009237303,0.13374744,0.00559362
0.01146761,0.009246402,0.133747186,0.005602284
0.011471263,0.009255452,0.133747305,0.005610968
0.011474998,0.009264451,0.133747805,0.005619672
0.011478816,0.0092734,0.133748692,0.005628395
0.011482717,0.009282297,0.133749973,0.005637135
0.011486701,0.009291143,0.133751655,0.005645892
0.01149077,0.009299935,0.133753745,0.005654665
0.011494923,0.009308676,0.133756249,0.005663453
0.01149916,0.009317362,0.133759173,0.005672255
0.011503482,0.009325995,0.133762526,0.005681071
0.01150789,0.009334574,0.133766313,0.005689899
0.011512382,0.009343098,0.133770542,0.005698739
0.01151696,0.009351566,0.133775219,0.005707589
0.011521623,0.009359979,0.133780351,0.005716449
0.011526373,0.009368335,0.133785945,0.005725317
0.011531208,0.009376634,0.133792008,0.005734192
0.01153613,0.009384875,0.133798547,0.005743074
0.011541138,0.009393059,0.13380557,0.005751961
0.011546235,0.009401183,0.133813083,0.005760853
0.011551419,0.009409248,0.133821095,0.005769749
0.011556691,0.009417253,0.13382961,0.005778649
0.011562052,0.009425197,0.133838637,0.005787551
0.011567503,0.00943308,0.133848182,0.005796454
0.011573043,0.009440902,0.13385825,0.005805359
0.011578673,0.00944866,0.133868849,0.005814263
0.011584394,0.009456356,0.133879983,0.005823166
0.011590206,0.009463987,0.13389166,0.005832067
0.011596108,0.009471553,0.133903885,0.005840964
0.011602102,0.009479054,0.133916667,0.005849856
0.011608189,0.009486489,0.133930013,0.005858743
0.011614367,0.009493857,0.133943929,0.005867624
0.011620639,0.009501158,0.133958425,0.005876498
0.011627004,0.009508391,0.133973509,0.005885366
0.011633462,0.009515555,0.133989188,0.005894226
0.011640015,0.00952265,0.134005471,0.005903079
0.011646662,0.009529676,0.134022365,0.005911925
0.011653404,0.009536631,0.134039879,0.005920762
0.01166024,0.009543514,0.134058019,0.005929591
0.011667171,0.009550326,0.134076792,0.005938411
0.011674197,0.009557065,0.134096207,0.005947222
0.011681317,0.00956373,0.134116269,0.005956023
0.011688533,0.009570321,0.134136985,0.005964816
0.011695844,0.009576837,0.13415836,0.005973601
0.011703249,0.009583277,0.134180402,0.005982378
0.011710749,0.009589641,0.134203115,0.005991149
0.011718344,0.009595928,0.134226504,0.005999917
0.011726033,0.009602138,0.134250575,0.006008682
0.011733816,0.00960827,0.134275331,0.006017447
0.011741694,0.009614323,0.134300777,0.006026214
0.011749666,0.009620299,0.134326918,0.006034983
0.011757731,0.009626196,0.134353757,0.006043755
0.011765891,0.009632015,0.134381298,0.006052533
0.011774145,0.009637754,0.134409544,0.006061317
0.011782493,0.009643414,0.134438499,0.006070108
0.011790936,0.009648993,0.134468165,0.006078907
0.011799474,0.009654492,0.134498547,0.006087715
0.011808108,0.00965991,0.134529648,0.006096533
0.011816839,0.009665246,0.13456147,0.006105362
0.011825667,0.0096705,0.134594018,0.006114203
0.011834592,0.009675672,0.134627295,0.006123057
0.011843616,0.009680762,0.134661305,0.006131925
0.011852738,0.009685769,0.134696049,0.006140809
0.011861958,0.009690693,0.134731532,0.006149708
0.011871278,0.009695534,0.134767757,0.006158625
0.011880698,0.009700292,0.134804725,0.006167559
0.011890217,0.009704967,0.134842442,0.006176511
0.011899836,0.009709558,0.13488091,0.006185483
0.011909555,0.009714064,0.134920131,0.006194475
0.011919374,0.009718487,0.134960108,0.006203487
0.011929293,0.009722824,0.135000845,0.006212521
0.011939312,0.009727077,0.135042343,0.006221576
0.011949431,0.009731244,0.135084604,0.006230654
0.011959649,0.009735326,0.135127632,0.006239754
0.011969966,0.009739322,0.135171427,0.006248878
0.011980382,0.009743232,0.135215993,0.006258024
0.011990897,0.009747054,0.13526133,0.006267195
0.012001511,0.00975079,0.13530744,0.006276389
0.012012224,0.009754437,0.135354323,0.006285607
0.012023035,0.009757997,0.13540198,0.00629485
0.012033944,0.00976147,0.135450411,0.006304118
0.012044951,0.009764854,0.135499617,0.00631341
0.012056055,0.00976815,0.135549598,0.006322728
0.012067257,0.009771358,0.135600356,0.006332071
0.012078555,0.009774479,0.135651891,0.006341439
0.012089949,0.009777511,0.135704205,0.006350832
0.01210144,0.009780455,0.135757297,0.00636025
0.012113027,0.009783311,0.135811169,0.006369692
0.012124709,0.009786078,0.135865821,0.006379158
0.012136485,0.009788757,0.135921253,0.006388647
0.012148356,0.009791348,0.135977467,0.006398159
0.012160321,0.009793849,0.136034461,0.006407693
0.012172378,0.009796261,0.136092235,0.006417249
0.012184528,0.009798584,0.136150789,0.006426827
0.012196769,0.009800818,0.136210121,0.006436425
0.012209102,0.009802962,0.13627023,0.006446044
0.012221525,0.009805016,0.136331115,0.006455683
0.012234037,0.00980698,0.136392774,0.006465342
0.012246639,0.009808853,0.136455205,0.006475019
0.012259329,0.009810635,0.136518405,0.006484716
0.012272107,0.009812327,0.136582373,0.00649443
0.012284972,0.009813927,0.136647105,0.006504162
0.012297923,0.009815435,0.136712599,0.006513911
0.012310959,0.009816852,0.136778853,0.006523677
0.01232408,0.009818177,0.136845862,0.00653346
0.012337285,0.00981941,0.136913623,0.006543258
0.012350572,0.00982055,0.136982133,0.006553073
0.012363941,0.009821597,0.137051388,0.006562902
0.012377391,0.009822552,0.137121385,0.006572746
0.012390921,0.009823413,0.137192118,0.006582604
0.012404529,0.009824182,0.137263585,0.006592474
0.012418214,0.009824857,0.137335779,0.006602355
0.012431975,0.009825439,0.137408697,0.006612247
0.012445811,0.009825927,0.137482335,0.00662215
0.01245972,0.00982632,0.137556687,0.006632061
0.012473701,0.00982662,0.13763175,0.00664198
0.012487753,0.009826824,0.137707518,0.006651908
0.012501874,0.009826934,0.137783989,0.006661842
0.012516064,0.009826948,0.137861157,0.006671782
0.012530322,0.009826867,0.137939017,0.006681728
0.012544647,0.009826689,0.138017565,0.00669168
0.012559037,0.009826416,0.138096794,0.006701637
0.012573492,0.009826045,0.138176701,0.006711599
0.012588011,0.009825578,0.138257279,0.006721564
0.012602592,0.009825014,0.138338522,0.006731533
0.012617235,0.009824352,0.138420426,0.006741504
0.012631938,0.009823593,0.138502986,0.006751477
0.012646701,0.009822737,0.138586197,0.006761453
0.012661523,0.009821784,0.138670057,0.00677143
0.012676402,0.009820734,0.138754564,0.006781408
0.012691339,0.009819587,0.138839715,0.006791388
0.012706333,0.009818343,0.138925509,0.006801367
0.012721384,0.009817002,0.139011948,0.006811347
0.012736491,0.009815564,0.139099031,0.006821325
0.012751654,0.009814029,0.139186761,0.006831301
0.012766874,0.009812397,0.139275139,0.006841275
0.012782149,0.009810669,0.139364167,0.006851245
0.01279748,0.009808843,0.139453846,0.006861211
0.012812866,0.00980692,0.139544178,0.006871173
0.012828307,0.009804901,0.139635165,0.006881132
0.012843802,0.009802786,0.139726808,0.006891089
0.012859351,0.009800575,0.139819112,0.006901045
0.012874954,0.009798268,0.139912079,0.006911
0.01289061,0.009795865,0.14000571,0.006920956
0.012906318,0.009793367,0.14010001,0.006930914
0.012922078,0.009790775,0.14019498,0.006940874
0.01293789,0.009788087,0.140290622,0.006950835
0.012953752,0.009785306,0.140386938,0.006960799
0.012969665,0.009782429,0.14048393,0.006970764
0.012985628,0.009779458,0.140581599,0.006980731
0.013001641,0.009776393,0.140679947,0.0069907
0.013017702,0.009773233,0.140778977,0.00700067
0.013033812,0.009769979,0.140878688,0.007010641
0.013049969,0.009766632,0.140979082,0.007020613
0.013066174,0.009763192,0.141080161,0.007030587
0.013082424,0.00975966,0.141181923,0.007040561
0.01309872,0.009756037,0.141284371,0.007050536
0.013115061,0.009752323,0.141387504,0.007060512
0.013131446,0.00974852,0.141491322,0.007070488
0.013147874,0.009744628,0.141595825,0.007080465
0.013164344,0.009740648,0.141701012,0.007090441
0.013180856,0.00973658,0.141806882,0.007100418
0.013197408,0.009732426,0.141913434,0.007110394
0.013214,0.009728186,0.142020666,0.007120369
0.013230631,0.00972386,0.142128576,0.007130343
0.0132473,0.009719448,0.142237162,0.007140316
0.013264006,0.009714953,0.142346423,0.007150286
0.013280748,0.009710372,0.142456355,0.007160253
0.013297525,0.009705708,0.142566955,0.007170218
0.013314336,0.009700961,0.142678222,0.007180179
0.01333118,0.009696131,0.142790152,0.007190135
0.013348057,0.009691218,0.142902741,0.007200087
0.013364965,0.009686224,0.143015986,0.007210033
0.013381904,0.009681148,0.143129884,0.007219974
0.013398873,0.009675992,0.143244431,0.00722991
0.013415871,0.009670754,0.143359622,0.007239838
0.013432896,0.009665437,0.143475454,0.00724976
0.013449949,0.009660039,0.143591922,0.007259676
0.013467027,0.009654561,0.143709023,0.007269583
0.01348413,0.009649004,0.143826751,0.007279483
0.013501257,0.009643368,0.143945103,0.007289375
0.013518406,0.009637653,0.144064073,0.007299259
0.013535576,0.009631859,0.144183658,0.007309134
0.013552765,0.009625987,0.144303854,0.007319
0.013569974,0.009620036,0.144424658,0.007328858
0.013587199,0.009614008,0.144546065,0.007338705
0.013604442,0.009607902,0.144668073,0.007348541
0.0136217,0.009601718,0.144790677,0.007358367
0.013638974,0.009595457,0.144913873,0.007368181
0.013656261,0.009589118,0.145037658,0.007377982
0.013673563,0.009582702,0.145162026,0.007387771
0.013690878,0.009576209,0.145286975,0.007397546
0.013708205,0.009569639,0.145412498,0.007407308
0.013725543,0.009562994,0.145538593,0.007417054
0.013742892,0.009556272,0.145665252,0.007426784
0.013760251,0.009549475,0.145792473,0.007436497
0.013777619,0.009542603,0.14592025,0.007446192
0.013794994,0.009535656,0.146048578,0.007455869
0.013812377,0.009528636,0.146177452,0.007465527
0.013829766,0.009521541,0.146306868,0.007475164
0.013847159,0.009514374,0.146436819,0.007484782
0.013864557,0.009507134,0.146567302,0.007494378
0.013881957,0.009499822,0.14669831,0.007503953
0.013899359,0.009492439,0.146829839,0.007513507
0.013916762,0.009484985,0.146961883,0.007523039
0.013934165,0.00947746,0.147094437,0.007532548
0.013951567,0.009469866,0.147227496,0.007542034
0.013968967,0.009462203,0.147361056,0.007551497
0.013986365,0.00945447,0.14749511,0.007560935
0.014003758,0.00944667,0.147629653,0.007570349
0.014021147,0.009438801,0.147764679,0.007579738
0.01403853,0.009430866,0.147900183,0.007589101
0.014055905,0.009422866,0.148036158,0.007598439
0.014073273,0.0094148,0.148172599,0.007607749
0.014090631,0.00940667,0.148309499,0.007617032
0.014107979,0.009398478,0.148446851,0.007626287
0.014125316,0.009390223,0.148584649,0.007635513
0.01414264,0.009381908,0.148722887,0.007644709
0.01415995,0.009373533,0.148861557,0.007653875
0.014177246,0.009365099,0.149000653,0.007663009
0.014194526,0.009356607,0.149140168,0.007672112
0.014211789,0.009348057,0.149280097,0.007681182
0.014229034,0.00933945,0.149420433,0.007690219
0.014246261,0.009330787,0.149561171,0.007699221
0.014263467,0.009322069,0.149702305,0.007708188
0.014280652,0.009313296,0.149843832,0.007717119
0.014297815,0.009304469,0.149985747,0.007726012
0.014314954,0.009295589,0.150128045,0.007734868
0.014332069,0.009286656,0.150270724,0.007743684
0.014349158,0.00927767,0.15041378,0.00775246
0.014366221,0.009268633,0.150557206,0.007761195
0.014383257,0.009259544,0.150701,0.007769888
0.014400264,0.009250406,0.150845157,0.007778537
0.014417241,0.009241217,0.15098967,0.007787141
0.014434188,0.009231979,0.151134536,0.0077957
0.014451104,0.009222692,0.151279749,0.007804213
0.014467987,0.009213357,0.151425304,0.007812682
0.014484837,0.009203975,0.151571196,0.007821106
0.014501653,0.009194546,0.15171742,0.007829485
0.014518434,0.009185071,0.151863971,0.00783782
0.01453518,0.009175551,0.152010845,0.007846112
0.014551889,0.009165987,0.152158036,0.007854359
0.014568561,0.009156379,0.152305538,0.007862563
0.014585194,0.009146729,0.152453348,0.007870724
0.014601789,0.009137038,0.152601458,0.00787884
0.014618343,0.009127306,0.152749863,0.007886913
0.014634857,0.009117534,0.152898558,0.007894942
0.01465133,0.009107723,0.153047535,0.007902927
0.014667761,0.009097874,0.153196788,0.007910868
0.014684148,0.009087987,0.153346313,0.007918763
0.014700492,0.009078064,0.153496102,0.007926613
0.014716791,0.009068105,0.15364615,0.007934416
0.014733044,0.00905811,0.153796452,0.007942172
0.014749252,0.00904808,0.153947001,0.007949881
0.014765414,0.009038016,0.154097792,0.00795754
0.014781528,0.009027918,0.15424882,0.00796515
0.014797595,0.009017788,0.154400079,0.00797271
0.014813613,0.009007626,0.154551564,0.007980219
0.014829584,0.008997433,0.15470327,0.007987676
0.014845507,0.008987209,0.154855189,0.007995082
0.014861381,0.008976955,0.155007318,0.008002435
0.014877208,0.008966672,0.15515965,0.008009734
0.014892987,0.008956359,0.155312181,0.008016981
0.014908719,0.008946017,0.155464905,0.008024172
0.014924403,0.008935647,0.155617816,0.00803131
0.014940039,0.008925249,0.155770909,0.008038391
0.014955629,0.008914823,0.155924178,0.008045417
0.014971171,0.00890437,0.156077617,0.008052386
0.014986665,0.008893889,0.156231221,0.008059298
0.015002113,0.008883382,0.156384984,0.008066153
0.015017514,0.008872849,0.1565389,0.00807295
0.015032868,0.00886229,0.156692966,0.008079688
0.015048175,0.008851705,0.156847175,0.008086368
0.015063434,0.008841095,0.157001522,0.008092987
0.015078646,0.008830459,0.157156002,0.008099546
0.01509381,0.008819798,0.157310609,0.008106043
0.015108926,0.008809111,0.157465338,0.008112477
0.015123994,0.0087984,0.157620184,0.008118848
0.015139014,0.008787665,0.15777514,0.008125155
0.015153986,0.008776906,0.157930201,0.008131397
0.015168909,0.008766123,0.15808536,0.008137575
0.015183784,0.008755317,0.158240613,0.008143687
0.01519861,0.008744488,0.158395952,0.008149734
0.015213386,0.008733637,0.158551372,0.008155715
0.015228113,0.008722764,0.158706865,0.00816163
0.01524279,0.008711869,0.158862425,0.008167478
0.015257416,0.008700952,0.159018046,0.008173259
0.015271991,0.008690014,0.159173721,0.008178973
0.015286516,0.008679055,0.159329443,0.008184618
0.015300989,0.008668075,0.159485205,0.008190196
0.01531541,0.008657075,0.159641002,0.008195704
0.015329779,0.008646055,0.159796826,0.008201144
0.015344096,0.008635014,0.15995267,0.008206513
0.015358361,0.008623953,0.160108529,0.008211813
0.015372574,0.008612872,0.160264394,0.008217041
0.015386735,0.008601771,0.16042026,0.008222198
0.015400844,0.00859065,0.16057612,0.008227283
0.015414902,0.00857951,0.160731966,0.008232296
0.015428908,0.00856835,0.160887792,0.008237236
0.015442864,0.008557171,0.161043591,0.008242102
0.01545677,0.008545972,0.161199356,0.008246896
0.015470626,0.008534754,0.161355078,0.008251616
0.015484431,0.008523516,0.161510751,0.008256262
0.015498187,0.008512259,0.161666365,0.008260834
0.015511893,0.008500982,0.161821915,0.008265332
0.015525549,0.008489687,0.16197739,0.008269755
0.015539156,0.008478371,0.162132783,0.008274102
0.015552712,0.008467036,0.162288085,0.008278374
0.015566219,0.008455682,0.162443288,0.00828257
0.015579677,0.008444308,0.162598383,0.008286688
0.015593084,0.008432915,0.162753361,0.00829073
0.015606442,0.008421502,0.162908214,0.008294694
0.01561975,0.008410069,0.163062934,0.008298581
0.015633008,0.008398617,0.163217513,0.008302389
0.015646216,0.008387146,0.163371943,0.00830612
0.015659374,0.008375655,0.163526219,0.008309772
0.015672483,0.008364144,0.163680333,0.008313344
0.015685542,0.008352613,0.16383428,0.008316838
0.015698551,0.008341062,0.163988056,0.008320253
0.015711512,0.008329491,0.164141657,0.008323588
0.015724424,0.0083179,0.16429508,0.008326844
0.015737289,0.008306288,0.164448321,0.00833002
0.015750105,0.008294655,0.164601376,0.008333117
0.015762873,0.008283001,0.164754243,0.008336134
0.015775594,0.008271326,0.164906917,0.00833907
0.015788267,0.00825963,0.165059396,0.008341926
0.015800893,0.008247912,0.165211676,0.008344702
0.015813473,0.008236173,0.165363754,0.008347396
0.015826005,0.008224411,0.165515626,0.008350008
0.01583849,0.008212627,0.165667289,0.008352539
0.01585093,0.008200819,0.165818739,0.008354989
0.015863322,0.008188989,0.165969972,0.008357357
0.015875669,0.008177135,0.166120986,0.008359646
0.01588797,0.008165258,0.166271777,0.008361856
0.015900226,0.008153358,0.166422341,0.00836399
0.015912436,0.008141435,0.166572674,0.00836605
0.015924602,0.008129489,0.166722773,0.008368036
0.015936723,0.00811752,0.166872634,0.00836995
0.015948799,0.008105528,0.167022253,0.008371794
0.015960832,0.008093514,0.167171628,0.008373569
0.01597282,0.008081477,0.167320753,0.008375276
0.015984765,0.008069418,0.167469627,0.008376915
0.015996666,0.008057337,0.167618246,0.008378488
0.016008523,0.008045233,0.167766608,0.008379995
0.016020338,0.008033108,0.167914711,0.008381438
0.016032109,0.00802096,0.168062552,0.008382817
0.016043836,0.008008789,0.168210127,0.008384132
0.016055521,0.007996597,0.168357436,0.008385386
0.016067162,0.007984383,0.168504474,0.008386577
0.01607876,0.007972147,0.168651239,0.008387706
0.016090315,0.007959888,0.16879773,0.008388774
0.016101826,0.007947607,0.168943944,0.008389782
0.016113292,0.007935304,0.169089878,0.008390728
0.016124715,0.007922977,0.169235531,0.008391613
0.016136095,0.007910628,0.1693809,0.008392438
0.01614743,0.007898257,0.169525983,0.008393202
0.016158721,0.007885862,0.169670779,0.008393906
0.016169967,0.007873444,0.169815286,0.00839455
0.01618117,0.007861004,0.169959503,0.008395134
0.016192327,0.00784854,0.170103429,0.008395659
0.016203441,0.007836053,0.170247064,0.008396125
0.016214509,0.007823542,0.170390407,0.008396533
0.016225532,0.007811008,0.170533457,0.008396882
0.016236511,0.00779845,0.170676213,0.008397172
0.016247444,0.007785869,0.170818676,0.008397405
0.016258333,0.007773263,0.170960843,0.00839758
0.016269176,0.007760635,0.171102715,0.008397698
0.016279976,0.007747982,0.171244291,0.00839776
0.01629073,0.007735307,0.171385568,0.008397766
0.016301441,0.007722608,0.171526547,0.008397716
0.016312107,0.007709887,0.171667226,0.00839761
0.01632273,0.007697142,0.171807603,0.00839745
0.016333309,0.007684374,0.171947679,0.008397234
0.016343844,0.007671583,0.172087451,0.008396964
0.016354335,0.007658769,0.172226918,0.008396639
0.016364782,0.007645933,0.172366081,0.008396261
0.016375186,0.007633073,0.172504937,0.008395828
0.016385547,0.007620191,0.172643485,0.008395341
0.016395863,0.007607285,0.172781724,0.008394801
0.016406136,0.007594357,0.172919653,0.008394207
0.016416366,0.007581406,0.17305727,0.00839356
0.016426552,0.007568431,0.173194573,0.008392859
0.016436695,0.007555434,0.173331562,0.008392105
0.016446795,0.007542414,0.173468236,0.008391299
0.016456852,0.007529371,0.173604593,0.00839044
0.016466866,0.007516305,0.173740635,0.00838953
0.016476837,0.007503216,0.173876362,0.008388567
0.016486766,0.007490105,0.174011774,0.008387553
0.016496653,0.007476971,0.174146873,0.008386487
0.016506497,0.007463814,0.174281659,0.008385371
0.0165163,0.007450636,0.174416133,0.008384203
0.016526062,0.007437435,0.174550296,0.008382984
0.016535782,0.007424212,0.174684148,0.008381714
0.01654546,0.007410968,0.174817688,0.008380394
0.016555098,0.007397705,0.174950917,0.008379022
0.016564694,0.007384421,0.175083835,0.008377599
0.016574249,0.007371119,0.175216442,0.008376126
0.016583763,0.007357798,0.175348737,0.008374602
0.016593235,0.007344459,0.175480719,0.008373028
0.016602666,0.007331104,0.175612389,0.008371404
0.016612055,0.007317732,0.175743745,0.008369731
0.016621403,0.007304344,0.175874785,0.008368008
0.016630708,0.007290941,0.176005509,0.008366238
0.016639972,0.007277523,0.176135914,0.008364419
0.016649193,0.007264091,0.176266,0.008362552
0.016658372,0.007250646,0.176395764,0.008360637
0.016667509,0.007237188,0.176525203,0.008358674
0.016676604,0.007223718,0.176654315,0.008356664
0.016685656,0.007210235,0.176783097,0.008354606
0.016694667,0.007196742,0.176911547,0.008352501
0.016703636,0.007183238,0.177039661,0.008350349
0.016712563,0.007169724,0.177167435,0.008348149
0.016721447,0.0071562,0.177294866,0.008345901
0.016730289,0.007142667,0.177421951,0.008343605
0.016739089,0.007129126,0.177548684,0.008341262
0.016747845,0.007115577,0.177675062,0.008338871
0.016756559,0.007102019,0.177801082,0.008336432
0.016765229,0.007088455,0.177926738,0.008333945
0.016773855,0.007074883,0.178052028,0.00833141
0.016782436,0.007061305,0.178176947,0.008328828
0.016790974,0.007047721,0.178301491,0.008326199
0.016799467,0.007034131,0.178425657,0.008323521
0.016807915,0.007020536,0.17854944,0.008320796
0.016816319,0.007006936,0.178672837,0.008318024
0.016824678,0.006993331,0.178795843,0.008315202
0.016832993,0.006979723,0.178918454,0.008312333
0.016841262,0.006966111,0.179040667,0.008309414
0.016849486,0.006952495,0.179162477,0.008306447
0.016857666,0.006938877,0.179283881,0.008303431
0.0168658,0.006925256,0.179404875,0.008300366
0.01687389,0.006911633,0.179525456,0.008297253
0.016881935,0.006898007,0.179645621,0.008294091
0.016889936,0.006884379,0.179765368,0.008290879
0.016897892,0.00687075,0.179884696,0.008287619
0.016905805,0.006857119,0.180003603,0.008284309
0.016913674,0.006843487,0.18012209,0.00828095
0.016921501,0.006829855,0.180240155,0.008277542
0.016929285,0.006816221,0.180357798,0.008274084
0.016937028,0.006802587,0.18047502,0.008270578
0.016944729,0.006788953,0.18059182,0.008267024
0.01695239,0.006775319,0.180708199,0.008263425
0.016960011,0.006761686,0.180824157,0.008259782
0.016967593,0.006748053,0.180939694,0.008256098
0.016975137,0.006734421,0.181054809,0.008252376
0.016982644,0.00672079,0.181169503,0.008248617
0.016990115,0.006707161,0.181283773,0.008244823
0.016997551,0.006693534,0.181397619,0.008240996
0.017004953,0.006679909,0.181511041,0.008237138
0.017012321,0.006666287,0.181624036,0.00823325
0.017019657,0.006652668,0.181736604,0.008229333
0.017026961,0.006639052,0.181848743,0.008225389
0.017034234,0.006625439,0.181960451,0.008221418
0.017041476,0.006611829,0.182071728,0.008217421
0.017048688,0.006598224,0.18218257,0.008213399
0.017055871,0.006584622,0.182292977,0.008209353
0.017063025,0.006571024,0.182402945,0.008205284
0.01707015,0.00655743,0.182512473,0.008201193
0.017077247,0.00654384,0.182621559,0.00819708
0.017084316,0.006530254,0.182730199,0.008192946
0.017091358,0.006516672,0.182838393,0.008188793
0.017098372,0.006503096,0.182946136,0.00818462
0.017105361,0.006489524,0.183053427,0.008180429
0.017112323,0.006475958,0.183160261,0.008176221
0.01711926,0.006462399,0.183266637,0.008171995
0.017126171,0.006448846,0.18337255,0.008167753
0.017133058,0.0064353,0.183477998,0.008163496
0.017139921,0.006421761,0.183582979,0.008159224
0.017146759,0.00640823,0.183687488,0.008154938
0.017153574,0.006394707,0.183791523,0.008150638
0.017160367,0.006381191,0.183895083,0.008146325
0.017167137,0.006367684,0.183998165,0.008142001
0.017173884,0.006354186,0.184100766,0.008137665
0.01718061,0.006340696,0.184202884,0.008133318
0.017187315,0.006327214,0.184304515,0.008128962
0.017193999,0.006313741,0.184405658,0.008124597
0.017200662,0.006300277,0.184506309,0.008120223
0.017207305,0.006286822,0.184606465,0.008115841
0.017213927,0.006273378,0.184706123,0.008111452
0.017220529,0.006259945,0.18480528,0.008107057
0.017227111,0.006246524,0.184903932,0.008102655
0.017233673,0.006233115,0.185002077,0.008098249
0.017240215,0.006219719,0.18509971,0.008093838
0.017246738,0.006206336,0.185196827,0.008089424
0.017253242,0.006192968,0.185293425,0.008085006
0.017259727,0.006179614,0.1853895,0.008080586
0.017266194,0.006166275,0.185485047,0.008076164
0.017272642,0.006152951,0.185580062,0.00807174
0.017279072,0.006139642,0.18567454,0.008067315
0.017285484,0.006126348,0.185768479,0.008062889
0.017291877,0.00611307,0.185861873,0.008058464
0.017298253,0.006099808,0.18595472,0.008054038
0.01730461,0.006086562,0.186047016,0.008049613
0.01731095,0.006073333,0.186138758,0.008045189
0.017317272,0.00606012,0.186229942,0.008040766
0.017323578,0.006046923,0.186320564,0.008036345
0.017329866,0.006033744,0.186410623,0.008031927
0.017336137,0.006020582,0.186500114,0.008027513
0.017342391,0.006007438,0.186589034,0.008023104
0.01734863,0.005994312,0.18667738,0.0080187
0.017354852,0.005981206,0.186765148,0.008014303
0.017361059,0.005968118,0.186852336,0.008009912
0.01736725,0.00595505,0.18693894,0.008005528
0.017373426,0.005942002,0.187024956,0.008001152
0.017379587,0.005928973,0.18711038,0.007996783
0.017385733,0.005915965,0.187195207,0.007992421
0.017391864,0.005902976,0.187279435,0.007988067
0.01739798,0.005890007,0.187363058,0.007983721
0.017404082,0.005877059,0.187446072,0.007979382
0.017410168,0.00586413,0.187528473,0.007975052
0.017416239,0.005851222,0.187610258,0.007970729
0.017422295,0.005838333,0.187691423,0.007966415
0.017428336,0.005825464,0.187771964,0.007962109
0.017434361,0.005812615,0.187851879,0.007957812
0.017440372,0.005799785,0.187931163,0.007953523
0.017446368,0.005786974,0.188009815,0.007949244
0.017452349,0.005774184,0.188087831,0.007944975
0.017458316,0.005761414,0.18816521,0.007940715
0.017464269,0.005748664,0.188241948,0.007936466
0.017470209,0.005735935,0.188318042,0.007932228
0.017476135,0.005723228,0.188393491,0.007928001
0.017482048,0.005710541,0.188468291,0.007923786
0.017487947,0.005697876,0.188542439,0.007919582
0.017493834,0.005685233,0.188615933,0.007915391
0.017499708,0.005672611,0.188688769,0.007911213
0.01750557,0.00566001,0.188760946,0.007907048
0.017511419,0.005647431,0.18883246,0.007902897
0.017517256,0.005634873,0.188903308,0.007898759
0.017523082,0.005622335,0.188973486,0.007894635
0.017528895,0.005609819,0.18904299,0.007890525
0.017534697,0.005597323,0.189111818,0.00788643
0.017540488,0.005584848,0.189179965,0.00788235
0.017546267,0.005572392,0.189247427,0.007878285
0.017552036,0.005559956,0.189314201,0.007874235
0.017557793,0.005547539,0.189380282,0.0078702
0.017563539,0.005535142,0.189445668,0.00786618
0.017569275,0.005522766,0.189510353,0.007862175
0.017574999,0.005510411,0.189574333,0.007858186
0.017580712,0.005498077,0.189637606,0.007854212
0.017586414,0.005485766,0.189700168,0.007850255
0.017592105,0.005473477,0.189762015,0.007846315
0.017597784,0.005461212,0.189823146,0.007842396
0.017603451,0.005448971,0.189883556,0.007838497
0.017609107,0.005436753,0.189943244,0.007834621
0.017614751,0.005424559,0.190002206,0.00783077
0.017620383,0.005412391,0.19006044,0.007826943
0.017626002,0.005400246,0.190117943,0.007823143
0.01763161,0.005388127,0.190174711,0.007819371
0.017637205,0.005376032,0.190230743,0.007815626
0.017642788,0.005363962,0.190286034,0.007811911
0.01764836,0.005351916,0.190340582,0.007808225
0.017653921,0.005339896,0.190394383,0.007804569
0.017659473,0.0053279,0.190447435,0.007800945
0.017665015,0.005315928,0.190499734,0.007797352
0.017670548,0.005303981,0.190551277,0.007793792
0.017676074,0.005292059,0.190602061,0.007790265
0.017681593,0.005280161,0.190652081,0.00778677
0.017687106,0.005268287,0.190701336,0.007783308
0.017692613,0.005256437,0.190749821,0.007779879
0.017698115,0.005244613,0.190797533,0.007776482
0.017703612,0.005232813,0.190844469,0.007773119
0.017709104,0.005221037,0.190890624,0.007769787
0.017714593,0.005209286,0.190935997,0.007766487
0.017720076,0.00519756,0.190980583,0.007763219
0.017725556,0.005185858,0.191024379,0.007759983
0.017731032,0.005174181,0.191067381,0.007756779
0.017736504,0.005162529,0.191109587,0.007753606
0.017741973,0.005150901,0.191150992,0.007750465
0.017747437,0.005139299,0.191191592,0.007747355
0.017752896,0.005127722,0.191231385,0.007744278
0.017758352,0.005116169,0.191270364,0.007741232
0.017763803,0.005104642,0.191308528,0.007738218
0.017769249,0.005093139,0.191345871,0.007735237
0.017774691,0.005081662,0.191382389,0.007732287
0.017780127,0.005070209,0.191418078,0.00772937
0.017785558,0.005058782,0.191452933,0.007726484
0.017790983,0.005047379,0.191486951,0.007723628
0.017796402,0.005036001,0.191520126,0.007720804
0.017801815,0.005024648,0.191552454,0.00771801
0.01780722,0.005013319,0.19158393,0.007715247
0.017812619,0.005002014,0.191614551,0.007712515
0.017818011,0.004990733,0.191644312,0.007709814
0.017823394,0.004979476,0.191673209,0.007707144
0.017828769,0.004968242,0.191701238,0.007704507
0.017834136,0.004957032,0.191728396,0.007701901
0.017839495,0.004945845,0.191754678,0.007699327
0.017844844,0.004934682,0.191780081,0.007696785
0.017850183,0.004923542,0.191804602,0.007694275
0.017855513,0.004912426,0.191828236,0.007691796
0.017860833,0.004901334,0.191850981,0.007689347
0.017866143,0.004890265,0.191872833,0.007686929
0.017871442,0.004879221,0.19189379,0.007684542
0.01787673,0.004868199,0.191913849,0.007682184
0.017882006,0.004857202,0.191933005,0.007679855
0.017887271,0.004846228,0.191951258,0.007677555
0.017892524,0.004835277,0.191968603,0.007675283
0.017897764,0.00482435,0.191985037,0.007673039
0.01790299,0.004813447,0.192000559,0.007670823
0.017908204,0.004802567,0.192015165,0.007668635
0.017913403,0.004791711,0.192028853,0.007666474
0.017918587,0.004780879,0.19204162,0.00766434
0.017923756,0.00477007,0.192053465,0.007662234
0.01792891,0.004759285,0.192064385,0.007660154
0.017934046,0.004748525,0.192074379,0.007658102
0.017939166,0.004737788,0.192083443,0.007656075
0.017944267,0.004727075,0.192091577,0.007654075
0.017949349,0.004716387,0.192098778,0.007652101
0.017954411,0.004705723,0.192105043,0.007650152
0.017959453,0.004695083,0.19211037,0.007648229
0.017964474,0.004684468,0.192114757,0.007646331
0.017969473,0.004673877,0.192118201,0.007644458
0.017974449,0.004663311,0.192120699,0.00764261
0.017979401,0.00465277,0.192122248,0.007640786
0.017984329,0.004642254,0.192122845,0.007638986
0.017989232,0.004631763,0.192122487,0.00763721
0.017994107,0.004621297,0.192121171,0.007635457
0.017998956,0.004610858,0.192118894,0.007633727
0.018003776,0.004600444,0.192115653,0.00763202
0.018008567,0.004590056,0.192111443,0.007630336
0.018013327,0.004579695,0.192106263,0.007628675
0.018018055,0.004569361,0.192100107,0.007627035
0.018022752,0.004559053,0.192092973,0.007625418
0.018027414,0.004548771,0.192084856,0.007623822
0.018032042,0.004538517,0.192075753,0.007622247
0.018036634,0.004528289,0.19206566,0.007620692
0.01804119,0.004518087,0.192054572,0.007619156
0.018045709,0.004507912,0.192042486,0.00761764
0.018050191,0.004497764,0.192029397,0.007616141
0.018054636,0.004487642,0.192015302,0.007614659
0.018059044,0.004477546,0.192000196,0.007613194
0.018063416,0.004467477,0.191984077,0.007611746
0.018067751,0.004457435,0.19196694,0.007610313
0.018072049,0.004447422,0.191948783,0.007608896
0.018076311,0.004437437,0.191929602,0.007607494
0.018080537,0.004427482,0.191909394,0.007606108
0.018084726,0.004417555,0.191888156,0.007604737
0.018088879,0.004407658,0.191865885,0.00760338
0.018092996,0.004397791,0.19184258,0.007602038
0.018097076,0.004387954,0.191818239,0.00760071
0.018101121,0.004378148,0.19179286,0.007599396
0.01810513,0.004368372,0.191766443,0.007598095
0.018109103,0.004358627,0.191738989,0.007596807
0.018113042,0.004348913,0.191710498,0.007595531
0.018116946,0.00433923,0.191680972,0.007594268
0.018120815,0.004329577,0.191650412,0.007593017
0.01812465,0.004319956,0.191618819,0.007591779
0.018128451,0.004310366,0.191586195,0.007590555
0.018132218,0.004300808,0.191552542,0.007589346
0.018135951,0.004291281,0.19151786,0.007588154
0.018139652,0.004281785,0.191482152,0.007586979
0.018143319,0.004272321,0.191445419,0.007585823
0.018146953,0.004262888,0.191407663,0.007584688
0.018150554,0.004253487,0.191368885,0.007583573
0.018154122,0.004244117,0.191329087,0.007582481
0.018157658,0.004234779,0.191288271,0.007581411
0.018161161,0.004225472,0.191246439,0.007580365
0.01816463,0.004216197,0.191203594,0.007579343
0.018168067,0.004206953,0.191159738,0.007578346
0.018171471,0.004197741,0.191114874,0.007577375
0.018174841,0.00418856,0.191069003,0.007576431
0.018178178,0.00417941,0.191022127,0.007575513
0.018181481,0.004170292,0.190974248,0.007574624
0.01818475,0.004161206,0.190925367,0.007573763
0.018187984,0.004152151,0.190875486,0.007572932
0.018191184,0.004143127,0.190824606,0.007572131
0.018194349,0.004134135,0.190772728,0.00757136
0.018197478,0.004125174,0.190719853,0.007570621
0.018200571,0.004116244,0.190665983,0.007569913
0.018203628,0.004107346,0.190611118,0.007569236
0.018206648,0.004098479,0.19055526,0.007568591
0.01820963,0.004089643,0.190498409,0.007567977
0.018212575,0.004080837,0.190440568,0.007567394
0.018215481,0.004072063,0.190381735,0.007566842
0.018218347,0.004063319,0.190321914,0.00756632
0.018221174,0.004054606,0.190261104,0.007565829
0.01822396,0.004045924,0.190199306,0.007565369
0.018226705,0.004037272,0.190136521,0.007564939
0.018229408,0.00402865,0.190072749,0.00756454
0.018232068,0.004020058,0.190007991,0.007564172
0.018234685,0.004011496,0.189942247,0.007563836
0.018237258,0.004002964,0.189875516,0.007563532
0.018239786,0.003994461,0.1898078,0.007563261
0.018242269,0.003985988,0.189739098,0.007563023
0.018244706,0.003977545,0.189669411,0.007562818
0.018247097,0.003969131,0.18959874,0.007562647
0.01824944,0.003960747,0.189527085,0.00756251
0.018251736,0.003952392,0.189454449,0.007562406
0.018253984,0.003944067,0.189380833,0.007562335
0.018256183,0.00393577,0.18930624,0.007562297
0.018258335,0.003927503,0.189230672,0.007562293
0.01826044,0.003919264,0.189154133,0.007562321
0.018262497,0.003911053,0.189076624,0.007562383
0.018264507,0.003902872,0.188998149,0.007562478
0.018266471,0.003894718,0.18891871,0.007562607
0.018268389,0.003886592,0.188838311,0.007562769
0.018270261,0.003878493,0.188756955,0.007562964
0.018272088,0.003870423,0.188674643,0.007563193
0.01827387,0.003862379,0.18859138,0.007563454
0.018275608,0.003854362,0.188507168,0.007563748
0.0182773,0.003846372,0.188422011,0.007564074
0.018278948,0.003838409,0.18833591,0.007564432
0.018280552,0.003830472,0.18824887,0.007564821
0.018282111,0.003822562,0.188160894,0.007565241
0.018283626,0.003814677,0.188071983,0.007565693
0.018285096,0.003806819,0.187982142,0.007566175
0.018286522,0.003798987,0.187891373,0.007566688
0.018287904,0.003791181,0.187799679,0.007567231
0.018289242,0.003783401,0.187707064,0.007567805
0.018290535,0.003775646,0.187613531,0.007568408
0.018291783,0.003767917,0.187519082,0.007569042
0.018292986,0.003760214,0.18742372,0.007569705
0.018294145,0.003752536,0.187327449,0.007570396
0.018295258,0.003744884,0.18723027,0.007571116
0.018296325,0.003737257,0.187132186,0.007571865
0.018297347,0.003729656,0.1870332,0.00757264
0.018298324,0.00372208,0.186933314,0.007573444
0.018299253,0.00371453,0.186832531,0.007574275
0.018300136,0.003707005,0.186730854,0.007575133
0.018300973,0.003699506,0.186628284,0.007576018
0.018301761,0.003692033,0.186524824,0.007576929
0.018302502,0.003684585,0.186420476,0.007577866
0.018303194,0.003677163,0.186315243,0.007578828
0.018303838,0.003669767,0.186209126,0.007579816
0.018304432,0.003662397,0.186102129,0.007580828
0.018304977,0.003655053,0.185994253,0.007581865
0.018305472,0.003647735,0.185885502,0.007582925
0.018305916,0.003640443,0.185775877,0.007584008
0.01830631,0.003633177,0.185665382,0.007585115
0.018306652,0.003625937,0.185554018,0.007586245
0.018306941,0.003618725,0.185441787,0.007587396
0.018307178,0.003611538,0.185328692,0.007588569
0.018307362,0.003604379,0.185214736,0.007589764
0.018307491,0.003597247,0.18509992,0.007590979
0.018307566,0.003590141,0.184984247,0.007592214
0.018307586,0.003583063,0.184867719,0.007593468
0.01830755,0.003576013,0.18475034,0.007594742
0.018307458,0.00356899,0.184632111,0.007596036
0.018307309,0.003561995,0.184513036,0.007597348
0.018307103,0.003555027,0.184393117,0.007598679
0.018306839,0.003548087,0.184272357,0.007600029
0.018306518,0.003541175,0.184150759,0.007601398
0.018306138,0.00353429,0.184028328,0.007602785
0.018305699,0.003527434,0.183905065,0.007604192
0.018305201,0.003520605,0.183780976,0.007605617
0.018304643,0.003513805,0.183656064,0.00760706
0.018304026,0.003507034,0.183530332,0.007608521
0.018303348,0.003500293,0.183403785,0.00761
0.01830261,0.003493584,0.183276426,0.007611498
0.01830181,0.003486906,0.183148259,0.007613013
0.018300949,0.003480261,0.183019287,0.007614547
0.018300026,0.003473649,0.182889515,0.007616099
0.01829904,0.003467071,0.182758945,0.00761767
0.018297992,0.003460529,0.182627583,0.007619263
0.01829688,0.003454021,0.182495431,0.007620878
0.018295705,0.00344755,0.182362494,0.007622517
0.018294465,0.003441115,0.182228776,0.007624183
0.01829316,0.003434717,0.182094279,0.007625877
0.01829179,0.003428357,0.181959007,0.007627601
0.018290354,0.003422033,0.181822964,0.007629357
0.018288852,0.003415748,0.181686153,0.007631146
0.018287282,0.003409501,0.181548578,0.00763297
0.018285644,0.003403292,0.181410241,0.007634829
0.018283938,0.003397121,0.181271148,0.007636724
0.018282163,0.00339099,0.181131301,0.007638657
0.018280318,0.003384898,0.180990705,0.007640628
0.018278403,0.003378845,0.180849363,0.007642637
0.018276416,0.003372833,0.18070728,0.007644685
0.018274357,0.003366861,0.180564461,0.007646773
0.018272226,0.00336093,0.180420908,0.0076489
0.018270022,0.003355041,0.180276627,0.007651068
0.018267744,0.003349194,0.180131622,0.007653276
0.018265392,0.003343389,0.179985898,0.007655526
0.018262966,0.003337627,0.179839457,0.007657819
0.018260463,0.003331909,0.179692305,0.007660154
0.018257885,0.003326235,0.179544446,0.007662534
0.018255231,0.003320605,0.179395883,0.007664957
0.0182525,0.00331502,0.179246621,0.007667426
0.018249693,0.00330948,0.179096666,0.007669941
0.018246809,0.003303985,0.17894602,0.007672502
0.018243849,0.003298535,0.17879469,0.007675109
0.018240813,0.003293132,0.17864268,0.007677764
0.018237702,0.003287775,0.178489996,0.007680466
0.018234515,0.003282464,0.178336642,0.007683215
0.018231254,0.003277201,0.178182624,0.007686013
0.018227918,0.003271984,0.178027947,0.007688859
0.018224507,0.003266816,0.177872616,0.007691753
0.018221022,0.003261696,0.177716635,0.007694695
0.018217463,0.003256626,0.177560011,0.007697686
0.01821383,0.003251606,0.177402746,0.007700725
0.018210123,0.003246637,0.177244847,0.007703813
0.018206343,0.003241719,0.177086318,0.007706948
0.01820249,0.003236855,0.176927163,0.007710132
0.018198563,0.003232043,0.176767387,0.007713363
0.018194564,0.003227286,0.176606995,0.007716643
0.018190492,0.003222585,0.17644599,0.00771997
0.018186347,0.00321794,0.176284378,0.007723344
0.01818213,0.003213352,0.176122163,0.007726765
0.01817784,0.003208823,0.175959349,0.007730233
0.018173479,0.003204353,0.17579594,0.007733748
0.018169045,0.003199944,0.175631941,0.00773731
0.01816454,0.003195594,0.175467356,0.007740917
0.018159963,0.003191306,0.175302189,0.00774457
0.018155314,0.00318708,0.175136444,0.007748269
0.018150594,0.003182916,0.174970126,0.007752013
0.018145802,0.003178814,0.174803239,0.007755802
0.018140938,0.003174775,0.174635785,0.007759636
0.018136003,0.003170799,0.17446777,0.007763515
0.018130996,0.003166886,0.174299197,0.007767439
0.018125918,0.003163036,0.174130069,0.007771406
0.018120767,0.003159251,0.173960391,0.007775418
0.018115545,0.003155529,0.173790167,0.007779475
0.018110249,0.00315187,0.1736194,0.007783575
0.018104882,0.003148276,0.173448094,0.007787718
0.018099441,0.003144747,0.173276254,0.007791904
0.018093927,0.003141281,0.173103884,0.007796132
0.018088339,0.003137881,0.172930987,0.007800402
0.018082678,0.003134545,0.172757569,0.007804712
0.018076943,0.003131274,0.172583633,0.007809062
0.018071135,0.003128068,0.172409184,0.007813451
0.018065255,0.003124928,0.172234226,0.007817878
0.018059301,0.003121853,0.172058764,0.007822342
0.018053274,0.003118843,0.171882802,0.007826842
0.018047174,0.003115899,0.171706345,0.007831379
0.018041001,0.00311302,0.171529398,0.007835952
0.018034754,0.003110206,0.171351966,0.00784056
0.018028435,0.003107459,0.171174055,0.007845203
0.018022042,0.003104776,0.17099567,0.007849882
0.018015576,0.003102159,0.170816815,0.007854595
0.018009036,0.003099608,0.170637496,0.007859343
0.018002422,0.003097123,0.170457717,0.007864126
0.017995734,0.003094704,0.170277484,0.007868942
0.017988971,0.003092352,0.1700968,0.007873791
0.017982135,0.003090066,0.169915672,0.007878673
0.017975223,0.003087847,0.169734102,0.007883587
0.017968237,0.003085696,0.169552097,0.007888532
0.017961175,0.003083611,0.16936966,0.007893507
0.017954038,0.003081595,0.169186797,0.007898512
0.017946824,0.003079646,0.169003512,0.007903547
0.017939534,0.003077765,0.168819808,0.00790861
0.017932168,0.003075952,0.168635692,0.007913701
0.017924725,0.003074207,0.168451167,0.007918819
0.017917204,0.003072532,0.168266238,0.007923963
0.017909605,0.003070926,0.16808091,0.007929133
0.017901928,0.003069389,0.167895187,0.007934328
0.017894172,0.003067923,0.167709075,0.007939547
0.017886337,0.003066526,0.167522579,0.00794479
0.017878423,0.0030652,0.167335703,0.007950055
0.017870428,0.003063945,0.167148452,0.007955342
0.017862352,0.00306276,0.166960832,0.00796065
0.017854196,0.003061645,0.166772847,0.007965979
0.017845959,0.003060602,0.166584503,0.007971327
0.01783764,0.003059629,0.166395806,0.007976694
0.017829239,0.003058728,0.16620676,0.007982079
0.017820756,0.003057898,0.166017372,0.007987481
0.017812191,0.00305714,0.165827648,0.0079929
0.017803543,0.003056453,0.165637593,0.007998336
0.017794813,0.003055839,0.165447214,0.008003787
0.017786001,0.003055297,0.165256517,0.008009253
0.017777106,0.003054827,0.165065509,0.008014733
0.01776813,0.00305443,0.164874195,0.008020227
0.017759071,0.003054105,0.164682581,0.008025734
0.01774993,0.003053853,0.164490675,0.008031254
0.017740706,0.003053674,0.164298483,0.008036786
0.0177314,0.003053567,0.164106009,0.008042331
0.017722012,0.003053532,0.163913262,0.00804789
0.017712541,0.00305357,0.163720245,0.008053465
0.017702987,0.00305368,0.163526966,0.008059058
0.01769335,0.003053862,0.163333431,0.008064669
0.01768363,0.003054115,0.163139645,0.008070301
0.017673827,0.00305444,0.162945615,0.008075955
0.017663939,0.003054836,0.162751348,0.008081632
0.017653968,0.003055304,0.16255685,0.008087332
0.017643914,0.003055843,0.162362129,0.008093057
0.017633776,0.003056452,0.162167191,0.008098807
0.017623554,0.003057131,0.161972044,0.008104583
0.017613248,0.003057881,0.161776695,0.008110385
0.01760286,0.003058701,0.161581154,0.008116214
0.017592387,0.003059591,0.161385428,0.008122069
0.017581831,0.00306055,0.161189527,0.008127952
0.017571192,0.003061581,0.160993462,0.008133862
0.017560471,0.003062683,0.160797244,0.0081398
0.017549666,0.003063856,0.160600884,0.008145765
0.01753878,0.0030651,0.160404395,0.008151758
0.017527811,0.003066417,0.160207789,0.00815778
0.017516761,0.003067806,0.160011078,0.008163829
0.017505629,0.003069268,0.159814273,0.008169907
0.017494416,0.003070802,0.159617388,0.008176013
0.017483123,0.00307241,0.159420434,0.008182148
0.01747175,0.00307409,0.159223423,0.008188312
0.017460297,0.003075845,0.159026366,0.008194504
0.017448764,0.003077673,0.158829274,0.008200726
0.017437153,0.003079576,0.158632158,0.008206978
0.017425464,0.003081554,0.158435028,0.008213259
0.017413697,0.003083607,0.158237896,0.00821957
0.017401853,0.003085735,0.158040773,0.00822591
0.017389932,0.00308794,0.157843668,0.008232281
0.017377934,0.003090221,0.157646592,0.008238681
0.017365861,0.003092578,0.157449557,0.008245111
0.017353712,0.003095014,0.157252572,0.00825157
0.017341488,0.003097527,0.157055648,0.008258059
0.017329189,0.003100117,0.156858796,0.008264577
0.017316816,0.003102787,0.156662027,0.008271124
0.017304369,0.003105535,0.15646535,0.008277701
0.017291848,0.003108362,0.156268777,0.008284306
0.017279255,0.003111268,0.156072316,0.008290941
0.017266589,0.003114254,0.155875979,0.008297604
0.017253851,0.00311732,0.155679776,0.008304297
0.017241041,0.003120466,0.155483716,0.008311018
0.01722816,0.003123693,0.15528781,0.008317769
0.017215207,0.003127001,0.155092067,0.008324548
0.017202185,0.003130391,0.154896499,0.008331354
0.017189092,0.003133861,0.154701114,0.008338188
0.017175929,0.003137413,0.154505923,0.008345049
0.017162696,0.003141046,0.154310935,0.008351936
0.017149395,0.00314476,0.15411616,0.008358848
0.017136024,0.003148556,0.153921608,0.008365785
0.017122584,0.003152433,0.153727287,0.008372747
0.017109076,0.003156392,0.153533206,0.008379733
0.0170955,0.003160432,0.153339374,0.008386744
0.017081855,0.003164554,0.153145799,0.008393779
0.017068143,0.003168758,0.152952489,0.008400838
0.017054363,0.003173045,0.152759453,0.008407921
0.017040516,0.003177414,0.152566698,0.008415028
0.017026601,0.003181867,0.152374232,0.008422159
0.01701262,0.003186402,0.152182062,0.008429315
0.016998572,0.003191021,0.151990195,0.008436494
0.016984457,0.003195724,0.151798639,0.008443698
0.016970277,0.00320051,0.1516074,0.008450926
0.016956032,0.003205379,0.151416486,0.008458178
0.016941721,0.003210332,0.151225905,0.008465454
0.016927345,0.003215369,0.151035663,0.008472752
0.016912906,0.003220489,0.150845768,0.008480074
0.016898402,0.003225692,0.150656228,0.008487418
0.016883836,0.003230978,0.150467049,0.008494785
0.016869207,0.003236347,0.15027824,0.008502174
0.016854516,0.003241798,0.150089807,0.008509584
0.016839763,0.003247332,0.149901756,0.008517015
0.016824949,0.003252948,0.149714095,0.008524466
0.016810075,0.003258647,0.149526829,0.008531936
0.01679514,0.00326443,0.149339966,0.008539426
0.016780147,0.003270296,0.149153513,0.008546934
0.016765094,0.003276246,0.148967479,0.008554462
0.016749982,0.00328228,0.14878187,0.00856201
0.016734813,0.003288398,0.148596696,0.00856958
0.016719586,0.003294601,0.148411967,0.008577171
0.016704302,0.003300887,0.148227692,0.008584784
0.016688961,0.003307258,0.148043883,0.008592421
0.016673565,0.003313713,0.147860549,0.008600082
0.016658114,0.003320254,0.147677701,0.008607767
0.016642608,0.003326878,0.147495349,0.008615476
0.016627048,0.003333588,0.147313503,0.008623211
0.016611433,0.003340383,0.147132172,0.008630972
0.016595766,0.003347264,0.146951366,0.008638758
0.016580045,0.003354229,0.146771096,0.008646571
0.016564271,0.00336128,0.14659137,0.008654409
0.016548446,0.003368415,0.146412198,0.008662274
0.016532568,0.003375636,0.14623359,0.008670165
0.016516639,0.003382941,0.146055556,0.008678084
0.016500659,0.003390331,0.145878104,0.008686029
0.016484628,0.003397804,0.145701244,0.008694
0.016468548,0.003405361,0.145524983,0.008701999
0.016452418,0.003413002,0.14534933,0.008710025
0.016436239,0.003420725,0.145174294,0.008718078
0.01642001,0.003428531,0.144999883,0.008726157
0.016403734,0.003436418,0.144826104,0.008734263
0.016387409,0.003444387,0.144652964,0.008742395
0.016371036,0.003452437,0.144480472,0.008750553
0.016354615,0.003460568,0.144308635,0.008758737
0.016338146,0.003468779,0.14413746,0.008766946
0.01632163,0.00347707,0.143966953,0.008775181
0.016305066,0.00348544,0.143797122,0.00878344
0.016288456,0.00349389,0.143627972,0.008791724
0.0162718,0.003502418,0.143459511,0.008800033
0.016255097,0.003511025,0.143291743,0.008808367
0.016238349,0.003519709,0.143124675,0.008816726
0.016221555,0.00352847,0.142958312,0.00882511
0.016204717,0.003537307,0.142792661,0.008833518
0.016187834,0.003546221,0.142627725,0.008841952
0.016170907,0.003555209,0.14246351,0.00885041
0.016153935,0.003564272,0.142300021,0.008858892
0.01613692,0.003573409,0.142137264,0.008867399
0.016119861,0.00358262,0.141975244,0.008875928
0.016102758,0.003591903,0.141813966,0.008884481
0.016085612,0.003601259,0.141653438,0.008893057
0.016068424,0.003610687,0.141493666,0.008901654
0.016051193,0.003620186,0.141334655,0.008910274
0.01603392,0.003629755,0.141176415,0.008918914
0.016016607,0.003639396,0.141018952,0.008927576
0.015999254,0.003649106,0.140862274,0.008936257
0.015981862,0.003658886,0.140706388,0.008944959
0.015964433,0.003668735,0.140551301,0.008953681
0.015946968,0.003678653,0.140397022,0.008962421
0.015929468,0.003688639,0.140243557,0.00897118
0.015911934,0.003698693,0.140090914,0.008979956
0.015894368,0.003708814,0.139939101,0.008988748
0.015876769,0.003719,0.139788124,0.008997557
0.01585914,0.003729253,0.139637991,0.009006382
0.015841481,0.00373957,0.139488709,0.009015221
0.015823793,0.003749951,0.139340285,0.009024075
0.015806078,0.003760395,0.139192726,0.009032943
0.015788336,0.003770901,0.139046037,0.009041825
0.015770567,0.00378147,0.138900227,0.009050721
0.015752775,0.003792099,0.1387553,0.009059631
0.015734958,0.00380279,0.138611265,0.009068554
0.015717118,0.00381354,0.138468127,0.009077491
0.015699255,0.00382435,0.138325893,0.009086439
0.015681371,0.00383522,0.13818457,0.009095399
0.015663466,0.003846149,0.138044165,0.009104371
0.015645541,0.003857136,0.137904684,0.009113353
0.015627596,0.00386818,0.137766133,0.009122345
0.015609632,0.003879283,0.137628519,0.009131345
0.015591651,0.003890442,0.137491847,0.009140354
0.015573652,0.003901658,0.137356122,0.009149371
0.015555636,0.00391293,0.137221351,0.009158394
0.015537604,0.003924259,0.137087538,0.009167423
0.015519557,0.003935643,0.136954688,0.009176458
0.015501495,0.003947083,0.136822807,0.009185498
0.015483419,0.003958578,0.1366919,0.009194541
0.01546533,0.003970128,0.136561971,0.009203588
0.015447227,0.003981732,0.136433025,0.009212637
0.015429113,0.003993391,0.136305067,0.009221687
0.015410987,0.004005103,0.136178102,0.009230738
0.01539285,0.004016868,0.136052134,0.009239789
0.015374702,0.004028686,0.135927166,0.00924884
0.015356544,0.004040556,0.135803203,0.00925789
0.015338377,0.004052478,0.135680249,0.009266937
0.0153202,0.004064451,0.135558306,0.009275981
0.015302014,0.004076475,0.135437378,0.00928502
0.015283819,0.004088549,0.135317468,0.009294055
0.015265617,0.004100672,0.13519858,0.009303083
0.015247407,0.004112845,0.135080715,0.009312105
0.01522919,0.004125067,0.134963878,0.009321119
0.015210968,0.004137337,0.134848071,0.009330126
0.01519274,0.004149655,0.134733299,0.009339123
0.015174509,0.00416202,0.134619565,0.009348112
0.015156275,0.004174431,0.134506873,0.00935709
0.01513804,0.004186887,0.134395226,0.009366058
0.015119806,0.004199389,0.134284629,0.009375014
0.015101573,0.004211935,0.134175084,0.009383958
0.015083342,0.004224526,0.134066594,0.009392888
0.015065116,0.004237159,0.133959164,0.009401805
0.015046895,0.004249836,0.133852794,0.009410706
0.015028679,0.004262556,0.133747489,0.009419593
0.015010471,0.004275317,0.133643251,0.009428464
0.014992271,0.004288119,0.133540082,0.009437321
0.01497408,0.004300962,0.133437983,0.009446166
0.0149559,0.004313844,0.133336958,0.009454997
0.01493773,0.004326766,0.133237007,0.009463818
0.014919573,0.004339726,0.133138133,0.009472627
0.014901429,0.004352725,0.133040336,0.009481426
0.014883298,0.004365762,0.132943619,0.009490214
0.014865182,0.004378838,0.132847982,0.009498992
0.014847081,0.004391951,0.132753428,0.00950776
0.014828996,0.004405103,0.132659958,0.009516518
0.014810927,0.004418292,0.132567575,0.009525265
0.014792876,0.00443152,0.132476281,0.009534002
0.014774843,0.004444786,0.132386079,0.009542728
0.014756829,0.004458088,0.132296973,0.009551444
0.014738835,0.004471428,0.132208966,0.009560148
0.014720862,0.004484804,0.132122061,0.009568842
0.01470291,0.004498216,0.132036261,0.009577524
0.01468498,0.004511664,0.13195157,0.009586194
0.014667073,0.004525146,0.131867991,0.009594852
0.01464919,0.004538664,0.131785527,0.009603497
0.014631332,0.004552215,0.131704179,0.00961213
0.014613498,0.004565799,0.131623951,0.00962075
0.01459569,0.004579417,0.131544845,0.009629358
0.014577908,0.004593067,0.131466863,0.009637955
0.014560153,0.004606748,0.131390008,0.009646542
0.014542426,0.004620461,0.131314283,0.009655119
0.014524727,0.004634204,0.131239689,0.009663689
0.014507058,0.004647976,0.131166229,0.009672251
0.014489418,0.004661778,0.131093905,0.009680806
0.01447181,0.004675608,0.131022717,0.009689355
0.014454235,0.004689465,0.130952669,0.009697898
0.014436692,0.004703349,0.130883759,0.009706434
0.014419184,0.00471726,0.130815991,0.009714966
0.01440171,0.004731196,0.130749363,0.009723492
0.014384272,0.004745157,0.130683876,0.009732015
0.01436687,0.004759143,0.130619532,0.009740534
0.014349504,0.004773152,0.13055633,0.00974905
0.014332177,0.004787184,0.13049427,0.009757564
0.014314888,0.004801239,0.130433352,0.009766075
0.014297637,0.004815315,0.130373574,0.009774584
0.014280426,0.004829412,0.130314937,0.00978309
0.014263255,0.004843529,0.130257439,0.009791595
0.014246124,0.004857666,0.130201079,0.009800098
0.014229034,0.004871821,0.130145856,0.009808599
0.014211985,0.004885994,0.130091769,0.009817098
0.014194977,0.004900183,0.130038816,0.009825597
0.014178012,0.00491439,0.129986995,0.009834095
0.014161089,0.004928611,0.129936304,0.009842593
0.014144209,0.004942848,0.129886741,0.00985109
0.014127373,0.004957098,0.129838305,0.009859587
0.01411058,0.004971362,0.129790993,0.009868084
0.014093831,0.004985638,0.129744803,0.00987658
0.014077126,0.004999925,0.129699734,0.009885077
0.014060466,0.005014223,0.129655783,0.009893573
0.01404385,0.005028531,0.129612949,0.009902068
0.014027278,0.005042847,0.129571229,0.009910561
0.014010751,0.005057172,0.129530621,0.009919053
0.013994268,0.005071504,0.129491124,0.009927541
0.013977831,0.005085843,0.129452734,0.009936027
0.013961438,0.005100188,0.12941545,0.009944509
0.013945091,0.005114537,0.12937927,0.009952986
0.013928791,0.005128891,0.129344194,0.009961458
0.013912537,0.005143248,0.129310218,0.009969925
0.013896332,0.005157608,0.129277341,0.009978385
0.013880176,0.005171969,0.12924556,0.00998684
0.01386407,0.005186332,0.129214875,0.00999529
0.013848014,0.005200695,0.129185281,0.010003733
0.01383201,0.005215057,0.129156777,0.010012171
0.013816058,0.005229418,0.129129361,0.010020604
0.013800159,0.005243777,0.129103029,0.010029031
0.013784314,0.005258133,0.12907778,0.010037452
0.013768524,0.005272486,0.12905361,0.010045867
0.01375279,0.005286834,0.129030518,0.010054276
0.013737113,0.005301177,0.1290085,0.010062679
0.013721493,0.005315515,0.128987555,0.010071076
0.01370593,0.005329848,0.12896768,0.010079467
0.013690426,0.005344175,0.128948873,0.010087851
0.013674981,0.005358496,0.128931133,0.010096229
0.013659596,0.005372811,0.128914457,0.010104599
0.013644271,0.005387121,0.128898843,0.010112963
0.013629007,0.005401424,0.128884287,0.01012132
0.013613805,0.005415722,0.128870788,0.010129673
0.013598665,0.005430013,0.128858343,0.010138021
0.013583588,0.005444298,0.128846948,0.010146366
0.013568575,0.005458577,0.128836601,0.010154709
0.013553627,0.005472848,0.128827296,0.010163053
0.013538743,0.005487113,0.128819031,0.010171396
0.013523924,0.005501371,0.128811802,0.010179741
0.01350917,0.005515621,0.128805606,0.010188087
0.013494482,0.005529863,0.128800437,0.010196436
0.013479861,0.005544097,0.128796294,0.010204788
0.013465305,0.005558323,0.128793173,0.010213142
0.013450817,0.00557254,0.12879107,0.0102215
0.013436396,0.005586747,0.128789983,0.010229862
0.013422043,0.005600945,0.128789909,0.010238228
0.013407758,0.005615133,0.128790843,0.010246599
0.013393541,0.00562931,0.128792783,0.010254974
0.013379394,0.005643477,0.128795725,0.010263353
0.013365317,0.005657632,0.128799664,0.010271737
0.01335131,0.005671774,0.128804597,0.010280125
0.013337373,0.005685904,0.12881052,0.010288519
0.013323508,0.005700021,0.128817428,0.010296917
0.013309713,0.005714124,0.128825317,0.010305319
0.013295991,0.005728213,0.128834181,0.010313725
0.01328234,0.005742287,0.128844017,0.010322135
0.013268762,0.005756346,0.12885482,0.010330548
0.013255255,0.005770391,0.128866586,0.010338964
0.013241822,0.005784419,0.128879311,0.010347382
0.013228461,0.005798432,0.128892991,0.010355802
0.013215173,0.005812429,0.128907623,0.010364222
0.013201957,0.005826408,0.128923204,0.010372643
0.013188815,0.005840371,0.12893973,0.010381063
0.013175747,0.005854317,0.1289572,0.010389483
0.013162753,0.005868245,0.128975612,0.010397902
0.013149833,0.005882156,0.128994963,0.010406319
0.013136988,0.005896049,0.129015251,0.010414733
0.013124218,0.005909924,0.129036475,0.010423146
0.013111523,0.005923781,0.129058632,0.010431555
0.013098903,0.00593762,0.129081722,0.010439962
0.01308636,0.005951441,0.129105743,0.010448367
0.013073892,0.005965244,0.129130694,0.010456769
0.0130615,0.005979028,0.129156572,0.010465168
0.013049184,0.005992793,0.129183376,0.010473566
0.013036945,0.00600654,0.129211105,0.010481961
0.013024783,0.006020269,0.129239758,0.010490355
0.013012698,0.006033979,0.129269332,0.010498746
0.013000689,0.006047671,0.129299826,0.010507136
0.012988758,0.006061344,0.129331239,0.010515524
0.012976904,0.006074999,0.12936357,0.01052391
0.012965128,0.006088635,0.129396817,0.010532295
0.012953429,0.006102253,0.12943098,0.010540677
0.012941808,0.006115853,0.129466056,0.010549057
0.012930265,0.006129436,0.129502044,0.010557433
0.0129188,0.006143001,0.129538943,0.010565807
0.012907413,0.00615655,0.12957675,0.010574177
0.012896106,0.006170083,0.129615463,0.010582543
0.012884877,0.006183599,0.12965508,0.010590907
0.012873727,0.0061971,0.129695599,0.010599267
0.012862657,0.006210584,0.129737017,0.010607625
0.012851668,0.006224053,0.129779332,0.010615979
0.012840759,0.006237506,0.129822541,0.01062433
0.012829931,0.006250943,0.129866641,0.010632678
0.012819184,0.006264364,0.129911627,0.010641022
0.012808519,0.00627777,0.129957498,0.010649362
0.012797935,0.00629116,0.130004248,0.010657697
0.012787434,0.006304534,0.130051873,0.010666027
0.012777015,0.006317891,0.130100369,0.010674352
0.012766679,0.006331233,0.130149732,0.010682673
0.012756426,0.006344558,0.130199956,0.010690991
0.012746257,0.006357866,0.130251036,0.010699305
0.012736171,0.006371157,0.130302966,0.010707616
0.012726169,0.006384431,0.130355742,0.010715925
0.012716251,0.006397687,0.130409357,0.010724232
0.012706419,0.006410925,0.130463807,0.010732536
0.012696671,0.006424145,0.130519085,0.010740837
0.012687008,0.006437346,0.130575187,0.010749137
0.012677431,0.006450529,0.130632107,0.010757434
0.012667939,0.006463692,0.130689839,0.010765729
0.012658533,0.006476835,0.130748377,0.010774022
0.012649213,0.006489958,0.130807716,0.010782314
0.012639979,0.00650306,0.13086785,0.010790604
0.012630831,0.006516142,0.130928773,0.010798892
0.012621771,0.006529201,0.130990479,0.010807178
0.012612797,0.006542238,0.131052962,0.010815463
0.012603911,0.006555252,0.131116216,0.010823745
0.012595111,0.006568243,0.131180236,0.010832026
0.012586399,0.00658121,0.131245016,0.010840304
0.012577774,0.006594152,0.131310551,0.010848581
0.012569237,0.00660707,0.131376838,0.010856857
0.012560788,0.006619962,0.131443873,0.010865133
0.012552426,0.006632829,0.131511651,0.010873411
0.012544154,0.006645669,0.131580172,0.010881692
0.01253597,0.006658483,0.131649432,0.010889978
0.012527877,0.006671269,0.131719429,0.01089827
0.012519873,0.006684027,0.13179016,0.010906567
0.01251196,0.006696757,0.131861623,0.010914872
0.012504137,0.006709458,0.131933814,0.010923186
0.012496406,0.006722129,0.132006732,0.010931507
0.012488766,0.00673477,0.132080373,0.010939838
0.012481218,0.006747381,0.132154734,0.010948178
0.012473761,0.006759961,0.132229813,0.010956527
0.012466396,0.006772509,0.132305605,0.010964887
0.012459124,0.006785026,0.132382109,0.010973256
0.012451944,0.006797511,0.132459321,0.010981635
0.012444857,0.006809963,0.132537238,0.010990023
0.012437864,0.006822383,0.132615859,0.010998422
0.012430964,0.00683477,0.132695181,0.01100683
0.012424158,0.006847125,0.132775201,0.011015248
0.012417448,0.006859446,0.132855917,0.011023677
0.012410833,0.006871734,0.132937327,0.011032116
0.012404315,0.006883988,0.133019429,0.011040565
0.012397892,0.006896208,0.133102219,0.011049025
0.012391566,0.006908394,0.133185695,0.011057494
0.012385337,0.006920546,0.133269853,0.011065974
0.012379205,0.006932664,0.133354691,0.011074463
0.01237317,0.006944747,0.133440206,0.011082961
0.012367233,0.006956796,0.133526392,0.011091469
0.012361394,0.006968811,0.133613246,0.011099984
0.012355652,0.00698079,0.133700765,0.011108507
0.012350008,0.006992736,0.133788943,0.011117038
0.012344462,0.007004647,0.133877777,0.011125575
0.012339014,0.007016524,0.133967262,0.011134119
0.012333664,0.007028367,0.134057394,0.011142669
0.012328412,0.007040177,0.134148167,0.011151224
0.012323258,0.007051953,0.134239577,0.011159785
0.012318202,0.007063696,0.134331617,0.011168353
0.012313244,0.007075406,0.134424282,0.011176926
0.012308385,0.007087082,0.134517566,0.011185506
0.012303624,0.007098725,0.134611463,0.011194092
0.012298963,0.007110335,0.134705966,0.011202686
0.0122944,0.007121911,0.13480107,0.011211287
0.012289937,0.007133453,0.134896768,0.011219895
0.012285572,0.007144962,0.134993054,0.011228511
0.012281306,0.007156436,0.135089923,0.011237134
0.01227714,0.007167876,0.135187367,0.011245765
0.012273072,0.007179281,0.135285382,0.011254402
0.012269104,0.007190651,0.135383959,0.011263046
0.012265234,0.007201985,0.135483095,0.011271695
0.012261463,0.007213284,0.135582781,0.01128035
0.012257791,0.007224547,0.135683011,0.011289009
0.012254219,0.007235773,0.13578378,0.011297674
0.012250746,0.007246962,0.135885079,0.011306343
0.012247374,0.007258114,0.135986903,0.011315017
0.012244102,0.007269227,0.136089243,0.011323695
0.012240931,0.007280302,0.136192094,0.011332378
0.012237861,0.007291338,0.136295447,0.011341064
0.012234893,0.007302335,0.136399295,0.011349754
0.012232026,0.007313293,0.136503631,0.011358447
0.01222926,0.007324211,0.136608447,0.011367143
0.012226595,0.007335091,0.136713735,0.01137584
0.012224032,0.007345931,0.136819487,0.011384539
0.01222157,0.007356732,0.136925696,0.011393239
0.012219209,0.007367493,0.137032353,0.011401939
0.012216949,0.007378215,0.137139451,0.011410639
0.012214789,0.007388897,0.137246982,0.011419339
0.012212729,0.007399539,0.137354937,0.011428038
0.012210769,0.007410142,0.137463309,0.011436736
0.012208908,0.007420704,0.137572089,0.011445433
0.012207145,0.007431226,0.137681269,0.011454127
0.01220548,0.007441707,0.13779084,0.011462818
0.012203913,0.007452148,0.137900794,0.011471505
0.012202442,0.007462548,0.138011123,0.011480188
0.012201068,0.007472907,0.138121818,0.011488867
0.01219979,0.007483223,0.138232872,0.01149754
0.012198608,0.007493498,0.138344276,0.011506207
0.012197521,0.007503731,0.138456023,0.011514868
0.012196528,0.00751392,0.138568104,0.011523522
0.01219563,0.007524066,0.138680512,0.011532171
0.012194826,0.007534169,0.138793237,0.011540813
0.012194116,0.007544228,0.138906272,0.011549452
0.012193498,0.007554243,0.139019609,0.011558087
0.012192973,0.007564214,0.139133238,0.01156672
0.01219254,0.007574141,0.139247151,0.011575351
0.012192198,0.007584023,0.13936134,0.011583983
0.012191946,0.007593861,0.139475797,0.011592615
0.012191785,0.007603653,0.139590511,0.011601249
0.012191712,0.007613401,0.139705474,0.011609887
0.012191729,0.007623104,0.139820677,0.01161853
0.012191833,0.007632763,0.139936111,0.01162718
0.012192024,0.007642377,0.140051767,0.011635839
0.012192303,0.007651947,0.140167636,0.011644509
0.012192667,0.007661473,0.140283709,0.011653192
0.012193118,0.007670955,0.140399978,0.011661891
0.012193653,0.007680394,0.140516438,0.011670606
0.012194273,0.007689789,0.140633079,0.011679339
0.012194977,0.007699141,0.140749898,0.011688093
0.012195766,0.007708451,0.140866887,0.011696869
0.012196638,0.007717719,0.140984044,0.011705667
0.012197594,0.007726946,0.141101362,0.01171449
0.012198634,0.007736132,0.141218839,0.011723338
0.012199757,0.007745279,0.141336468,0.011732213
0.012200963,0.007754386,0.141454246,0.011741114
0.012202253,0.007763453,0.141572169,0.011750044
0.012203625,0.007772482,0.14169023,0.011759003
0.012205079,0.007781472,0.141808425,0.011767992
0.012206616,0.007790424,0.141926749,0.011777011
0.012208234,0.007799338,0.142045196,0.01178606
0.012209935,0.007808214,0.142163763,0.011795142
0.012211716,0.007817053,0.142282442,0.011804255
0.01221358,0.007825856,0.14240123,0.0118134
0.012215524,0.007834623,0.14252012,0.011822579
0.01221755,0.007843355,0.142639109,0.011831791
0.012219657,0.007852051,0.14275819,0.011841037
0.012221844,0.007860713,0.14287736,0.011850317
0.012224112,0.00786934,0.142996613,0.011859633
0.01222646,0.007877933,0.143115945,0.011868984
0.012228888,0.007886491,0.143235349,0.01187837
0.012231396,0.007895016,0.143354821,0.011887791
0.012233983,0.007903507,0.143474356,0.011897248
0.012236651,0.007911964,0.14359395,0.011906741
0.012239398,0.007920388,0.143713596,0.011916268
0.012242225,0.007928779,0.14383329,0.011925831
0.012245131,0.007937136,0.143953028,0.011935429
0.012248116,0.00794546,0.144072803,0.011945061
0.012251181,0.007953751,0.144192611,0.01195473
0.012254324,0.007962008,0.144312446,0.011964433
0.012257546,0.007970233,0.144432305,0.011974172
0.012260846,0.007978425,0.144552183,0.011983947
0.012264224,0.007986585,0.144672076,0.011993757
0.01226768,0.007994713,0.144791982,0.012003602
0.012271215,0.00800281,0.144911898,0.012013484
0.012274828,0.008010876,0.145031823,0.012023401
0.01227852,0.008018911,0.145151756,0.012033354
0.012282291,0.008026916,0.145271694,0.012043342
0.012286141,0.00803489,0.145391637,0.012053366
0.01229007,0.008042835,0.145511583,0.012063426
0.012294079,0.00805075,0.145631529,0.01207352
0.012298169,0.008058635,0.145751475,0.01208365
0.012302338,0.008066491,0.145871418,0.012093813
0.012306589,0.008074319,0.145991356,0.012104011
0.01231092,0.008082118,0.146111289,0.012114242
0.012315332,0.008089888,0.146231216,0.012124505
0.012319826,0.00809763,0.146351135,0.012134801
0.012324401,0.008105345,0.146471047,0.012145128
0.012329057,0.008113033,0.146590952,0.012155486
0.012333794,0.008120693,0.146710848,0.012165875
0.012338612,0.008128328,0.146830738,0.012176296
0.012343511,0.008135936,0.14695062,0.012186746
0.012348492,0.008143518,0.147070495,0.012197227
0.012353553,0.008151075,0.147190363,0.012207738
0.012358694,0.008158606,0.147310224,0.012218278
0.012363915,0.008166113,0.147430079,0.012228847
0.012369217,0.008173595,0.147549928,0.012239444
0.012374598,0.008181053,0.14766977,0.012250069
0.012380058,0.008188488,0.147789605,0.01226072
0.012385597,0.0081959,0.147909433,0.012271398
0.012391216,0.008203288,0.148029253,0.0122821
0.012396913,0.008210654,0.148149065,0.012292828
0.012402688,0.008217998,0.148268868,0.012303579
0.012408542,0.00822532,0.148388662,0.012314354
0.012414474,0.00823262,0.148508446,0.012325151
0.012420485,0.008239898,0.148628218,0.012335971
0.012426573,0.008247155,0.148747978,0.012346813
0.012432738,0.00825439,0.148867723,0.012357675
0.012438982,0.008261605,0.148987452,0.012368558
0.012445302,0.0082688,0.149107164,0.01237946
0.012451699,0.008275976,0.149226855,0.012390381
0.012458173,0.008283132,0.149346525,0.012401321
0.012464723,0.008290268,0.14946617,0.012412279
0.012471349,0.008297387,0.149585788,0.012423255
0.012478049,0.008304486,0.149705378,0.012434249
0.012484825,0.008311567,0.149824937,0.012445264
0.012491675,0.00831863,0.149944466,0.012456298
0.012498598,0.008325674,0.150063961,0.012467354
0.012505595,0.0083327,0.150183422,0.012478433
0.012512665,0.008339709,0.150302847,0.012489534
0.012519807,0.008346701,0.150422237,0.01250066
0.01252702,0.008353677,0.15054159,0.01251181
0.012534306,0.008360637,0.150660906,0.012522985
0.012541663,0.008367582,0.150780184,0.012534185
0.012549091,0.008374512,0.150899426,0.012545411
0.01255659,0.008381429,0.151018629,0.012556663
0.012564161,0.008388332,0.151137793,0.012567942
0.012571802,0.008395223,0.151256919,0.012579248
0.012579514,0.008402101,0.151376004,0.01259058
0.012587296,0.008408967,0.15149505,0.012601941
0.012595148,0.008415821,0.151614056,0.012613328
0.012603069,0.008422665,0.151733021,0.012624744
0.01261106,0.008429499,0.151851948,0.012636187
0.012619119,0.008436323,0.151970837,0.012647657
0.012627247,0.008443139,0.152089688,0.012659155
0.012635442,0.008449946,0.152208503,0.012670681
0.012643705,0.008456746,0.152327282,0.012682235
0.012652036,0.008463538,0.152446028,0.012693817
0.012660434,0.008470324,0.152564741,0.012705428
0.012668899,0.008477103,0.15268342,0.012717071
0.012677431,0.008483877,0.152802067,0.012728746
0.01268603,0.008490644,0.152920682,0.012740456
0.012694696,0.008497407,0.153039264,0.012752202
0.012703428,0.008504164,0.153157814,0.012763987
0.012712227,0.008510917,0.153276331,0.012775813
0.012721092,0.008517666,0.153394814,0.012787682
0.012730022,0.00852441,0.153513263,0.012799595
0.012739017,0.008531151,0.153631677,0.012811555
0.012748078,0.008537887,0.153750055,0.012823561
0.012757203,0.008544621,0.153868396,0.012835617
0.012766391,0.008551351,0.153986698,0.012847722
0.012775643,0.008558077,0.15410496,0.012859878
0.012784959,0.0085648,0.154223181,0.012872086
0.012794336,0.008571519,0.154341361,0.012884346
0.012803776,0.008578235,0.154459498,0.012896661
0.012813277,0.008584948,0.154577591,0.012909031
0.01282284,0.008591657,0.154695639,0.012921456
0.012832463,0.008598363,0.154813642,0.012933938
0.012842146,0.008605065,0.154931598,0.012946478
0.012851888,0.008611763,0.155049509,0.012959077
0.01286169,0.008618457,0.155167373,0.012971735
0.012871552,0.008625148,0.155285192,0.012984453
0.012881472,0.008631836,0.155402966,0.012997233
0.01289145,0.008638522,0.155520694,0.013010075
0.012901486,0.008645206,0.155638376,0.013022979
0.01291158,0.008651889,0.155756013,0.013035945
0.01292173,0.008658572,0.155873603,0.013048975
0.012931936,0.008665255,0.155991146,0.013062067
0.012942198,0.008671938,0.156108642,0.013075222
0.012952515,0.008678623,0.156226089,0.013088442
0.012962887,0.00868531,0.156343487,0.013101725
0.012973313,0.008691999,0.156460835,0.013115073
0.012983793,0.008698691,0.156578131,0.013128486
0.012994327,0.008705385,0.156695374,0.013141964
0.013004914,0.008712082,0.156812562,0.013155507
0.013015553,0.008718782,0.156929692,0.013169115
0.013026245,0.008725485,0.157046763,0.013182787
0.013036987,0.008732191,0.157163773,0.013196524
0.013047781,0.0087389,0.15728072,0.013210326
0.013058625,0.008745612,0.157397601,0.013224191
0.013069519,0.008752328,0.157514414,0.01323812
0.013080463,0.008759048,0.157631155,0.013252111
0.013091456,0.008765773,0.157747823,0.013266165
0.013102499,0.008772504,0.157864413,0.013280281
0.013113592,0.008779241,0.157980922,0.013294458
0.013124736,0.008785986,0.158097347,0.013308696
0.013135929,0.00879274,0.158213684,0.013322994
0.013147172,0.008799502,0.15832993,0.013337352
0.013158465,0.008806275,0.158446082,0.01335177
0.013169808,0.008813058,0.158562136,0.013366247
0.013181202,0.008819853,0.158678087,0.013380782
0.013192645,0.00882666,0.158793932,0.013395374
0.013204138,0.008833479,0.158909667,0.013410023
0.01321568,0.008840313,0.159025286,0.013424729
0.013227272,0.008847161,0.159140786,0.013439489
0.013238914,0.008854024,0.159256161,0.013454305
0.013250604,0.008860903,0.159371409,0.013469174
0.013262342,0.008867798,0.159486524,0.013484096
0.013274128,0.008874711,0.159601502,0.013499072
0.013285962,0.008881642,0.159716338,0.0135141
0.013297843,0.00888859,0.159831027,0.013529182
0.01330977,0.008895558,0.159945566,0.013544318
0.013321743,0.008902544,0.16005995,0.01355951
0.013333762,0.008909549,0.160174176,0.013574757
0.013345826,0.008916574,0.160288239,0.013590062
0.013357935,0.008923618,0.160402137,0.013605425
0.013370088,0.008930683,0.160515868,0.013620846
0.013382285,0.008937768,0.160629428,0.013636326
0.013394525,0.008944874,0.160742815,0.013651867
0.013406807,0.008952002,0.160856027,0.013667468
0.013419132,0.008959152,0.160969059,0.013683129
0.013431498,0.008966325,0.161081909,0.013698851
0.013443906,0.008973521,0.161194573,0.013714633
0.013456353,0.008980741,0.161307048,0.013730475
0.013468841,0.008987985,0.161419329,0.013746378
0.013481368,0.008995254,0.161531413,0.01376234
0.013493934,0.009002549,0.161643296,0.013778361
0.013506538,0.009009869,0.161754972,0.01379444
0.01351918,0.009017215,0.161866438,0.013810578
0.013531859,0.009024587,0.161977689,0.013826774
0.013544573,0.009031986,0.162088721,0.013843026
0.013557324,0.009039411,0.162199529,0.013859335
0.013570109,0.009046862,0.162310108,0.013875699
0.013582928,0.009054341,0.162420454,0.01389212
0.013595781,0.009061847,0.162530562,0.013908595
0.013608667,0.009069379,0.162640428,0.013925124
0.013621584,0.009076939,0.162750047,0.013941707
0.013634533,0.009084526,0.162859415,0.013958343
0.013647511,0.00909214,0.162968526,0.013975032
0.01366052,0.009099782,0.163077377,0.013991772
0.013673557,0.009107451,0.163185963,0.014008563
0.013686622,0.009115147,0.163294281,0.014025405
0.013699713,0.00912287,0.163402328,0.014042297
0.013712831,0.009130621,0.163510101,0.014059238
0.013725974,0.009138399,0.163617596,0.014076229
0.013739142,0.009146205,0.163724812,0.014093268
0.013752334,0.009154037,0.163831746,0.014110355
0.013765549,0.009161897,0.163938395,0.014127488
0.013778786,0.009169783,0.164044758,0.014144668
0.013792046,0.009177695,0.164150831,0.014161892
0.013805327,0.009185634,0.164256613,0.014179161
0.013818628,0.009193598,0.1643621,0.014196472
0.013831949,0.009201589,0.164467291,0.014213825
0.013845289,0.009209605,0.164572183,0.01423122
0.013858647,0.009217647,0.164676774,0.014248654
0.013872024,0.009225714,0.164781063,0.014266128
0.013885417,0.009233807,0.164885048,0.01428364
0.013898827,0.009241924,0.164988728,0.014301189
0.013912254,0.009250066,0.165092102,0.014318776
0.013925697,0.009258233,0.165195169,0.014336398
0.013939157,0.009266424,0.165297928,0.014354056
0.013952632,0.00927464,0.165400379,0.01437175
0.013966124,0.009282879,0.165502519,0.014389478
0.013979633,0.009291143,0.165604348,0.014407243
0.013993157,0.009299429,0.165705865,0.014425044
0.014006698,0.009307738,0.165807067,0.014442882
0.014020254,0.009316069,0.165907952,0.014460757
0.014033827,0.009324422,0.166008519,0.014478669
0.014047414,0.009332795,0.166108767,0.014496618
0.014061017,0.009341189,0.166208692,0.014514604
0.014074635,0.009349603,0.166308294,0.014532627
0.014088268,0.009358035,0.166407569,0.014550687
0.014101914,0.009366485,0.166506516,0.014568783
0.014115574,0.009374953,0.166605131,0.014586914
0.014129246,0.009383438,0.166703413,0.01460508
0.014142932,0.00939194,0.166801359,0.014623281
0.014156629,0.009400458,0.166898967,0.014641515
0.014170338,0.009408993,0.166996234,0.014659781
0.014184057,0.009417544,0.167093158,0.014678079
0.014197787,0.00942611,0.167189737,0.014696408
0.014211525,0.009434692,0.16728597,0.014714768
0.014225273,0.009443289,0.167381855,0.014733158
0.014239028,0.009451901,0.167477391,0.014751579
0.01425279,0.009460528,0.167572576,0.014770033
0.014266559,0.009469168,0.167667411,0.014788518
0.014280334,0.009477823,0.167761893,0.014807037
0.014294114,0.009486491,0.167856021,0.01482559
0.014307898,0.009495173,0.167949793,0.014844177
0.014321685,0.009503867,0.16804321,0.014862798
0.014335475,0.009512575,0.168136268,0.014881453
0.014349266,0.009521295,0.168228966,0.014900142
0.014363057,0.009530026,0.168321302,0.014918864
0.014376849,0.00953877,0.168413273,0.014937619
0.014390638,0.009547524,0.168504879,0.014956405
0.014404426,0.009556289,0.168596117,0.014975224
0.01441821,0.009565064,0.168686986,0.014994073
0.014431989,0.009573849,0.168777483,0.015012953
0.014445763,0.009582644,0.168867608,0.015031862
0.014459531,0.009591448,0.168957357,0.0150508
0.014473291,0.009600262,0.16904673,0.015069766
0.014487042,0.009609086,0.169135724,0.015088759
0.014500784,0.009617918,0.169224336,0.015107779
0.014514516,0.00962676,0.169312563,0.015126824
0.014528236,0.00963561,0.169400405,0.015145894
0.014541944,0.009644468,0.169487856,0.015164988
0.014555637,0.009653334,0.169574915,0.015184105
0.014569316,0.009662207,0.169661579,0.015203245
0.014582979,0.009671086,0.169747845,0.015222405
0.014596624,0.009679972,0.169833712,0.015241585
0.014610251,0.009688863,0.169919176,0.015260784
0.014623857,0.009697759,0.170004238,0.015280001
0.014637443,0.009706659,0.170088895,0.015299235
0.014651007,0.009715562,0.170173148,0.015318486
0.014664548,0.009724469,0.170256998,0.015337752
0.014678065,0.009733377,0.170340444,0.015357032
0.014691558,0.009742287,0.170423489,0.015376327
0.014705026,0.009751198,0.170506133,0.015395633
0.014718468,0.00976011,0.170588378,0.015414951
0.014731883,0.009769021,0.170670225,0.015434278
0.01474527,0.009777931,0.170751674,0.015453615
0.014758629,0.00978684,0.170832727,0.015472959
0.014771959,0.009795747,0.170913386,0.015492309
0.014785259,0.00980465,0.170993651,0.015511664
0.014798528,0.00981355,0.171073523,0.015531024
0.014811766,0.009822446,0.171153003,0.015550387
0.014824972,0.009831337,0.171232091,0.015569752
0.014838146,0.009840222,0.171310788,0.015589118
0.014851287,0.009849101,0.171389093,0.015608485
0.014864393,0.009857973,0.171467006,0.015627851
