processed_ch1,processed_ch2,processed_ch3,processed_ch4
0.172199355,0.169306163,0.106639831,0.139688812
0.172216949,0.169252949,0.106600773,0.139669176
0.172235605,0.169199889,0.106562455,0.139649667
0.172255323,0.169146979,0.106524878,0.139630291
0.172276102,0.169094218,0.106488043,0.13961105
0.172297943,0.169041603,0.106451953,0.139591947
0.172320846,0.168989131,0.106416608,0.139572984
0.172344809,0.1689368,0.10638201,0.139554162
0.172369833,0.168884608,0.106348159,0.139535486
0.172395916,0.168832552,0.106315058,0.139516956
0.172423058,0.168780631,0.106282705,0.139498575
0.172451259,0.168728841,0.106251103,0.139480346
0.172480516,0.16867718,0.106220253,0.139462271
0.172510831,0.168625647,0.106190155,0.139444354
0.172542203,0.168574237,0.106160811,0.139426598
0.172574633,0.168522949,0.106132221,0.139409005
0.17260812,0.168471779,0.106104388,0.139391577
0.172642665,0.168420724,0.106077315,0.139374319
0.172678268,0.168369781,0.106051006,0.139357231
0.172714928,0.168318947,0.106025463,0.139340316
0.172752647,0.168268218,0.10600069,0.139323576
0.172791425,0.168217589,0.10597669,0.139307013
0.172831262,0.168167058,0.105953467,0.139290628
0.172872158,0.168116619,0.105931024,0.139274422
0.172914113,0.168066269,0.105909366,0.139258395
0.172957128,0.168016003,0.105888494,0.139242548
0.173001201,0.167965817,0.105868414,0.139226881
0.173046332,0.167915707,0.105849129,0.139211394
0.17309252,0.167865671,0.105830642,0.139196087
0.173139762,0.167815704,0.105812955,0.139180959
0.173188058,0.167765805,0.105796072,0.139166009
0.173237405,0.167715972,0.105779995,0.139151239
0.173287801,0.167666201,0.105764727,0.139136647
0.173339243,0.167616492,0.10575027,0.139122234
0.17339173,0.167566843,0.105736626,0.139108
0.17344526,0.167517252,0.105723798,0.139093943
0.173499832,0.167467717,0.105711789,0.139080065
0.173555444,0.167418236,0.105700602,0.139066365
0.173612095,0.167368807,0.105690239,0.139052842
0.173669783,0.16731943,0.105680704,0.139039497
0.173728508,0.167270101,0.105672,0.139026331
0.17378827,0.167220819,0.105664128,0.139013343
0.173849065,0.167171582,0.105657091,0.139000533
0.173910894,0.167122388,0.105650891,0.138987901
0.173973754,0.167073234,0.105645529,0.138975446
0.174037643,0.167024119,0.105641008,0.138963168
0.174102559,0.166975039,0.105637327,0.138951067
0.174168502,0.166925992,0.10563449,0.138939142
0.174235471,0.166876975,0.105632497,0.138927392
0.174303464,0.166827985,0.105631352,0.138915816
0.174372481,0.166779019,0.105631056,0.138904415
0.174442521,0.166730074,0.105631614,0.138893186
0.174513585,0.166681145,0.105633028,0.13888213
0.174585671,0.16663223,0.105635303,0.138871245
0.174658782,0.166583325,0.105638444,0.138860533
0.174732915,0.166534426,0.105642457,0.138849993
0.174808071,0.16648553,0.105647347,0.138839625
0.17488425,0.166436635,0.105653119,0.138829432
0.174961452,0.166387738,0.105659779,0.138819413
0.175039677,0.166338836,0.105667333,0.138809569
0.175118924,0.166289927,0.105675785,0.1387999
0.175199193,0.166241009,0.105685141,0.138790408
0.175280483,0.166192081,0.105695405,0.138781091
0.175362793,0.16614314,0.105706583,0.138771951
0.175446121,0.166094187,0.10571868,0.138762988
0.175530466,0.16604522,0.105731699,0.138754203
0.175615825,0.165996239,0.105745646,0.138745598
0.175702197,0.165947243,0.105760526,0.138737173
0.175789578,0.165898233,0.105776343,0.138728931
0.175877965,0.165849207,0.1057931,0.138720871
0.175967354,0.165800167,0.105810803,0.138712994
0.176057742,0.16575111,0.105829455,0.138705303
0.176149125,0.165702039,0.105849059,0.138697797
0.176241498,0.165652954,0.105869618,0.138690477
0.17633486,0.165603858,0.105891136,0.138683344
0.176429206,0.165554753,0.105913615,0.138676399
0.176524534,0.165505642,0.105937058,0.138669643
0.176620843,0.165456528,0.105961467,0.138663078
0.176718129,0.165407413,0.105986845,0.138656704
0.176816393,0.1653583,0.106013195,0.138650522
0.176915632,0.165309192,0.106040517,0.138644533
0.177015844,0.165260092,0.106068815,0.138638738
0.177117027,0.165211003,0.106098089,0.138633137
0.177219181,0.165161928,0.106128341,0.138627729
0.177322302,0.165112871,0.106159573,0.138622514
0.177426388,0.165063834,0.106191785,0.138617492
0.177531437,0.165014822,0.106224977,0.13861266
0.177637448,0.164965836,0.106259151,0.138608019
0.177744418,0.164916879,0.106294306,0.138603569
0.177852345,0.164867954,0.106330443,0.138599311
0.177961227,0.164819063,0.106367561,0.138595246
0.17807106,0.164770209,0.106405661,0.138591376
0.178181843,0.164721395,0.10644474,0.138587699
0.178293573,0.164672623,0.106484799,0.138584219
0.178406246,0.164623898,0.106525836,0.138580934
0.178519859,0.164575222,0.106567852,0.138577846
0.17863441,0.164526599,0.106610845,0.138574956
0.178749896,0.164478033,0.106654815,0.138572264
0.178866313,0.164429529,0.106699762,0.13856977
0.17898366,0.16438109,0.106745684,0.138567475
0.179101932,0.164332721,0.106792582,0.138565379
0.179221127,0.164284426,0.106840456,0.138563483
0.179341241,0.164236209,0.106889305,0.138561787
0.179462271,0.164188073,0.106939127,0.138560291
0.179584212,0.164140022,0.106989923,0.138558996
0.17970706,0.16409206,0.107041691,0.138557903
0.179830812,0.164044189,0.107094431,0.138557012
0.179955463,0.163996412,0.107148142,0.138556325
0.180081011,0.163948731,0.107202822,0.138555841
0.180207452,0.163901151,0.107258471,0.13855556
0.180334783,0.163853672,0.107315087,0.138555483
0.180463001,0.163806299,0.10737267,0.138555608
0.180592104,0.163759034,0.107431217,0.138555936
0.180722088,0.163711882,0.107490729,0.138556466
0.180852949,0.163664844,0.107551203,0.138557197
0.180984684,0.163617925,0.107612639,0.138558127
0.181117289,0.163571126,0.107675033,0.138559256
0.181250761,0.163524451,0.107738386,0.138560583
0.181385093,0.163477902,0.107802694,0.138562105
0.181520282,0.16343148,0.107867955,0.138563822
0.181656322,0.163385188,0.107934168,0.138565732
0.181793208,0.163339026,0.108001328,0.138567832
0.181930934,0.163292997,0.108069432,0.138570123
0.182069494,0.163247102,0.108138479,0.138572601
0.182208884,0.163201341,0.108208463,0.138575266
0.182349095,0.163155715,0.108279383,0.138578114
0.182490123,0.163110226,0.108351234,0.138581143
0.182631959,0.163064873,0.108424012,0.138584351
0.182774598,0.163019658,0.108497715,0.138587735
0.182918033,0.16297458,0.108572337,0.138591292
0.183062257,0.162929639,0.108647876,0.138595018
0.183207264,0.162884835,0.108724326,0.13859891
0.183353048,0.162840167,0.108801685,0.138602965
0.183499602,0.162795633,0.108879947,0.13860718
0.183646921,0.162751234,0.10895911,0.138611551
0.183795001,0.162706966,0.109039168,0.138616077
0.183943838,0.16266283,0.109120119,0.138620756
0.184093427,0.162618822,0.109201958,0.138625585
0.184243765,0.16257494,0.109284682,0.138630561
0.18439485,0.162531184,0.109368286,0.138635683
0.184546678,0.162487549,0.109452767,0.138640947
0.18469925,0.162444035,0.109538121,0.138646349
0.184852566,0.16240064,0.109624344,0.138651885
0.185006625,0.162357361,0.109711431,0.138657552
0.18516143,0.162314197,0.10979938,0.138663344
0.185316983,0.162271148,0.109888184,0.13866926
0.185473287,0.16222821,0.109977841,0.138675293
0.185630343,0.162185383,0.110068345,0.138681442
0.185788153,0.162142664,0.110159693,0.138687701
0.18594672,0.162100054,0.110251879,0.138694067
0.186106046,0.162057549,0.110344898,0.138700538
0.186266132,0.162015148,0.110438746,0.138707108
0.18642698,0.161972851,0.110533419,0.138713774
0.18658859,0.161930654,0.110628912,0.138720532
0.186750965,0.161888557,0.110725218,0.138727378
0.186914102,0.161846556,0.110822334,0.138734309
0.187078004,0.161804649,0.110920254,0.13874132
0.187242669,0.161762836,0.111018973,0.138748407
0.187408096,0.161721112,0.111118484,0.138755568
0.187574284,0.161679477,0.111218781,0.138762796
0.187741233,0.161637927,0.11131986,0.13877009
0.18790894,0.16159646,0.111421715,0.138777447
0.188077404,0.161555073,0.111524339,0.138784863
0.188246624,0.161513763,0.111627728,0.138792337
0.188416598,0.161472528,0.111731877,0.138799869
0.188587324,0.161431364,0.111836781,0.138807458
0.1887588,0.161390269,0.111942435,0.138815103
0.188931025,0.161349243,0.112048834,0.138822804
0.189103996,0.161308283,0.112155974,0.13883056
0.18927771,0.161267389,0.112263848,0.138838373
0.189452163,0.161226563,0.112372452,0.138846243
0.189627354,0.161185803,0.112481779,0.138854173
0.189803277,0.161145111,0.112591824,0.138862164
0.189979929,0.161104486,0.112702581,0.138870217
0.190157307,0.16106393,0.112814044,0.138878337
0.190335406,0.161023443,0.112926208,0.138886525
0.190514223,0.160983028,0.113039065,0.138894783
0.190693752,0.160942685,0.113152611,0.138903114
0.190873991,0.160902417,0.113266837,0.138911519
0.191054933,0.160862225,0.113381738,0.138920001
0.191236574,0.160822111,0.113497307,0.13892856
0.191418909,0.16078208,0.113613538,0.1389372
0.191601932,0.160742134,0.113730423,0.138945921
0.191785639,0.160702276,0.113847956,0.138954727
0.191970023,0.160662511,0.11396613,0.13896362
0.192155079,0.160622841,0.114084939,0.138972601
0.1923408,0.16058327,0.114204375,0.138981672
0.192527179,0.1605438,0.114324431,0.138990834
0.192714211,0.160504435,0.114445101,0.13900009
0.192901888,0.16046518,0.114566378,0.139009441
0.193090202,0.160426039,0.114688253,0.139018891
0.193279147,0.160387013,0.114810722,0.139028445
0.193468716,0.160348107,0.114933778,0.139038109
0.193658899,0.160309324,0.115057415,0.139047887
0.19384969,0.160270665,0.115181627,0.139057787
0.194041081,0.160232133,0.115306409,0.139067813
0.194233064,0.16019373,0.115431757,0.139077972
0.194425631,0.160155458,0.115557665,0.13908827
0.194618777,0.160117318,0.11568413,0.139098713
0.194812492,0.160079312,0.115811147,0.139109306
0.195006771,0.16004144,0.115938712,0.139120055
0.195201607,0.160003706,0.116066819,0.139130963
0.195396994,0.159966109,0.116195465,0.139142037
0.195592925,0.159928652,0.116324644,0.13915328
0.195789394,0.159891335,0.116454352,0.139164697
0.195986396,0.15985416,0.116584583,0.139176293
0.196183926,0.159817128,0.116715331,0.139188072
0.196381978,0.15978024,0.116846592,0.139200039
0.196580548,0.159743501,0.116978359,0.139212199
0.19677963,0.15970691,0.117110629,0.139224556
0.196979219,0.15967047,0.117243395,0.139237116
0.19717931,0.159634184,0.117376653,0.139249881
0.197379898,0.159598052,0.117510398,0.139262857
0.197580977,0.159562077,0.117644624,0.139276048
0.197782541,0.159526262,0.117779327,0.139289459
0.197984585,0.159490609,0.117914501,0.139303092
0.198187104,0.159455121,0.118050142,0.139316952
0.198390091,0.159419802,0.118186243,0.139331044
0.198593542,0.159384655,0.118322802,0.139345371
0.19879745,0.159349683,0.118459814,0.139359938
0.199001811,0.159314889,0.118597274,0.139374752
0.199206617,0.159280276,0.118735178,0.139389819
0.199411865,0.159245847,0.118873521,0.139405144
0.199617547,0.159211606,0.119012299,0.139420734
0.199823659,0.159177556,0.119151505,0.139436595
0.200030194,0.159143698,0.119291135,0.13945273
0.200237148,0.159110037,0.119431184,0.139469146
0.200444514,0.159076575,0.119571648,0.139485846
0.200652285,0.159043315,0.11971252,0.139502836
0.200860457,0.15901026,0.119853798,0.139520119
0.201069023,0.158977414,0.119995476,0.1395377
0.201277977,0.158944779,0.12013755,0.139555583
0.201487314,0.158912359,0.120280014,0.139573771
0.201697028,0.158880155,0.120422864,0.139592267
0.201907112,0.15884817,0.120566094,0.139611075
0.202117562,0.158816408,0.120709701,0.139630199
0.20232837,0.15878487,0.120853678,0.139649643
0.202539531,0.15875356,0.120998021,0.13966941
0.202751036,0.158722479,0.121142724,0.139689505
0.20296288,0.15869163,0.121287781,0.139709931
0.203175054,0.158661016,0.121433187,0.139730692
0.203387552,0.158630639,0.121578937,0.139751792
0.203600365,0.158600501,0.121725025,0.139773235
0.203813486,0.158570603,0.121871446,0.139795024
0.204026906,0.158540947,0.122018195,0.139817163
0.204240618,0.158511533,0.122165267,0.139839657
0.204454614,0.158482364,0.122312657,0.139862508
0.204668884,0.158453438,0.122460359,0.13988572
0.204883421,0.158424757,0.122608368,0.139909295
0.205098215,0.15839632,0.12275668,0.139933235
0.20531326,0.158368129,0.122905287,0.139957542
0.205528548,0.158340181,0.123054186,0.139982219
0.205744071,0.158312478,0.123203369,0.140007267
0.205959822,0.15828502,0.123352833,0.140032689
0.206175794,0.158257807,0.123502572,0.140058485
0.20639198,0.158230839,0.123652581,0.14008466
0.206608376,0.158204116,0.123802857,0.140111216
0.206824976,0.158177638,0.123953396,0.140138155
0.207041773,0.158151405,0.124104195,0.140165481
0.207258764,0.158125417,0.12425525,0.140193195
0.207475942,0.158099675,0.124406558,0.140221299
0.207693302,0.158074179,0.124558117,0.140249795
0.20791084,0.158048928,0.124709922,0.140278685
0.20812855,0.158023925,0.124861971,0.14030797
0.208346426,0.157999167,0.12501426,0.14033765
0.208564464,0.157974656,0.125166785,0.140367727
0.208782658,0.157950391,0.125319545,0.140398201
0.209001001,0.157926373,0.125472535,0.140429074
0.209219489,0.157902603,0.125625753,0.140460348
0.209438115,0.15787908,0.125779196,0.140492026
0.209656873,0.157855807,0.125932861,0.140524108
0.209875758,0.157832784,0.126086746,0.140556597
0.210094763,0.157810014,0.126240846,0.140589494
0.210313883,0.157787499,0.12639516,0.140622801
0.21053311,0.157765241,0.126549684,0.140656517
0.210752439,0.157743242,0.126704414,0.140690645
0.210971863,0.157721507,0.126859348,0.140725182
0.211191377,0.157700035,0.127014483,0.140760131
0.211410975,0.15767883,0.127169814,0.140795489
0.211630653,0.157657894,0.127325339,0.140831257
0.211850405,0.157637228,0.127481054,0.140867433
0.212070226,0.157616834,0.127636956,0.140904016
0.212290112,0.157596714,0.12779304,0.140941006
0.212510056,0.15757687,0.127949304,0.140978401
0.212730053,0.157557304,0.128105743,0.141016199
0.212950096,0.157538016,0.128262353,0.141054401
0.21317018,0.157519008,0.128419128,0.141093002
0.213390296,0.157500284,0.128576066,0.141132002
0.213610439,0.157481846,0.12873316,0.141171399
0.213830602,0.157463696,0.128890407,0.14121119
0.214050777,0.157445837,0.129047803,0.141251374
0.214270958,0.157428273,0.129205342,0.141291949
0.214491136,0.157411007,0.129363021,0.141332912
0.214711306,0.157394044,0.129520835,0.141374261
0.21493146,0.157377386,0.129678779,0.141415994
0.215151591,0.157361038,0.129836849,0.141458108
0.215371695,0.157345003,0.129995041,0.141500601
0.215591764,0.157329286,0.130153351,0.141543469
0.215811795,0.157313891,0.130311775,0.14158671
0.216031783,0.157298821,0.130470311,0.14163032
0.216251724,0.157284081,0.130628955,0.141674297
0.216471617,0.157269674,0.130787707,0.141718638
0.216691462,0.157255605,0.130946563,0.141763342
0.216911257,0.157241878,0.131105521,0.141808406
0.217131001,0.157228498,0.131264579,0.14185383
0.217350694,0.157215468,0.131423735,0.141899611
0.217570336,0.157202794,0.131582985,0.141945747
0.217789924,0.15719048,0.131742327,0.141992237
0.218009459,0.157178529,0.131901758,0.142039079
0.218228938,0.157166946,0.132061276,0.142086271
0.218448361,0.157155734,0.132220877,0.142133812
0.218667724,0.157144898,0.132380558,0.142181698
0.218887025,0.157134443,0.132540317,0.142229928
0.219106261,0.157124371,0.13270015,0.142278499
0.21932543,0.157114687,0.132860054,0.14232741
0.219544528,0.157105394,0.133020026,0.142376659
0.219763552,0.157096496,0.133180062,0.142426243
0.219982498,0.157087996,0.133340159,0.142476163
0.220201364,0.157079897,0.133500314,0.142526415
0.220420144,0.157072203,0.133660523,0.142577
0.220638835,0.157064916,0.133820785,0.142627915
0.220857431,0.157058039,0.133981095,0.142679158
0.221075929,0.157051572,0.134141452,0.142730727
0.221294322,0.15704552,0.134301854,0.142782622
0.221512606,0.157039882,0.134462298,0.142834839
0.221730774,0.157034661,0.134622782,0.142887377
0.22194882,0.15702986,0.134783305,0.142940233
0.222166739,0.157025479,0.134943864,0.142993405
0.222384523,0.15702152,0.135104457,0.143046889
0.222602167,0.157017987,0.13526508,0.143100685
0.222819663,0.15701488,0.135425731,0.143154788
0.223037005,0.157012201,0.135586407,0.143209199
0.223254183,0.15700995,0.135747106,0.143263915
0.223471192,0.15700813,0.135907824,0.143318935
0.223688024,0.15700674,0.136068559,0.143374256
0.223904672,0.157005781,0.13622931,0.143429876
0.224121129,0.157005253,0.136390072,0.143485791
0.224337387,0.157005156,0.136550844,0.143542
0.224553441,0.157005489,0.136711623,0.143598498
0.224769282,0.157006254,0.136872407,0.143655283
0.224984905,0.15700745,0.137033193,0.143712353
0.225200303,0.157009075,0.137193979,0.143769705
0.22541547,0.157011131,0.137354762,0.14382734
0.225630401,0.157013616,0.13751554,0.143885255
0.225845088,0.15701653,0.13767631,0.143943452
0.226059527,0.157019872,0.13783707,0.144001933
0.226273712,0.15702364,0.137997817,0.144060697
0.226487636,0.157027835,0.138158549,0.144119746
0.226701294,0.157032453,0.138319265,0.144179082
0.226914679,0.157037495,0.138479962,0.144238708
0.227127785,0.157042959,0.138640638,0.144298629
0.227340605,0.157048842,0.138801293,0.144358851
0.227553134,0.157055144,0.138961925,0.144419383
0.227765363,0.157061862,0.139122533,0.144480231
0.227977288,0.157068995,0.139283114,0.144541406
0.2281889,0.157076541,0.139443667,0.144602915
0.228400195,0.1570845,0.139604191,0.14466477
0.228611163,0.157092872,0.139764684,0.144726977
0.228821798,0.157101658,0.139925144,0.144789547
0.229032092,0.157110858,0.140085568,0.144852487
0.229242037,0.157120473,0.140245954,0.144915805
0.229451625,0.157130504,0.1404063,0.144979509
0.229660847,0.157140954,0.140566603,0.145043606
0.229869697,0.157151822,0.140726859,0.145108104
0.230078165,0.157163112,0.140887066,0.14517301
0.230286242,0.157174824,0.14104722,0.145238329
0.230493922,0.157186962,0.141207317,0.145304069
0.230701195,0.157199526,0.141367355,0.145370234
0.230908054,0.157212519,0.141527329,0.145436832
0.23111449,0.157225945,0.141687235,0.145503868
0.231320497,0.157239804,0.14184707,0.145571348
0.231526068,0.157254099,0.142006829,0.145639276
0.231731194,0.157268832,0.142166508,0.145707658
0.23193587,0.157284004,0.142326104,0.145776498
0.232140089,0.157299618,0.142485611,0.1458458
0.232343844,0.157315673,0.142645026,0.145915568
0.232547129,0.157332172,0.142804342,0.145985807
0.232749939,0.157349114,0.142963556,0.14605652
0.232952268,0.1573665,0.143122663,0.146127711
0.233154111,0.15738433,0.143281656,0.146199383
0.233355465,0.157402605,0.14344053,0.146271539
0.233556324,0.157421322,0.143599281,0.14634418
0.233756685,0.157440481,0.143757902,0.146417308
0.233956543,0.157460081,0.143916387,0.146490926
0.234155894,0.15748012,0.144074731,0.146565035
0.234354733,0.157500597,0.144232928,0.146639633
0.234553057,0.15752151,0.144390972,0.146714723
0.234750862,0.157542856,0.144548857,0.146790303
0.234948144,0.157564637,0.144706576,0.146866374
0.235144902,0.15758685,0.144864123,0.146942935
0.235341133,0.157609497,0.145021492,0.147019985
0.235536835,0.157632578,0.145178676,0.147097524
0.235732008,0.157656094,0.145335669,0.147175551
0.235926652,0.157680047,0.145492465,0.147254065
0.236120767,0.157704439,0.145649058,0.147333065
0.236314354,0.157729273,0.14580544,0.147412549
0.236507414,0.15775455,0.145961605,0.147492515
0.236699948,0.157780272,0.146117547,0.147572961
0.236891959,0.157806441,0.146273261,0.147653884
0.237083449,0.157833057,0.146428738,0.147735281
0.237274419,0.157860121,0.146583973,0.147817149
0.237464872,0.157887637,0.14673896,0.147899485
0.237654809,0.157915605,0.14689369,0.147982284
0.237844232,0.157944027,0.147048158,0.148065541
0.238033142,0.157972907,0.147202357,0.148149253
0.238221539,0.158002248,0.14735628,0.148233415
0.238409424,0.158032052,0.147509919,0.148318023
0.238596797,0.158062322,0.14766327,0.148403072
0.238783658,0.158093064,0.147816327,0.148488559
0.238970009,0.158124279,0.147969082,0.14857448
0.239155848,0.15815597,0.148121531,0.148660831
0.239341177,0.158188141,0.148273668,0.148747608
0.239525994,0.158220792,0.148425489,0.148834808
0.2397103,0.158253926,0.148576991,0.148922426
0.239894095,0.158287543,0.148728169,0.149010458
0.240077379,0.158321645,0.14887902,0.149098902
0.240260151,0.158356233,0.14902954,0.149187754
0.240442412,0.158391307,0.149179726,0.149277011
0.24062416,0.158426869,0.149329575,0.149366671
0.240805395,0.158462919,0.149479083,0.149456731
0.240986114,0.158499457,0.149628247,0.149547189
0.241166317,0.158536484,0.149777065,0.149638043
0.241346002,0.158573999,0.149925532,0.149729292
0.241525167,0.158612002,0.150073645,0.149820934
0.241703809,0.158650491,0.150221401,0.149912968
0.241881929,0.158689466,0.150368798,0.150005391
0.242059522,0.158728926,0.150515831,0.150098202
0.24223659,0.158768867,0.150662498,0.150191401
0.242413129,0.158809289,0.150808795,0.150284985
0.242589139,0.158850188,0.15095472,0.150378953
0.242764617,0.158891562,0.151100269,0.150473304
0.242939562,0.158933409,0.15124544,0.150568037
0.243113974,0.158975724,0.151390229,0.150663149
0.243287853,0.159018505,0.151534632,0.150758639
0.243461199,0.159061748,0.151678648,0.150854507
0.243634011,0.159105449,0.151822273,0.150950751
0.24380629,0.159149607,0.151965504,0.151047368
0.243978038,0.159194216,0.152108338,0.151144358
0.244149256,0.159239275,0.152250773,0.15124172
0.244319946,0.159284781,0.152392806,0.151339452
0.244490113,0.15933073,0.152534433,0.151437554
0.244659759,0.159377121,0.152675653,0.151536025
0.244828888,0.15942395,0.152816465,0.151634864
0.244997506,0.159471215,0.152956865,0.151734069
0.245165619,0.159518914,0.153096853,0.151833639
0.245333229,0.159567044,0.153236426,0.151933573
0.245500344,0.159615603,0.153375584,0.152033869
0.245666966,0.159664588,0.153514323,0.152134526
0.2458331,0.159713999,0.153652642,0.152235543
0.24599875,0.159763833,0.15379054,0.152336919
0.246163922,0.159814086,0.153928012,0.152438652
0.246328618,0.159864758,0.154065058,0.152540741
0.246492844,0.159915843,0.154201673,0.152643185
0.246656602,0.15996734,0.154337856,0.152745982
0.246819896,0.160019245,0.154473604,0.152849129
0.24698273,0.160071553,0.154608914,0.152952624
0.247145105,0.160124261,0.154743784,0.153056466
0.247307024,0.160177364,0.154878209,0.153160651
0.247468489,0.160230859,0.155012188,0.153265177
0.247629501,0.16028474,0.155145716,0.153370042
0.247790061,0.160339004,0.15527879,0.153475243
0.24795017,0.160393647,0.155411405,0.153580779
0.248109829,0.160448665,0.155543558,0.153686646
0.248269038,0.160504053,0.155675245,0.153792845
0.248427796,0.160559807,0.155806461,0.153899373
0.248586102,0.160615922,0.155937203,0.154006227
0.248743957,0.160672394,0.156067466,0.154113406
0.248901358,0.160729217,0.156197246,0.154220905
0.249058305,0.160786385,0.156326539,0.154328723
0.249214796,0.160843895,0.156455343,0.154436854
0.249370829,0.16090174,0.156583651,0.154545294
0.249526401,0.160959916,0.15671146,0.154654041
0.249681511,0.161018416,0.156838766,0.154763088
0.249836156,0.161077237,0.156965565,0.154872431
0.249990333,0.161136373,0.157091851,0.154982065
0.250144039,0.16119582,0.15721762,0.155091986
0.250297274,0.161255574,0.157342868,0.15520219
0.250450033,0.161315632,0.15746759,0.155312674
0.250602314,0.161375991,0.15759178,0.155423434
0.250754114,0.161436646,0.157715434,0.155534465
0.250905431,0.161497594,0.157838548,0.155645766
0.25105626,0.161558831,0.157961118,0.155757331
0.251206598,0.161620354,0.158083139,0.155869159
0.251356441,0.161682159,0.158204609,0.155981245
0.251505785,0.161744242,0.158325522,0.156093587
0.251654626,0.161806599,0.158445875,0.156206182
0.251802959,0.161869227,0.158565664,0.156319027
0.25195078,0.161932123,0.158684884,0.156432118
0.252098083,0.161995283,0.158803532,0.156545454
0.252244864,0.162058705,0.158921603,0.156659032
0.252391118,0.162122387,0.159039094,0.156772849
0.252536839,0.162186326,0.159155999,0.156886901
0.252682025,0.16225052,0.159272314,0.157001186
0.252826668,0.162314967,0.159388035,0.1571157
0.252970766,0.162379668,0.159503157,0.15723044
0.253114312,0.16244462,0.159617676,0.157345404
0.253257301,0.162509824,0.159731586,0.157460587
0.25339973,0.162575278,0.159844884,0.157575987
0.253541593,0.162640982,0.159957564,0.1576916
0.253682889,0.162706936,0.160069622,0.157807423
0.253823614,0.16277314,0.160181052,0.157923453
0.253963766,0.162839592,0.16029185,0.158039687
0.254103344,0.162906293,0.160402011,0.15815612
0.254242346,0.162973239,0.160511528,0.158272749
0.254380774,0.16304043,0.160620397,0.158389571
0.254518627,0.163107864,0.160728614,0.158506581
0.254655907,0.163175538,0.160836172,0.158623774
0.254792617,0.16324345,0.160943069,0.158741147
0.254928758,0.163311597,0.161049298,0.158858696
0.255064334,0.163379976,0.161154858,0.158976414
0.255199347,0.163448584,0.161259742,0.159094298
0.255333799,0.163517418,0.161363949,0.159212343
0.255467693,0.163586475,0.161467475,0.159330544
0.255601031,0.163655751,0.161570318,0.159448896
0.255733816,0.163725243,0.161672475,0.159567396
0.255866049,0.163794947,0.161773945,0.159686037
0.255997732,0.163864859,0.161874727,0.159804817
0.256128867,0.163934975,0.16197482,0.159923729
0.256259453,0.164005292,0.162074224,0.160042769
0.256389494,0.164075806,0.162172942,0.160161932
0.256518988,0.164146512,0.162270974,0.160281212
0.256647935,0.164217406,0.162368322,0.160400604
0.256776337,0.164288482,0.162464987,0.160520102
0.256904192,0.164359737,0.16256097,0.160639702
0.2570315,0.164431166,0.162656274,0.160759397
0.257158261,0.164502762,0.162750901,0.160879183
0.257284473,0.164574522,0.16284485,0.160999055
0.257410137,0.164646441,0.162938126,0.161119007
0.257535251,0.164718512,0.163030727,0.161239034
0.257659815,0.16479073,0.163122656,0.161359131
0.25778383,0.16486309,0.163213914,0.161479291
0.257907295,0.164935586,0.1633045,0.161599508
0.258030211,0.165008211,0.163394417,0.161719778
0.258152579,0.165080958,0.163483663,0.161840092
0.2582744,0.165153823,0.163572241,0.161960447
0.258395677,0.165226798,0.163660149,0.162080835
0.258516412,0.165299878,0.163747389,0.162201252
0.258636608,0.165373058,0.163833962,0.162321692
0.258756267,0.165446332,0.163919867,0.16244215
0.258875392,0.165519695,0.164005105,0.162562621
0.258993986,0.165593143,0.164089677,0.162683101
0.259112051,0.16566667,0.164173583,0.162803585
0.259229589,0.165740273,0.164256825,0.162924069
0.259346602,0.165813946,0.164339402,0.163044549
0.259463091,0.165887685,0.164421316,0.163165022
0.259579057,0.165961488,0.164502566,0.163285485
0.259694503,0.166035349,0.164583152,0.163405936
0.259809428,0.166109266,0.164663075,0.163526373
0.259923836,0.166183235,0.164742334,0.163646793
0.260037726,0.16625725,0.16482093,0.163767196
0.260151102,0.166331308,0.164898861,0.163887578
0.260263965,0.166405404,0.164976127,0.164007938
0.260376316,0.166479533,0.165052727,0.164128275
0.260488158,0.166553691,0.165128662,0.164248587
0.260599493,0.166627871,0.165203929,0.164368872
0.260710323,0.16670207,0.165278529,0.16448913
0.260820649,0.166776281,0.16535246,0.164609358
0.260930473,0.1668505,0.165425723,0.164729554
0.261039796,0.16692472,0.165498317,0.164849716
0.261148619,0.166998938,0.165570241,0.164969842
0.261256944,0.167073149,0.165641495,0.16508993
0.261364769,0.167147346,0.165712078,0.165209978
0.261472096,0.167221524,0.16578199,0.165329988
0.261578925,0.167295679,0.165851229,0.165449958
0.261685253,0.167369805,0.165919795,0.165569888
0.261791082,0.167443896,0.165987686,0.165689777
0.26189641,0.167517947,0.166054902,0.165809626
0.262001236,0.167591953,0.166121441,0.165929432
0.262105558,0.167665907,0.166187303,0.166049195
0.262209375,0.167739805,0.166252488,0.166168912
0.262312685,0.16781364,0.166316996,0.166288582
0.262415485,0.167887407,0.166380827,0.166408202
0.262517773,0.167961099,0.16644398,0.16652777
0.262619547,0.168034712,0.166506456,0.166647282
0.262720803,0.168108237,0.166568255,0.166766737
0.26282154,0.168181671,0.166629376,0.16688613
0.262921752,0.168255006,0.16668982,0.16700546
0.263021438,0.168328236,0.166749587,0.167124722
0.263120594,0.168401356,0.166808676,0.167243915
0.263219215,0.16847436,0.166867089,0.167363033
0.263317299,0.16854724,0.166924824,0.167482072
0.263414842,0.168619992,0.166981882,0.167601029
0.263511842,0.168692609,0.167038264,0.167719898
0.263608295,0.168765085,0.16709397,0.167838674
0.263704199,0.168837415,0.167149001,0.167957353
0.263799549,0.168909593,0.167203356,0.168075928
0.263894343,0.168981613,0.167257037,0.168194395
0.263988577,0.16905347,0.167310043,0.168312749
0.264082249,0.169125156,0.167362374,0.168430984
0.264175355,0.169196667,0.167414031,0.168549095
0.264267892,0.169267997,0.167465012,0.168667078
0.264359858,0.16933914,0.167515318,0.168784927
0.264451249,0.169410092,0.167564949,0.168902637
0.264542064,0.169480848,0.167613906,0.169020203
0.264632298,0.169551403,0.167662189,0.169137618
0.264721951,0.169621754,0.167709801,0.169254877
0.264811021,0.169691896,0.16775674,0.169371976
0.264899504,0.169761826,0.16780301,0.169488911
0.264987401,0.16983154,0.16784861,0.169605677
0.265074708,0.169901033,0.167893541,0.16972227
0.265161424,0.169970302,0.167937804,0.169838686
0.265247548,0.170039343,0.1679814,0.169954921
0.265333078,0.17010815,0.168024329,0.170070969
0.265418013,0.17017672,0.168066592,0.170186824
0.265502352,0.170245048,0.16810819,0.170302482
0.265586094,0.17031313,0.168149122,0.170417937
0.265669239,0.170380961,0.16818939,0.170533183
0.265751785,0.170448538,0.168228993,0.170648214
0.265833733,0.170515856,0.168267932,0.170763024
0.265915081,0.17058291,0.168306206,0.170877607
0.265995829,0.170649695,0.168343816,0.170991956
0.266075977,0.170716208,0.168380762,0.171106064
0.266155524,0.170782443,0.168417044,0.171219924
0.266234471,0.170848397,0.168452663,0.171333531
0.266312818,0.170914067,0.168487619,0.171446876
0.266390564,0.170979449,0.168521912,0.171559953
0.266467711,0.17104454,0.168555544,0.171672755
0.266544258,0.171109337,0.168588514,0.171785276
0.266620205,0.171173837,0.168620823,0.171897509
0.266695552,0.171238037,0.168652472,0.172009448
0.266770299,0.171301932,0.16868346,0.172121086
0.266844447,0.171365521,0.168713788,0.172232415
0.266917994,0.1714288,0.168743457,0.172343429
0.26699094,0.171491768,0.168772467,0.172454119
0.267063285,0.171554421,0.168800818,0.172564478
0.267135027,0.171616758,0.168828511,0.172674498
0.267206166,0.171678777,0.168855549,0.172784172
0.2672767,0.171740474,0.16888193,0.172893491
0.267346628,0.171801847,0.168907655,0.173002447
0.267415947,0.171862894,0.168932726,0.173111032
0.267484658,0.171923612,0.168957142,0.173219237
0.267552757,0.171983999,0.168980904,0.173327053
0.267620244,0.17204405,0.169004012,0.173434473
0.267687117,0.172103762,0.169026467,0.173541488
0.267753373,0.172163133,0.169048268,0.173648089
0.267819012,0.172222158,0.169069417,0.173754268
0.267884031,0.172280835,0.169089914,0.173860017
0.267948429,0.172339158,0.169109759,0.173965329
0.268012204,0.172397124,0.169128953,0.174070195
0.268075355,0.17245473,0.169147495,0.174174607
0.268137881,0.17251197,0.169165387,0.174278557
0.268199781,0.172568842,0.169182628,0.174382039
0.268261054,0.17262534,0.169199221,0.174485046
0.2683217,0.172681461,0.169215165,0.174587572
0.268381716,0.172737203,0.169230462,0.174689611
0.268441103,0.172792562,0.169245115,0.174791158
0.268499859,0.172847538,0.169259124,0.174892205
0.268557983,0.172902129,0.169272493,0.174992749
0.268615476,0.172956334,0.169285222,0.175092782
0.268672336,0.173010153,0.169297314,0.175192298
0.268728563,0.173063584,0.169308772,0.175291291
0.268784156,0.173116626,0.169319597,0.175389754
0.268839114,0.173169279,0.169329791,0.175487682
0.268893437,0.173221543,0.169339356,0.175585068
0.268947123,0.173273417,0.169348295,0.175681905
0.269000173,0.173324901,0.169356607,0.175778188
0.269052586,0.173375997,0.169364296,0.175873912
0.26910436,0.173426706,0.169371362,0.175969072
0.269155497,0.173477029,0.169377807,0.176063663
0.269205994,0.173526968,0.169383633,0.176157679
0.269255851,0.173576524,0.169388842,0.176251116
0.269305068,0.173625699,0.169393435,0.176343969
0.269353644,0.173674494,0.169397415,0.176436233
0.269401581,0.17372291,0.169400782,0.176527902
0.269448878,0.17377095,0.16940354,0.176618973
0.269495536,0.173818615,0.169405689,0.176709439
0.269541558,0.173865906,0.16940723,0.176799296
0.269586944,0.173912827,0.169408165,0.176888539
0.269631697,0.17395938,0.169408496,0.176977165
0.26967582,0.174005567,0.169408223,0.17706517
0.269719315,0.174051389,0.169407348,0.17715255
0.269762185,0.174096849,0.169405872,0.177239303
0.269804433,0.174141949,0.169403797,0.177325426
0.269846062,0.17418669,0.169401124,0.177410915
0.269887076,0.174231073,0.169397856,0.177495768
0.269927476,0.174275101,0.169393994,0.177579981
0.269967267,0.174318775,0.169389543,0.177663553
0.270006452,0.174362095,0.169384505,0.177746481
0.270045032,0.174405064,0.169378885,0.177828761
0.270083012,0.174447683,0.169372686,0.177910393
0.270120394,0.174489952,0.169365914,0.177991373
0.270157181,0.174531873,0.169358572,0.178071698
0.270193376,0.174573449,0.169350666,0.178151367
0.270228981,0.174614681,0.169342201,0.178230375
0.270264,0.174655571,0.169333182,0.178308721
0.270298434,0.17469612,0.169323613,0.1783864
0.270332286,0.174736331,0.1693135,0.17846341
0.270365557,0.174776204,0.169302848,0.178539748
0.270398248,0.174815742,0.169291661,0.178615409
0.270430361,0.174854947,0.169279944,0.17869039
0.270461896,0.174893823,0.169267703,0.178764687
0.270492853,0.174932373,0.169254942,0.178838297
0.270523233,0.1749706,0.169241665,0.178911216
0.270553037,0.175008509,0.169227878,0.17898344
0.270582264,0.175046104,0.169213585,0.179054966
0.270610916,0.175083388,0.169198792,0.17912579
0.270638992,0.175120365,0.169183504,0.17919591
0.270666492,0.175157041,0.169167727,0.179265321
0.270693418,0.175193418,0.169151464,0.179334021
0.270719768,0.175229502,0.169134721,0.179402005
0.270745545,0.175265296,0.169117504,0.17946927
0.270770747,0.175300805,0.169099817,0.179535814
0.270795376,0.175336032,0.169081666,0.179601632
0.270819431,0.175370981,0.169063057,0.179666724
0.270842912,0.175405657,0.169043994,0.179731086
0.27086582,0.175440063,0.169024483,0.179794719
0.270888153,0.175474204,0.169004529,0.179857619
0.270909912,0.175508083,0.168984137,0.179919787
0.270931095,0.175541706,0.168963312,0.179981219
0.270951702,0.175575078,0.16894206,0.180041916
0.270971733,0.175608203,0.168920387,0.180101876
0.270991187,0.175641086,0.168898298,0.180161098
0.271010064,0.175673731,0.168875798,0.180219582
0.271028363,0.175706143,0.168852893,0.180277329
0.271046084,0.175738326,0.168829589,0.180334337
0.271063225,0.175770284,0.168805889,0.180390607
0.271079788,0.175802021,0.1687818,0.180446139
0.27109577,0.17583354,0.168757327,0.180500933
0.271111172,0.175864847,0.168732475,0.180554988
0.271125994,0.175895945,0.168707248,0.180608305
0.271140236,0.175926837,0.168681652,0.180660882
0.271153898,0.175957527,0.168655691,0.180712719
0.271166979,0.175988019,0.16862937,0.180763812
0.27117948,0.176018317,0.168602692,0.180814162
0.2711914,0.176048426,0.168575664,0.180863766
0.271202738,0.17607835,0.168548289,0.180912623
0.271213493,0.176108093,0.168520571,0.180960732
0.271223664,0.176137661,0.168492515,0.181008092
0.27123325,0.176167056,0.168464127,0.181054703
0.271242247,0.176196283,0.16843541,0.181100563
0.271250655,0.176225346,0.168406369,0.181145674
0.271258472,0.176254248,0.168377008,0.181190033
0.271265697,0.176282991,0.168347334,0.181233643
0.271272328,0.176311578,0.16831735,0.181276504
0.271278365,0.176340013,0.16828706,0.181318616
0.271283805,0.176368298,0.16825647,0.181359981
0.271288648,0.176396437,0.168225584,0.181400601
0.271292892,0.176424433,0.168194405,0.181440476
0.271296536,0.176452288,0.168162939,0.18147961
0.271299576,0.176480005,0.168131189,0.181518004
0.271302012,0.176507588,0.168099159,0.181555661
0.271303841,0.176535038,0.168066854,0.181592583
0.271305059,0.176562357,0.168034276,0.181628771
0.271305666,0.176589548,0.168001429,0.181664227
0.271305658,0.176616611,0.167968317,0.181698952
0.271305033,0.176643549,0.167934944,0.181732948
0.271303787,0.176670363,0.167901312,0.181766216
0.27130192,0.176697052,0.167867424,0.181798757
0.271299428,0.176723617,0.167833283,0.181830572
0.27129631,0.176750058,0.167798892,0.181861662
0.271292564,0.176776375,0.167764254,0.181892027
0.271288186,0.176802568,0.167729372,0.181921668
0.271283176,0.176828635,0.167694248,0.181950586
0.271277532,0.176854576,0.167658886,0.181978779
0.271271251,0.176880389,0.16762329,0.182006249
0.271264331,0.176906074,0.167587463,0.182032994
0.271256769,0.176931631,0.16755141,0.182059015
0.271248562,0.176957058,0.167515134,0.18208431
0.271239708,0.176982356,0.167478639,0.182108881
0.271230202,0.177007525,0.167441931,0.182132729
0.271220043,0.177032565,0.167405014,0.182155853
0.271209226,0.177057476,0.167367893,0.182178256
0.271197749,0.177082261,0.167330572,0.182199939
0.271185609,0.177106919,0.167293056,0.182220906
0.271172803,0.177131453,0.16725535,0.18224116
0.271159328,0.177155864,0.167217459,0.182260707
0.271145181,0.177180154,0.167179387,0.182279551
0.271130358,0.177204325,0.16714114,0.1822977
0.271114858,0.177228379,0.167102722,0.18231516
0.271098678,0.177252317,0.167064137,0.182331941
0.271081814,0.17727614,0.16702539,0.18234805
0.271064266,0.177299851,0.166986483,0.182363495
0.271046031,0.17732345,0.166947422,0.182378284
0.271027107,0.177346938,0.166908208,0.182392423
0.271007494,0.177370316,0.166868846,0.18240592
0.27098719,0.177393585,0.166829339,0.182418781
0.270966195,0.177416745,0.166789689,0.182431012
0.270944507,0.177439798,0.166749901,0.18244262
0.270922127,0.177462743,0.166709975,0.182453612
0.270899055,0.177485581,0.166669916,0.182463992
0.270875292,0.177508312,0.166629726,0.182473767
0.27085084,0.177530939,0.166589408,0.182482944
0.270825697,0.177553462,0.166548963,0.182491528
0.270799867,0.177575884,0.166508394,0.182499527
0.270773348,0.177598208,0.166467702,0.182506948
0.270746143,0.177620436,0.16642689,0.1825138
0.270718252,0.177642571,0.166385959,0.182520091
0.270689676,0.177664618,0.16634491,0.182525827
0.270660417,0.177686578,0.166303744,0.182531016
0.270630474,0.177708455,0.166262463,0.182535665
0.27059985,0.177730252,0.166221067,0.182539779
0.270568544,0.177751972,0.166179557,0.182543366
0.270536558,0.177773618,0.166137933,0.18254643
0.270503891,0.177795192,0.166096196,0.182548978
0.270470545,0.177816697,0.166054348,0.182551014
0.27043652,0.177838136,0.166012387,0.182552545
0.270401816,0.177859511,0.165970316,0.182553575
0.270366434,0.177880828,0.165928134,0.182554109
0.270330374,0.177902087,0.165885843,0.182554154
0.270293638,0.177923294,0.165843441,0.182553713
0.270256225,0.17794445,0.165800931,0.182552792
0.270218138,0.177965559,0.165758312,0.182551396
0.270179379,0.177986624,0.165715587,0.182549528
0.270139947,0.178007649,0.165672757,0.182547192
0.270099846,0.178028636,0.165629825,0.182544393
0.270059077,0.178049589,0.165586794,0.182541134
0.270017641,0.17807051,0.165543667,0.182537419
0.269975538,0.178091405,0.165500449,0.182533252
0.269932771,0.178112276,0.165457143,0.182528637
0.269889341,0.178133127,0.165413754,0.182523577
0.26984525,0.178153963,0.165370286,0.182518076
0.2698005,0.178174784,0.165326743,0.182512138
0.269755092,0.178195596,0.165283128,0.182505766
0.269709027,0.178216399,0.165239446,0.182498963
0.269662308,0.178237196,0.1651957,0.182491733
0.269614935,0.178257988,0.165151892,0.182484082
0.269566909,0.178278777,0.165108027,0.182476014
0.269518233,0.178299564,0.165064106,0.182467535
0.269468906,0.178320351,0.165020132,0.18245865
0.269418932,0.178341137,0.164976108,0.182449364
0.26936831,0.178361924,0.164932038,0.182439681
0.269317041,0.178382711,0.164887923,0.182429607
0.269265127,0.1784035,0.164843767,0.182419144
0.269212569,0.178424291,0.164799573,0.182408297
0.269159366,0.178445085,0.164755343,0.182397068
0.26910552,0.178465883,0.164711081,0.182385462
0.269051032,0.178486685,0.164666788,0.182373481
0.268995901,0.178507493,0.164622468,0.182361127
0.268940129,0.178528307,0.164578121,0.182348403
0.268883715,0.178549128,0.164533752,0.182335311
0.268826659,0.178569957,0.164489361,0.182321855
0.268768963,0.178590795,0.164444952,0.182308036
0.268710625,0.178611644,0.164400525,0.182293858
0.268651646,0.178632504,0.164356082,0.182279323
0.268592025,0.178653377,0.164311626,0.182264434
0.268531764,0.178674263,0.164267157,0.182249194
0.268470862,0.178695165,0.164222677,0.182233604
0.26840932,0.178716083,0.164178188,0.182217669
0.26834714,0.178737018,0.164133691,0.182201391
0.268284324,0.178757971,0.164089187,0.182184773
0.268220872,0.178778941,0.164044678,0.182167818
0.268156788,0.178799929,0.164000165,0.182150529
0.268092074,0.178820934,0.16395565,0.182132909
0.26802673,0.178841955,0.163911133,0.182114961
0.267960759,0.178862991,0.163866616,0.182096688
0.267894161,0.178884041,0.1638221,0.182078094
0.267826938,0.178905103,0.163777586,0.182059183
0.26775909,0.178926176,0.163733075,0.182039958
0.267690619,0.178947259,0.163688567,0.182020423
0.267621525,0.178968348,0.163644062,0.182000584
0.267551809,0.178989442,0.163599562,0.181980445
0.267481472,0.179010539,0.163555066,0.181960009
0.267410514,0.179031639,0.163510575,0.181939283
0.267338938,0.179052741,0.16346609,0.18191827
0.267266744,0.179073843,0.16342161,0.181896973
0.267193934,0.179094945,0.163377136,0.181875397
0.267120508,0.179116047,0.16333267,0.181853545
0.26704647,0.179137148,0.163288212,0.18183142
0.266971821,0.17915825,0.163243762,0.181809025
0.266896566,0.179179351,0.163199321,0.181786362
0.266820707,0.179200451,0.16315489,0.181763435
0.266744251,0.179221551,0.163110471,0.181740244
0.266667199,0.179242648,0.163066065,0.181716792
0.266589558,0.179263743,0.163021671,0.181693081
0.266511329,0.179284835,0.16297729,0.181669114
0.266432518,0.179305921,0.162932923,0.181644893
0.266353127,0.179327001,0.16288857,0.181620419
0.266273161,0.179348073,0.162844231,0.181595693
0.266192622,0.179369135,0.162799905,0.181570717
0.266111514,0.179390185,0.162755594,0.181545491
0.26602984,0.179411222,0.162711296,0.181520015
0.265947604,0.179432243,0.162667011,0.18149429
0.265864809,0.179453248,0.162622739,0.181468316
0.265781458,0.179474233,0.16257848,0.181442094
0.265697552,0.179495198,0.162534233,0.181415625
0.265613094,0.179516141,0.162489998,0.181388908
0.265528087,0.17953706,0.162445776,0.181361945
0.265442533,0.179557953,0.162401567,0.181334738
0.265356433,0.17957882,0.16235737,0.181307289
0.265269791,0.179599657,0.162313186,0.181279601
0.265182607,0.179620463,0.162269016,0.181251676
0.265094884,0.179641238,0.162224859,0.181223518
0.265006624,0.179661981,0.162180717,0.181195132
0.264917829,0.179682693,0.162136589,0.181166523
0.264828502,0.179703372,0.162092478,0.181137698
0.264738644,0.179724021,0.162048382,0.18110866
0.264648258,0.17974464,0.162004304,0.181079419
0.264557346,0.17976523,0.161960244,0.181049979
0.26446591,0.17978579,0.161916202,0.181020348
0.264373952,0.179806322,0.161872179,0.180990532
0.264281474,0.179826825,0.161828176,0.180960539
0.264188478,0.179847299,0.161784193,0.180930373
0.264094966,0.179867744,0.161740231,0.180900042
0.264000938,0.179888159,0.161696291,0.180869551
0.263906395,0.179908545,0.161652373,0.180838905
0.263811339,0.1799289,0.161608479,0.18080811
0.263715771,0.179949224,0.161564609,0.180777171
0.26361969,0.179969516,0.161520764,0.180746094
0.263523099,0.179989777,0.161476945,0.180714883
0.263425998,0.180010006,0.161433153,0.180683543
0.263328389,0.180030204,0.16138939,0.180652076
0.263230273,0.18005037,0.161345655,0.180620487
0.263131651,0.180070505,0.161301949,0.180588778
0.263032526,0.180090608,0.161258274,0.180556953
0.262932899,0.18011068,0.161214631,0.180525012
0.262832772,0.180130721,0.16117102,0.180492958
0.262732147,0.180150729,0.161127443,0.180460794
0.262631026,0.180170706,0.161083901,0.18042852
0.262529411,0.180190652,0.161040396,0.180396138
0.262427303,0.180210565,0.160996929,0.180363651
0.262324705,0.180230447,0.160953502,0.180331059
0.262221617,0.180250297,0.160910115,0.180298364
0.262118041,0.180270117,0.160866772,0.180265566
0.262013979,0.180289905,0.160823471,0.180232667
0.261909434,0.180309662,0.160780216,0.180199667
0.261804406,0.180329389,0.160737006,0.180166568
0.261698899,0.180349084,0.160693842,0.180133368
0.261592912,0.180368749,0.160650724,0.180100068
0.261486449,0.180388383,0.160607654,0.180066668
0.26137951,0.180407984,0.16056463,0.180033166
0.261272097,0.180427553,0.160521653,0.179999562
0.26116421,0.180447088,0.160478723,0.179965854
0.261055851,0.180466589,0.160435839,0.179932042
0.260947019,0.180486055,0.160393002,0.179898122
0.260837717,0.180505487,0.160350212,0.179864094
0.260727944,0.180524882,0.160307468,0.179829956
0.260617701,0.180544241,0.160264771,0.179795705
0.260506989,0.180563564,0.160222121,0.17976134
0.260395808,0.180582848,0.160179521,0.179726858
0.260284161,0.180602096,0.160136972,0.179692258
0.260172046,0.180621307,0.160094476,0.179657537
0.260059467,0.180640481,0.160052039,0.179622692
0.259946422,0.180659621,0.160009662,0.179587723
0.259832915,0.180678727,0.159967352,0.179552625
0.259718944,0.1806978,0.159925114,0.179517398
0.259604511,0.180716842,0.159882954,0.17948204
0.259489618,0.180735853,0.159840877,0.179446547
0.259374263,0.180754832,0.159798887,0.179410919
0.25925845,0.180773782,0.15975699,0.179375151
0.259142179,0.1807927,0.159715191,0.179339243
0.259025452,0.180811588,0.159673495,0.17930319
0.258908271,0.180830443,0.159631905,0.17926699
0.258790638,0.180849266,0.159590427,0.17923064
0.258672556,0.180868054,0.159549065,0.179194136
0.258554026,0.180886807,0.159507823,0.179157476
0.258435052,0.180905523,0.159466705,0.179120658
0.258315633,0.180924199,0.159425714,0.179083677
0.258195773,0.180942835,0.159384854,0.179046534
0.258075472,0.180961428,0.15934413,0.179009227
0.257954733,0.180979978,0.159303543,0.178971753
0.257833559,0.180998484,0.159263098,0.178934113
0.257711953,0.181016944,0.159222797,0.178896304
0.257589916,0.181035358,0.159182644,0.178858323
0.257467452,0.181053723,0.159142643,0.178820171
0.257344565,0.18107204,0.159102795,0.178781844
0.257221258,0.181090306,0.159063106,0.178743341
0.257097534,0.18110852,0.159023577,0.178704662
0.256973398,0.18112668,0.158984212,0.178665805
0.256848852,0.181144784,0.158945013,0.178626768
0.2567239,0.18116283,0.158905985,0.178587553
0.256598546,0.181180815,0.158867131,0.178548159
0.256472791,0.181198736,0.158828453,0.178508586
0.256346639,0.181216592,0.158789955,0.178468834
0.256220093,0.18123438,0.15875164,0.178428905
0.256093155,0.181252097,0.15871351,0.178388799
0.255965828,0.181269741,0.158675568,0.178348516
0.255838114,0.181287311,0.158637816,0.178308057
0.255710016,0.181304804,0.158600256,0.178267422
0.255581536,0.181322218,0.158562891,0.178226612
0.255452675,0.181339551,0.158525723,0.178185627
0.255323436,0.181356802,0.158488754,0.178144467
0.25519382,0.181373968,0.158451984,0.178103132
0.255063828,0.181391048,0.158415416,0.178061622
0.254933461,0.181408044,0.158379051,0.178019937
0.25480272,0.181424956,0.158342891,0.177978078
0.254671606,0.181441786,0.158306937,0.177936043
0.25454012,0.181458537,0.15827119,0.177893834
0.254408263,0.181475209,0.158235652,0.17785145
0.254276037,0.181491805,0.158200324,0.177808891
0.254143443,0.181508327,0.158165206,0.177766157
0.254010485,0.181524777,0.1581303,0.177723248
0.253877165,0.181541155,0.158095606,0.177680163
0.253743486,0.181557466,0.158061124,0.177636903
0.253609454,0.181573709,0.158026855,0.177593469
0.253475071,0.181589888,0.157992799,0.17754986
0.253340343,0.181606004,0.157958956,0.177506076
0.253205273,0.181622059,0.157925326,0.177462119
0.253069866,0.181638055,0.157891907,0.177417988
0.252934127,0.181653995,0.157858699,0.177373685
0.25279806,0.18166988,0.157825702,0.177329209
0.25266167,0.181685714,0.157792914,0.177284562
0.252524962,0.181701498,0.157760336,0.177239744
0.25238794,0.181717238,0.157727967,0.177194754
0.252250612,0.181732937,0.157695807,0.177149592
0.252112981,0.181748599,0.157663857,0.17710426
0.251975053,0.18176423,0.157632116,0.177058756
0.251836833,0.181779833,0.157600584,0.17701308
0.251698328,0.181795412,0.15756926,0.176967231
0.251559542,0.181810972,0.157538145,0.176921209
0.251420482,0.181826515,0.157507238,0.176875012
0.251281153,0.181842044,0.157476537,0.17682864
0.251141561,0.181857564,0.157446044,0.176782092
0.251001712,0.181873075,0.157415757,0.176735367
0.250861612,0.181888582,0.157385677,0.176688467
0.250721267,0.181904086,0.157355802,0.176641389
0.250580683,0.181919592,0.157326133,0.176594134
0.250439866,0.181935102,0.157296668,0.1765467
0.250298822,0.181950621,0.157267407,0.176499088
0.250157556,0.181966152,0.157238349,0.176451298
0.250016073,0.181981699,0.157209492,0.176403331
0.249874379,0.181997267,0.157180835,0.176355186
0.249732478,0.182012859,0.157152377,0.176306863
0.249590374,0.18202848,0.157124116,0.176258363
0.249448073,0.182044131,0.157096049,0.176209685
0.249305578,0.182059817,0.157068177,0.176160827
0.249162893,0.18207554,0.157040497,0.176111791
0.249020023,0.182091304,0.157013008,0.176062576
0.248876971,0.182107113,0.156985707,0.176013182
0.248733741,0.182122969,0.156958592,0.175963609
0.248590338,0.182138878,0.156931662,0.175913859
0.248446767,0.182154843,0.156904913,0.175863934
0.248303031,0.18217087,0.156878342,0.175813835
0.248159136,0.182186963,0.156851947,0.175763568
0.248015088,0.182203126,0.156825725,0.175713134
0.247870891,0.182219365,0.156799672,0.175662537
0.24772655,0.182235685,0.156773787,0.175611782
0.247582072,0.182252089,0.156748066,0.175560871
0.247437462,0.182268583,0.156722507,0.175509811
0.247292724,0.182285172,0.156697107,0.175458606
0.247147865,0.182301859,0.156671864,0.175407263
0.247002891,0.182318648,0.156646774,0.175355789
0.246857806,0.182335545,0.156621836,0.175304189
0.246712618,0.182352552,0.156597045,0.17525247
0.246567333,0.182369672,0.156572401,0.175200637
0.246421957,0.18238691,0.156547901,0.175148696
0.246276495,0.182404269,0.156523543,0.175096651
0.246130955,0.182421753,0.156499325,0.175044507
0.245985342,0.182439367,0.156475245,0.174992269
0.245839663,0.182457115,0.156451302,0.174939941
0.245693921,0.182475002,0.156427492,0.174887527
0.245548124,0.18249303,0.156403815,0.174835031
0.245402276,0.182511204,0.156380266,0.174782458
0.245256382,0.182529527,0.156356845,0.17472981
0.245110447,0.182548004,0.156333549,0.174677092
0.244964476,0.182566637,0.156310375,0.174624309
0.244818474,0.18258543,0.156287322,0.174571464
0.244672446,0.182604386,0.156264386,0.174518562
0.244526399,0.182623509,0.156241566,0.174465605
0.244380336,0.182642804,0.156218858,0.174412598
0.244234265,0.182662274,0.156196261,0.174359543
0.244088191,0.182681926,0.156173771,0.174306444
0.243942118,0.182701763,0.156151388,0.174253304
0.243796054,0.18272179,0.156129108,0.174200124
0.243650004,0.182742013,0.156106931,0.174146909
0.243503973,0.182762436,0.156084855,0.17409366
0.243357968,0.182783064,0.156062881,0.17404038
0.243211994,0.1828039,0.156041008,0.173987072
0.243066059,0.18282495,0.156019235,0.173933736
0.242920166,0.182846217,0.155997563,0.173880376
0.242774323,0.182867703,0.155975993,0.173826991
0.242628534,0.182889413,0.155954525,0.173773583
0.242482807,0.182911349,0.155933159,0.173720154
0.242337147,0.182933514,0.155911896,0.173666706
0.242191559,0.182955909,0.155890735,0.173613239
0.242046048,0.182978536,0.155869678,0.173559756
0.24190062,0.183001397,0.155848723,0.173506258
0.24175528,0.183024493,0.155827872,0.173452747
0.241610032,0.183047824,0.155807123,0.173399225
0.24146488,0.183071391,0.155786476,0.173345692
0.24131983,0.183095195,0.155765932,0.173292151
0.241174885,0.183119235,0.155745489,0.173238605
0.24103005,0.183143511,0.155725147,0.173185055
0.240885327,0.183168024,0.155704905,0.173131505
0.24074072,0.183192771,0.155684762,0.173077958
0.240596233,0.183217753,0.155664718,0.173024421
0.240451869,0.183242968,0.155644773,0.172970897
0.24030763,0.183268414,0.155624925,0.172917392
0.240163519,0.183294092,0.155605174,0.172863912
0.24001954,0.183319999,0.15558552,0.172810462
0.239875693,0.183346135,0.155565962,0.172757047
0.239731981,0.183372499,0.1555465,0.172703672
0.239588408,0.183399091,0.155527134,0.172650343
0.239444976,0.183425909,0.155507862,0.172597064
0.239301688,0.183452952,0.155488685,0.172543842
0.239158547,0.183480219,0.155469602,0.172490681
0.239015558,0.18350771,0.155450612,0.172437588
0.238872722,0.183535421,0.155431715,0.17238457
0.238730045,0.183563353,0.15541291,0.172331633
0.238587529,0.183591503,0.155394195,0.172278788
0.238445178,0.18361987,0.155375568,0.172226041
0.238302995,0.183648453,0.155357028,0.172173401
0.238160983,0.183677249,0.155338574,0.172120878
0.238019144,0.183706256,0.155320203,0.17206848
0.23787748,0.183735473,0.155301913,0.172016218
0.237735995,0.183764897,0.155283703,0.1719641
0.237594689,0.183794526,0.155265571,0.171912137
0.237453564,0.18382436,0.155247515,0.171860337
0.237312622,0.183854396,0.155229533,0.171808711
0.237171863,0.183884635,0.155211623,0.171757266
0.237031288,0.183915077,0.155193784,0.171706011
0.236890898,0.183945722,0.155176012,0.171654955
0.236750692,0.183976569,0.155158306,0.171604104
0.236610672,0.184007618,0.155140663,0.171553468
0.236470838,0.18403887,0.15512308,0.171503052
0.236331189,0.184070323,0.155105553,0.171452865
0.236191725,0.184101977,0.15508808,0.171402913
0.236052448,0.18413383,0.155070658,0.171353202
0.235913355,0.184165883,0.155053284,0.17130374
0.235774446,0.184198133,0.155035954,0.171254532
0.235635722,0.184230578,0.155018664,0.171205585
0.23549718,0.184263218,0.155001413,0.171156906
0.235358821,0.18429605,0.154984197,0.1711085
0.235220645,0.184329072,0.154967012,0.171060375
0.235082651,0.184362282,0.154949857,0.171012534
0.234944838,0.18439568,0.154932726,0.170964984
0.234807207,0.184429262,0.154915619,0.170917728
0.234669756,0.184463027,0.154898532,0.170870772
0.234532486,0.184496972,0.154881462,0.17082412
0.234395395,0.184531095,0.154864407,0.170777775
0.234258484,0.184565393,0.154847365,0.170731743
0.234121751,0.184599863,0.154830333,0.170686027
0.233985196,0.184634501,0.154813309,0.170640631
0.233848819,0.184669305,0.154796291,0.17059556
0.233712619,0.18470427,0.154779277,0.170550818
0.233576597,0.184739393,0.154762265,0.170506409
0.233440751,0.184774669,0.154745254,0.170462338
0.233305081,0.184810095,0.154728241,0.170418611
0.233169585,0.184845668,0.154711225,0.170375233
0.233034264,0.184881383,0.154694203,0.170332209
0.232899114,0.184917236,0.154677174,0.170289545
0.232764136,0.184953224,0.154660136,0.170247244
0.232629327,0.184989344,0.154643087,0.170205312
0.232494686,0.185025591,0.154626024,0.17016375
0.23236021,0.185061963,0.154608945,0.170122564
0.232225898,0.185098456,0.154591849,0.170081755
0.232091747,0.185135067,0.154574734,0.170041326
0.231957755,0.185171792,0.154557598,0.170001278
0.23182392,0.185208627,0.154540439,0.169961614
0.231690241,0.18524557,0.154523254,0.169922334
0.231556713,0.185282619,0.154506044,0.169883439
0.231423336,0.18531977,0.154488804,0.169844932
0.231290105,0.185357021,0.154471534,0.169806814
0.23115702,0.185394373,0.15445423,0.169769086
0.231024076,0.185431825,0.154436892,0.16973175
0.230891271,0.185469375,0.154419515,0.169694807
0.230758602,0.185507023,0.154402099,0.169658256
0.230626066,0.185544767,0.15438464,0.169622098
0.23049366,0.185582607,0.154367136,0.169586332
0.23036138,0.18562054,0.154349586,0.169550958
0.230229223,0.185658565,0.154331986,0.169515975
0.230097188,0.18569668,0.154314336,0.169481381
0.229965271,0.185734882,0.154296634,0.169447174
0.229833471,0.185773172,0.154278878,0.169413354
0.229701785,0.185811546,0.154261067,0.169379917
0.229570211,0.185850004,0.154243199,0.169346862
0.229438748,0.185888544,0.154225275,0.169314188
0.229307393,0.185927164,0.154207291,0.169281893
0.229176145,0.185965863,0.154189248,0.169249975
0.229044999,0.186004638,0.154171145,0.169218435
0.228913955,0.186043487,0.15415298,0.169187272
0.228783009,0.186082407,0.154134753,0.169156483
0.228652159,0.186121396,0.154116462,0.169126069
0.228521401,0.18616045,0.154098106,0.169096029
0.228390732,0.186199567,0.154079683,0.169066361
0.228260149,0.186238742,0.154061193,0.169037065
0.228129649,0.186277974,0.154042631,0.169008141
0.227999228,0.186317257,0.154023998,0.168979589
0.227868884,0.186356588,0.154005289,0.168951408
0.227738613,0.186395965,0.153986505,0.168923597
0.227608412,0.186435381,0.153967642,0.168896156
0.227478278,0.186474834,0.153948698,0.168869084
0.227348207,0.186514319,0.153929673,0.168842379
0.227218198,0.186553831,0.153910565,0.168816041
0.227088246,0.186593366,0.153891371,0.168790066
0.226958351,0.186632919,0.15387209,0.168764454
0.22682851,0.186672485,0.15385272,0.168739203
0.22669872,0.186712059,0.153833259,0.168714313
0.226568979,0.186751637,0.153813707,0.168689782
0.226439286,0.186791213,0.153794061,0.168665609
0.226309639,0.186830784,0.153774321,0.168641794
0.226180036,0.186870346,0.153754485,0.168618336
0.226050475,0.186909896,0.153734553,0.168595237
0.225920953,0.18694943,0.153714522,0.168572498
0.225791471,0.186988944,0.15369439,0.168550118
0.225662026,0.187028433,0.153674157,0.168528099
0.225532617,0.187067894,0.15365382,0.168506442
0.225403242,0.187107322,0.153633378,0.168485151
0.225273901,0.187146713,0.153612829,0.168464228
0.225144592,0.187186062,0.153592171,0.168443674
0.225015316,0.187225366,0.153571402,0.168423494
0.22488607,0.18726462,0.15355052,0.16840369
0.224756855,0.187303818,0.153529524,0.168384263
0.224627669,0.187342957,0.153508412,0.168365216
0.224498513,0.187382032,0.15348718,0.16834655
0.224369384,0.187421037,0.153465826,0.168328266
0.224240282,0.187459967,0.153444349,0.168310366
0.224111207,0.187498816,0.153422746,0.168292849
0.223982157,0.18753758,0.153401014,0.168275717
0.223853132,0.187576252,0.153379152,0.16825897
0.223724132,0.187614827,0.153357156,0.168242607
0.223595154,0.187653299,0.153335025,0.168226628
0.223466198,0.18769166,0.153312757,0.168211032
0.223337264,0.187729906,0.153290348,0.168195817
0.223208349,0.187768029,0.153267797,0.168180982
0.223079452,0.187806023,0.153245101,0.168166524
0.222950571,0.187843882,0.153222258,0.168152441
0.222821705,0.1878816,0.153199264,0.168138732
0.222692851,0.187919171,0.153176117,0.168125393
0.222564007,0.187956589,0.153152814,0.168112422
0.22243517,0.187993849,0.153129351,0.168099819
0.222306339,0.188030945,0.153105726,0.16808758
0.222177511,0.188067871,0.153081936,0.168075704
0.222048684,0.188104624,0.153057977,0.168064189
0.221919858,0.188141199,0.153033846,0.168053031
0.221791029,0.188177595,0.153009541,0.168042229
0.221662198,0.18821381,0.152985058,0.168031778
0.221533363,0.188249839,0.152960395,0.168021676
0.221404524,0.188285682,0.152935547,0.16801192
0.221275681,0.188321336,0.152910512,0.168002506
0.221146833,0.1883568,0.152885286,0.167993431
0.221017981,0.188392072,0.152859866,0.167984689
0.220889123,0.18842715,0.152834249,0.167976278
0.22076026,0.188462034,0.152808431,0.167968194
0.220631391,0.188496721,0.15278241,0.167960433
0.220502515,0.188531212,0.152756184,0.16795299
0.220373632,0.188565504,0.15272975,0.167945862
0.220244741,0.188599595,0.152703105,0.167939045
0.220115841,0.188633486,0.152676247,0.167932534
0.21998693,0.188667173,0.152649174,0.167926327
0.219858008,0.188700656,0.152621882,0.167920421
0.219729072,0.188733933,0.15259437,0.167914812
0.219600121,0.188767002,0.152566634,0.167909497
0.219471154,0.188799864,0.152538672,0.167904473
0.219342168,0.188832515,0.152510481,0.167899736
0.219213162,0.188864955,0.152482059,0.167895283
0.219084134,0.188897183,0.152453404,0.167891112
0.218955081,0.188929197,0.152424511,0.167887219
0.218826001,0.188960995,0.15239538,0.167883601
0.218696891,0.188992576,0.152366006,0.167880255
0.21856775,0.189023938,0.152336388,0.167877176
0.218438576,0.18905508,0.152306522,0.167874364
0.218309365,0.189086004,0.152276406,0.167871816
0.218180115,0.189116711,0.152246038,0.167869529
0.218050825,0.189147202,0.152215414,0.167867504
0.21792149,0.18917748,0.152184535,0.167865739
0.21779211,0.189207547,0.152153397,0.167864232
0.217662681,0.189237404,0.152121999,0.167862982
0.217533202,0.189267055,0.15209034,0.167861986
0.217403668,0.189296499,0.152058418,0.167861243
0.217274078,0.189325738,0.152026233,0.167860749
0.217144428,0.189354775,0.151993783,0.167860503
0.217014718,0.18938361,0.151961069,0.167860501
0.216884944,0.189412244,0.151928089,0.167860739
0.216755105,0.18944068,0.151894843,0.167861214
0.216625198,0.189468918,0.151861331,0.167861923
0.216495222,0.189496959,0.151827553,0.167862861
0.216365175,0.189524804,0.151793507,0.167864026
0.216235054,0.189552453,0.151759195,0.167865414
0.21610486,0.189579908,0.151724615,0.167867023
0.215974589,0.189607168,0.151689769,0.16786885
0.215844241,0.189634235,0.151654655,0.167870891
0.215713815,0.189661108,0.151619274,0.167873145
0.215583311,0.189687791,0.151583627,0.167875606
0.215452726,0.189714284,0.151547713,0.167878271
0.215322061,0.189740589,0.151511532,0.167881137
0.215191314,0.189766708,0.151475085,0.167884198
0.215060487,0.189792647,0.151438371,0.16788745
0.214929579,0.189818408,0.151401391,0.167890889
0.21479859,0.189843997,0.151364144,0.167894513
0.214667519,0.189869419,0.151326632,0.167898318
0.214536367,0.189894677,0.151288855,0.167902304
0.214405132,0.189919776,0.151250813,0.167906468
0.214273814,0.189944719,0.151212507,0.167910807
0.214142413,0.18996951,0.151173939,0.16791532
0.214010929,0.189994153,0.151135109,0.167920003
0.21387936,0.190018649,0.151096021,0.167924855
0.213747707,0.190043002,0.151056674,0.167929871
0.213615969,0.190067214,0.151017071,0.16793505
0.213484146,0.19009129,0.150977214,0.167940386
0.213352237,0.19011523,0.150937104,0.167945877
0.213220241,0.190139039,0.150896744,0.167951517
0.213088158,0.190162717,0.150856136,0.167957304
0.212955987,0.190186267,0.15081528,0.167963232
0.212823728,0.19020969,0.150774179,0.167969295
0.212691381,0.190232989,0.150732834,0.16797549
0.212558946,0.190256164,0.150691247,0.167981809
0.212426425,0.190279217,0.150649419,0.16798825
0.212293818,0.19030215,0.150607352,0.167994805
0.212161126,0.190324966,0.150565048,0.168001472
0.212028352,0.190347666,0.150522507,0.168008244
0.211895497,0.190370255,0.15047973,0.168015118
0.211762564,0.190392734,0.15043672,0.168022089
0.211629555,0.190415107,0.150393478,0.168029151
0.211496473,0.190437377,0.150350004,0.168036301
0.211363322,0.190459547,0.150306303,0.168043533
0.211230106,0.190481621,0.150262376,0.168050841
0.211096828,0.190503601,0.150218225,0.168058219
0.210963492,0.19052549,0.150173854,0.168065664
0.210830103,0.190547291,0.150129265,0.168073168
0.210696666,0.190569007,0.150084463,0.168080727
0.210563185,0.19059064,0.150039452,0.168088334
0.210429666,0.190612191,0.149994236,0.168095985
0.210296112,0.190633664,0.149948822,0.168103673
0.210162528,0.190655058,0.149903214,0.168111394
0.210028918,0.190676377,0.149857419,0.168119141
0.209895286,0.190697621,0.14981144,0.168126909
0.209761635,0.190718791,0.149765286,0.168134695
0.209627968,0.190739889,0.14971896,0.168142492
0.209494288,0.190760914,0.149672471,0.168150294
0.209360597,0.190781867,0.149625824,0.168158097
0.209226898,0.190802749,0.149579025,0.168165895
0.209093194,0.19082356,0.149532081,0.168173682
0.208959485,0.1908443,0.149484998,0.168181452
0.208825776,0.19086497,0.149437783,0.1681892
0.208692067,0.19088557,0.149390442,0.16819692
0.208558362,0.190906098,0.149342982,0.168204606
0.208424662,0.190926555,0.149295408,0.168212252
0.208290969,0.190946939,0.149247728,0.168219853
0.208157285,0.190967249,0.149199949,0.168227402
0.208023612,0.190987482,0.149152075,0.168234896
0.207889952,0.191007638,0.149104114,0.168242331
0.207756306,0.191027713,0.149056071,0.168249704
0.207622676,0.191047705,0.149007952,0.168257012
0.207489063,0.191067612,0.148959763,0.168264253
0.207355469,0.191087431,0.148911508,0.168271423
0.207221897,0.191107159,0.148863192,0.168278521
0.20708835,0.191126793,0.148814821,0.168285544
0.206954829,0.191146331,0.148766399,0.168292491
0.206821339,0.191165769,0.148717931,0.168299361
0.206687881,0.191185104,0.148669422,0.168306154
0.20655446,0.191204334,0.148620875,0.168312871
0.206421077,0.191223455,0.148572294,0.168319512
0.206287737,0.191242466,0.148523684,0.168326079
0.206154441,0.191261363,0.148475049,0.168332571
0.206021192,0.191280144,0.148426391,0.16833899
0.205887995,0.191298807,0.148377714,0.168345337
0.205754851,0.191317351,0.148329021,0.168351612
0.205621766,0.191335775,0.148280314,0.168357817
0.205488742,0.191354078,0.148231598,0.168363952
0.205355783,0.191372259,0.148182874,0.16837002
0.205222893,0.191390317,0.148134147,0.168376024
0.205090077,0.191408254,0.148085418,0.168381964
0.204957338,0.191426068,0.148036692,0.168387842
0.20482468,0.191443762,0.147987973,0.168393662
0.204692106,0.191461335,0.147939263,0.168399425
0.204559619,0.191478788,0.147890566,0.168405132
0.204427224,0.191496122,0.147841886,0.168410786
0.204294922,0.191513337,0.147793227,0.168416386
0.204162717,0.191530433,0.147744591,0.168421934
0.204030612,0.19154741,0.147695983,0.168427431
0.203898609,0.191564268,0.147647405,0.168432875
0.203766713,0.191581005,0.14759886,0.168438267
0.203634925,0.191597622,0.147550351,0.168443606
0.203503251,0.191614118,0.147501883,0.168448893
0.203371691,0.191630491,0.147453459,0.168454125
0.203240251,0.19164674,0.147405083,0.168459303
0.203108932,0.191662865,0.147356758,0.168464425
0.202977738,0.191678864,0.147308489,0.168469491
0.202846672,0.191694735,0.14726028,0.1684745
0.202715739,0.191710477,0.147212136,0.16847945
0.202584942,0.191726088,0.147164063,0.168484338
0.202454286,0.191741567,0.147116064,0.168489164
0.202323774,0.19175691,0.147068144,0.168493924
0.202193412,0.191772117,0.14702031,0.168498616
0.202063201,0.191787184,0.146972566,0.168503237
0.201933146,0.19180211,0.146924917,0.168507784
0.20180325,0.191816892,0.146877369,0.168512256
0.201673515,0.19183153,0.146829929,0.168516651
0.201543946,0.191846021,0.146782601,0.168520967
0.201414547,0.191860364,0.146735392,0.168525205
0.201285319,0.191874559,0.146688306,0.168529362
0.201156268,0.191888604,0.146641349,0.168533439
0.201027397,0.1919025,0.146594527,0.168537433
0.20089871,0.191916247,0.146547843,0.168541343
0.200770209,0.191929847,0.146501303,0.168545168
0.200641898,0.191943299,0.146454912,0.168548906
0.20051378,0.191956606,0.146408673,0.168552554
0.200385858,0.191969767,0.146362592,0.16855611
0.200258133,0.191982785,0.146316672,0.168559572
0.20013061,0.19199566,0.146270919,0.168562937
0.200003288,0.192008393,0.146225336,0.168566201
0.199876172,0.192020986,0.146179928,0.168569362
0.199749261,0.192033439,0.146134699,0.168572417
0.199622558,0.192045753,0.146089654,0.168575363
0.199496065,0.192057928,0.146044798,0.168578195
0.199369784,0.192069963,0.146000134,0.16858091
0.199243714,0.192081858,0.145955667,0.168583506
0.199117859,0.192093613,0.1459114,0.168585978
0.198992219,0.192105228,0.145867339,0.168588323
0.198866797,0.192116704,0.145823485,0.16859054
0.198741595,0.19212804,0.145779844,0.168592627
0.198616615,0.192139237,0.14573642,0.168594581
0.198491858,0.192150297,0.145693215,0.168596403
0.198367326,0.192161219,0.145650234,0.168598091
0.19824302,0.192172006,0.145607482,0.168599644
0.198118943,0.192182658,0.145564961,0.16860106
0.197995094,0.192193178,0.145522676,0.16860234
0.197871475,0.192203568,0.145480632,0.168603481
0.197748087,0.192213828,0.14543883,0.168604484
0.197624932,0.192223962,0.145397276,0.168605348
0.197502012,0.192233971,0.145355972,0.168606072
0.197379329,0.192243856,0.145314921,0.168606657
0.197256886,0.19225362,0.145274127,0.168607101
0.197134686,0.192263262,0.145233591,0.168607404
0.197012734,0.192272785,0.145193316,0.168607564
0.196891033,0.192282189,0.145153305,0.168607579
0.196769587,0.192291475,0.145113559,0.16860745
0.1966484,0.192300642,0.145074082,0.168607173
0.196527476,0.192309692,0.145034875,0.168606746
0.196406819,0.192318625,0.14499594,0.168606168
0.196286434,0.192327439,0.14495728,0.168605436
0.196166323,0.192336135,0.144918899,0.168604548
0.196046491,0.192344712,0.144880797,0.168603501
0.195926942,0.19235317,0.144842977,0.168602294
0.195807679,0.192361507,0.144805442,0.168600925
0.195688705,0.192369723,0.144768194,0.168599393
0.195570025,0.192377816,0.144731233,0.168597696
0.19545164,0.192385786,0.144694561,0.168595833
0.195333555,0.192393631,0.144658181,0.168593802
0.195215772,0.192401353,0.144622092,0.1685916
0.195098293,0.192408949,0.144586295,0.168589225
0.194981122,0.19241642,0.144550791,0.168586675
0.19486426,0.192423766,0.14451558,0.168583947
0.194747711,0.192430985,0.144480664,0.168581039
0.194631476,0.192438076,0.14444604,0.168577949
0.194515558,0.19244504,0.144411711,0.168574674
0.19439996,0.192451875,0.144377676,0.168571212
0.194284685,0.19245858,0.144343934,0.168567561
0.194169736,0.192465155,0.144310485,0.168563718
0.194055114,0.192471599,0.144277329,0.168559684
0.193940823,0.192477912,0.144244466,0.168555457
0.193826865,0.192484093,0.144211895,0.168551038
0.193713243,0.192490142,0.144179615,0.168546424
0.19359996,0.192496057,0.144147625,0.168541617
0.193487019,0.192501839,0.144115925,0.168536616
0.193374425,0.192507486,0.144084513,0.168531419
0.193262181,0.192512998,0.144053388,0.168526027
0.193150289,0.192518374,0.144022549,0.168520437
0.193038755,0.192523614,0.143991996,0.168514651
0.192927581,0.192528718,0.143961729,0.168508666
0.192816772,0.192533686,0.143931746,0.168502482
0.192706332,0.192538518,0.143902047,0.168496098
0.192596264,0.192543214,0.143872633,0.168489514
0.192486573,0.192547774,0.143843505,0.168482728
0.192377263,0.192552198,0.143814662,0.168475741
0.192268338,0.192556488,0.143786107,0.168468552
0.192159803,0.192560642,0.143757839,0.16846116
0.192051663,0.192564661,0.143729862,0.168453563
0.191943923,0.192568544,0.143702175,0.168445762
0.191836588,0.19257229,0.14367478,0.168437752
0.191729664,0.1925759,0.143647679,0.168429534
0.191623157,0.192579373,0.143620873,0.168421104
0.191517074,0.192582707,0.143594364,0.168412461
0.191411421,0.192585903,0.143568151,0.168403602
0.191306206,0.19258896,0.143542237,0.168394524
0.191201435,0.192591878,0.143516623,0.168385226
0.191097115,0.192594656,0.143491309,0.168375704
0.190993252,0.192597295,0.143466297,0.168365957
0.190889852,0.192599792,0.143441588,0.168355981
0.190786921,0.192602149,0.143417184,0.168345774
0.190684465,0.192604364,0.143393085,0.168335333
0.190582489,0.192606437,0.143369292,0.168324654
0.190480997,0.192608368,0.143345807,0.168313733
0.190379995,0.192610155,0.143322629,0.168302568
0.190279487,0.192611797,0.143299759,0.168291154
0.190179478,0.192613295,0.143277199,0.168279487
0.190079971,0.192614648,0.143254947,0.168267563
0.18998097,0.192615855,0.143233005,0.16825538
0.18988248,0.192616914,0.143211374,0.168242933
0.189784505,0.192617825,0.143190055,0.168230221
0.189687048,0.192618588,0.143169048,0.168217242
0.189590112,0.192619201,0.143148354,0.168203993
0.1894937,0.192619666,0.143127975,0.168190474
0.189397815,0.192619981,0.14310791,0.168176682
0.189302459,0.192620147,0.143088162,0.168162614
0.189207635,0.192620165,0.143068729,0.168148268
0.189113344,0.192620035,0.143049614,0.168133641
0.189019589,0.192619759,0.143030817,0.168118729
0.188926371,0.192619336,0.143012337,0.16810353
0.18883369,0.192618768,0.142994176,0.168088038
0.188741548,0.192618055,0.142976335,0.168072251
0.188649947,0.192617199,0.142958812,0.168056164
0.188558885,0.192616201,0.142941608,0.168039772
0.188468364,0.192615061,0.142924724,0.168023071
0.188378386,0.192613781,0.142908159,0.168006057
0.18828895,0.192612361,0.142891913,0.167988724
0.188200059,0.192610803,0.142875986,0.167971068
0.188111715,0.192609107,0.142860376,0.167953083
0.188023918,0.192607274,0.142845084,0.167934764
0.187936671,0.192605305,0.14283011,0.167916108
0.187849977,0.192603201,0.142815452,0.167897109
0.187763836,0.192600961,0.14280111,0.167877761
0.187678252,0.192598587,0.142787084,0.167858061
0.187593226,0.192596077,0.142773372,0.167838002
0.18750876,0.192593431,0.142759973,0.167817579
0.187424856,0.19259065,0.142746887,0.167796786
0.187341514,0.192587732,0.142734111,0.16777562
0.187258735,0.192584677,0.142721645,0.167754073
0.187176522,0.192581485,0.142709488,0.167732142
0.187094873,0.192578157,0.142697638,0.167709823
0.187013791,0.192574695,0.142686096,0.167687113
0.186933276,0.192571101,0.142674861,0.167664011
0.186853331,0.192567375,0.142663932,0.167640516
0.186773958,0.19256352,0.142653308,0.167616627
0.18669516,0.192559538,0.14264299,0.167592345
0.186616938,0.192555429,0.142632976,0.167567669
0.186539298,0.192551195,0.142623266,0.167542599
0.186462242,0.192546837,0.142613861,0.167517136
0.186385776,0.192542355,0.142604759,0.167491279
0.186309904,0.192537751,0.14259596,0.167465029
0.18623463,0.192533026,0.142587465,0.167438386
0.186159959,0.19252818,0.142579273,0.167411351
0.186085896,0.192523216,0.142571384,0.167383925
0.186012443,0.192518135,0.142563797,0.167356111
0.185939606,0.192512939,0.142556513,0.16732791
0.185867388,0.19250763,0.142549532,0.167299324
0.185795794,0.19250221,0.142542851,0.167270356
0.185724829,0.192496681,0.142536472,0.167241008
0.185654498,0.192491045,0.142530393,0.167211284
0.185584805,0.192485303,0.142524613,0.167181187
0.185515755,0.192479457,0.142519134,0.16715072
0.185447352,0.192473507,0.142513954,0.167119886
0.185379601,0.192467455,0.142509074,0.167088687
0.185312504,0.192461303,0.142504493,0.167057125
0.185246067,0.192455053,0.142500211,0.167025204
0.185180294,0.192448708,0.142496228,0.166992926
0.185115188,0.19244227,0.142492543,0.166960292
0.185050753,0.192435741,0.142489157,0.166927306
0.184986994,0.192429126,0.142486069,0.166893968
0.184923915,0.192422426,0.142483283,0.166860281
0.18486152,0.192415645,0.142480798,0.166826248
0.184799813,0.192408785,0.142478616,0.166791868
0.184738796,0.19240185,0.142476739,0.166757143
0.184678473,0.192394843,0.142475166,0.166722076
0.184618847,0.19238777,0.1424739,0.166686666
0.184559921,0.192380632,0.142472941,0.166650915
0.184501696,0.192373433,0.14247229,0.166614823
0.184444175,0.192366178,0.142471947,0.166578391
0.184387359,0.19235887,0.142471913,0.16654162
0.184331252,0.192351514,0.142472187,0.16650451
0.184275852,0.192344113,0.14247277,0.166467061
0.184221163,0.192336671,0.142473661,0.166429276
0.184167185,0.192329191,0.142474861,0.166391154
0.184113918,0.192321676,0.14247637,0.166352699
0.184061363,0.192314129,0.142478189,0.166313911
0.184009522,0.192306552,0.142480319,0.166274793
0.183958394,0.192298949,0.142482761,0.166235348
0.18390798,0.192291321,0.142485515,0.166195579
0.183858281,0.192283671,0.142488581,0.166155491
0.183809298,0.192276,0.14249196,0.166115088
0.183761031,0.192268312,0.142495652,0.166074375
0.18371348,0.192260608,0.142499657,0.166033359
0.183666647,0.192252889,0.142503976,0.165992047
0.183620532,0.192245158,0.142508608,0.165950447
0.183575134,0.192237418,0.142513553,0.165908567
0.183530456,0.192229669,0.142518813,0.165866417
0.183486495,0.192221916,0.142524386,0.165824003
0.183443254,0.192214161,0.142530274,0.165781335
0.183400732,0.192206408,0.142536477,0.165738421
0.183358931,0.192198659,0.142542995,0.16569527
0.183317849,0.19219092,0.142549829,0.165651891
0.183277487,0.192183193,0.14255698,0.165608292
0.183237846,0.192175481,0.142564449,0.165564484
0.183198924,0.192167788,0.142572238,0.165520473
0.183160721,0.192160117,0.142580349,0.165476271
0.183123237,0.192152473,0.142588783,0.165431885
0.18308647,0.192144857,0.142597544,0.165387325
0.183050419,0.192137274,0.142606634,0.165342597
0.183015083,0.192129724,0.142616057,0.16529771
0.182980461,0.192122212,0.142625816,0.165252672
0.18294655,0.192114738,0.142635914,0.165207488
0.18291335,0.192107303,0.142646356,0.165162166
0.182880859,0.19209991,0.142657144,0.165116713
0.182849075,0.19209256,0.142668283,0.165071134
0.182817997,0.192085254,0.142679778,0.165025437
0.182787622,0.192077993,0.142691632,0.164979627
0.182757948,0.192070778,0.142703849,0.16493371
0.182728973,0.192063608,0.142716433,0.164887691
0.182700694,0.192056484,0.142729388,0.164841577
0.182673107,0.192049405,0.142742717,0.164795374
0.182646211,0.19204237,0.142756423,0.164749086
0.182620003,0.192035379,0.142770511,0.164702721
0.182594479,0.19202843,0.142784982,0.164656284
0.182569636,0.192021522,0.142799839,0.164609779
0.182545472,0.192014653,0.142815086,0.164563213
0.182521982,0.192007821,0.142830725,0.164516592
0.182499163,0.192001027,0.142846757,0.164469919
0.182477012,0.191994267,0.142863185,0.164423201
0.182455525,0.191987543,0.142880012,0.164376442
0.1824347,0.191980853,0.142897237,0.164329647
0.182414532,0.191974198,0.142914863,0.16428282
0.182395019,0.191967576,0.142932891,0.164235968
0.182376156,0.191960988,0.142951323,0.164189095
0.182357939,0.191954432,0.142970159,0.164142208
0.182340365,0.191947908,0.1429894,0.164095312
0.182323429,0.191941414,0.143009048,0.164048413
0.182307128,0.19193495,0.143029103,0.164001517
0.182291459,0.191928514,0.143049567,0.163954629
0.182276416,0.191922107,0.143070438,0.163907755
0.182261996,0.191915726,0.14309172,0.163860899
0.182248195,0.191909371,0.143113412,0.163814065
0.182235008,0.191903043,0.143135515,0.163767259
0.182222432,0.191896739,0.143158031,0.163720483
0.182210463,0.191890462,0.143180962,0.163673742
0.182199095,0.19188421,0.143204309,0.163627039
0.182188324,0.191877985,0.143228073,0.163580377
0.182178148,0.191871787,0.143252258,0.163533762
0.182168562,0.191865616,0.143276866,0.163487194
0.182159563,0.191859473,0.143301897,0.163440679
0.182151146,0.191853358,0.143327355,0.163394218
0.182143309,0.191847272,0.143353241,0.163347814
0.182136046,0.191841215,0.143379557,0.163301469
0.182129353,0.191835188,0.143406305,0.163255185
0.182123227,0.191829195,0.143433486,0.163208965
0.182117663,0.191823236,0.143461102,0.16316281
0.182112656,0.191817314,0.143489154,0.163116723
0.182108201,0.191811431,0.143517644,0.163070704
0.182104293,0.19180559,0.143546572,0.163024755
0.182100928,0.191799792,0.143575942,0.162978877
0.182098101,0.19179404,0.143605753,0.162933072
0.182095808,0.191788335,0.143636008,0.16288734
0.182094044,0.191782681,0.143666709,0.162841683
0.182092804,0.19177708,0.143697858,0.1627961
0.182092083,0.191771536,0.143729456,0.162750595
0.182091878,0.191766052,0.143761505,0.16270517
0.182092183,0.191760633,0.143794006,0.162659826
0.182092993,0.191755283,0.143826961,0.162614566
0.182094305,0.191750007,0.143860369,0.162569393
0.182096114,0.191744809,0.143894233,0.162524308
0.182098414,0.191739694,0.143928551,0.162479313
0.182101203,0.191734666,0.143963325,0.162434411
0.182104476,0.191729731,0.143998554,0.162389604
0.182108229,0.191724892,0.144034237,0.162344891
0.182112458,0.191720155,0.144070374,0.162300276
0.182117159,0.191715523,0.144106965,0.16225576
0.182122329,0.191711,0.14414401,0.162211343
0.182127963,0.191706592,0.144181507,0.162167029
0.182134059,0.191702301,0.144219458,0.162122817
0.182140612,0.191698133,0.144257863,0.16207871
0.18214762,0.191694091,0.144296721,0.162034709
0.182155078,0.191690181,0.144336033,0.161990816
0.182162983,0.191686408,0.1443758,0.161947034
0.182171332,0.191682775,0.144416022,0.161903366
0.18218012,0.191679288,0.144456702,0.161859814
0.182189345,0.191675951,0.14449784,0.161816383
0.182199003,0.191672767,0.144539437,0.161773076
0.18220909,0.191669742,0.144581495,0.161729896
0.182219603,0.19166688,0.144624013,0.161686848
0.182230537,0.191664184,0.144666995,0.161643934
0.18224189,0.191661659,0.14471044,0.161601157
0.182253656,0.191659309,0.144754349,0.161558521
0.182265834,0.191657139,0.144798724,0.161516028
0.182278419,0.191655153,0.144843565,0.161473681
0.182291407,0.191653356,0.144888872,0.161431481
0.182304795,0.191651752,0.144934647,0.161389431
0.18231858,0.191650345,0.14498089,0.161347534
0.182332756,0.191649139,0.145027603,0.161305791
0.18234732,0.191648136,0.145074785,0.161264204
0.182362268,0.191647341,0.145122439,0.161222775
0.182377595,0.191646755,0.145170564,0.161181507
0.182393296,0.191646383,0.145219164,0.161140401
0.182409368,0.191646226,0.145268238,0.161099461
0.182425804,0.191646288,0.145317787,0.161058687
0.1824426,0.191646571,0.145367812,0.161018084
0.182459753,0.191647079,0.145418314,0.160977652
0.182477258,0.191647815,0.145469293,0.160937397
0.182495111,0.191648783,0.14552075,0.160897322
0.182513308,0.191649985,0.145572686,0.160857432
0.182531844,0.191651427,0.145625101,0.160817731
0.182550715,0.191653114,0.145677997,0.160778224
0.182569917,0.191655048,0.145731375,0.160738915
0.182589445,0.191657235,0.145785235,0.160699808
0.182609298,0.191659678,0.145839579,0.160660905
0.18262947,0.19166238,0.145894407,0.160622211
0.18264996,0.191665346,0.145949721,0.160583729
0.182670764,0.191668577,0.14600552,0.16054546
0.182691879,0.191672078,0.146061805,0.160507406
0.182713302,0.19167585,0.146118575,0.160469571
0.18273503,0.191679897,0.146175832,0.160431955
0.182757059,0.191684221,0.146233574,0.160394559
0.182779387,0.191688824,0.146291801,0.160357385
0.182802011,0.191693709,0.146350512,0.160320434
0.182824927,0.191698878,0.146409706,0.160283705
0.182848133,0.191704332,0.146469382,0.1602472
0.182871624,0.191710075,0.146529539,0.160210918
0.182895397,0.191716106,0.146590176,0.16017486
0.182919449,0.191722426,0.14665129,0.160139025
0.182943777,0.191729037,0.146712879,0.160103413
0.182968378,0.191735939,0.146774944,0.160068026
0.182993247,0.191743132,0.14683748,0.160032861
0.183018382,0.191750616,0.146900488,0.15999792
0.183043779,0.191758391,0.146963965,0.159963202
0.183069435,0.191766457,0.14702791,0.159928706
0.183095347,0.191774812,0.147092322,0.159894431
0.18312151,0.191783458,0.147157199,0.159860379
0.183147923,0.191792394,0.147222539,0.159826547
0.183174581,0.19180162,0.14728834,0.159792936
0.183201481,0.191811137,0.1473546,0.159759547
0.183228621,0.191820945,0.147421316,0.159726379
0.183255998,0.191831045,0.147488486,0.159693433
0.183283608,0.191841436,0.147556108,0.159660711
0.183311448,0.191852122,0.147624179,0.159628213
0.183339515,0.191863102,0.147692697,0.159595943
0.183367806,0.191874377,0.147761659,0.159563901
0.183396318,0.191885949,0.147831062,0.159532091
0.183425048,0.191897817,0.147900904,0.159500517
0.183453995,0.191909984,0.14797118,0.159469182
0.183483158,0.191922448,0.148041889,0.15943809
0.183512534,0.191935212,0.148113026,0.159407244
0.183542122,0.191948276,0.148184588,0.15937665
0.183571918,0.19196164,0.148256571,0.159346311
0.183601921,0.191975304,0.14832897,0.159316231
0.183632129,0.191989271,0.148401783,0.159286413
0.183662538,0.192003539,0.148475005,0.15925686
0.183693145,0.192018109,0.148548634,0.159227576
0.18372395,0.192032981,0.148622666,0.159198561
0.183754948,0.192048157,0.148697098,0.15916982
0.183786137,0.192063637,0.148771928,0.159141352
0.183817515,0.192079422,0.148847154,0.15911316
0.183849079,0.192095511,0.148922773,0.159085246
0.183880824,0.192111906,0.148998784,0.159057609
0.183912749,0.192128605,0.149075183,0.159030252
0.183944849,0.19214561,0.149151968,0.159003177
0.18397712,0.19216292,0.149229137,0.158976384
0.184009559,0.192180536,0.149306688,0.158949876
0.184042161,0.192198458,0.149384618,0.158923655
0.184074923,0.192216687,0.149462925,0.158897722
0.18410784,0.192235223,0.149541608,0.158872078
0.184140908,0.192254068,0.149620664,0.158846725
0.184174123,0.192273222,0.14970009,0.158821663
0.18420748,0.19229269,0.149779883,0.158796893
0.184240975,0.192312473,0.149860042,0.158772416
0.184274605,0.192332573,0.149940563,0.158748234
0.184308364,0.192352993,0.150021444,0.158724347
0.184342249,0.192373733,0.15010268,0.158700756
0.184376254,0.192394794,0.15018427,0.158677464
0.184410375,0.192416178,0.150266209,0.158654472
0.18444461,0.192437884,0.150348494,0.158631781
0.184478955,0.192459914,0.15043112,0.158609392
0.184513406,0.192482267,0.150514084,0.158587305
0.184547963,0.192504943,0.150597382,0.15856552
0.184582621,0.192527941,0.150681009,0.158544037
0.184617381,0.192551263,0.15076496,0.158522855
0.184652241,0.192574906,0.150849231,0.158501975
0.1846872,0.192598869,0.150933818,0.158481397
0.184722258,0.192623152,0.151018716,0.158461119
0.184757414,0.192647753,0.151103921,0.158441142
0.184792671,0.192672671,0.15118943,0.158421467
0.184828028,0.192697905,0.151275237,0.158402092
0.184863486,0.192723453,0.15136134,0.158383019
0.184899046,0.192749315,0.151447733,0.158364245
0.18493471,0.192775488,0.151534414,0.158345772
0.184970479,0.192801974,0.151621377,0.158327598
0.185006354,0.192828771,0.15170862,0.158309724
0.185042336,0.192855882,0.151796138,0.158292151
0.185078427,0.192883307,0.151883928,0.15827488
0.185114626,0.192911048,0.151971988,0.158257911
0.185150935,0.192939107,0.152060312,0.158241246
0.185187354,0.192967483,0.152148899,0.158224884
0.185223883,0.192996177,0.152237743,0.158208826
0.185260523,0.193025189,0.152326843,0.15819307
0.185297274,0.19305452,0.152416194,0.158177619
0.185334137,0.193084168,0.152505792,0.15816247
0.18537111,0.193114133,0.152595634,0.158147625
0.185408195,0.193144417,0.152685717,0.158133082
0.185445389,0.193175019,0.152776039,0.158118842
0.185482691,0.193205939,0.152866598,0.158104905
0.185520101,0.193237177,0.15295739,0.158091272
0.185557619,0.193268732,0.153048414,0.158077945
0.185595243,0.193300605,0.153139668,0.158064924
0.185632972,0.193332795,0.15323115,0.158052211
0.185670807,0.193365303,0.153322858,0.158039807
0.185708745,0.193398128,0.153414789,0.158027714
0.185746788,0.193431271,0.153506943,0.158015933
0.185784933,0.193464734,0.153599316,0.158004468
0.18582318,0.19349852,0.153691906,0.157993319
0.185861528,0.193532631,0.153784712,0.15798249
0.185899976,0.193567071,0.153877731,0.157971984
0.185938522,0.193601841,0.15397096,0.157961802
0.185977164,0.193636945,0.154064398,0.157951948
0.186015901,0.193672384,0.154158042,0.157942426
0.18605473,0.193708161,0.154251888,0.157933239
0.186093648,0.193744277,0.154345934,0.157924389
0.186132653,0.193780734,0.154440177,0.157915879
0.186171742,0.193817532,0.154534615,0.157907712
0.186210911,0.193854674,0.154629243,0.157899892
0.186250157,0.19389216,0.154724061,0.157892421
0.186289476,0.193929989,0.154819064,0.157885305
0.186328864,0.193968165,0.15491425,0.157878547
0.186368318,0.194006685,0.155009616,0.157872151
0.186407833,0.194045552,0.155105159,0.157866123
0.186447405,0.194084765,0.155200877,0.157860465
0.186487029,0.194124324,0.155296767,0.157855184
0.186526703,0.194164228,0.155392825,0.157850282
0.186566421,0.194204477,0.15548905,0.157845765
0.18660618,0.194245069,0.155585436,0.157841635
0.186645974,0.194286003,0.155681981,0.157837896
0.1866858,0.194327279,0.155778681,0.157834554
0.186725653,0.194368895,0.155875532,0.157831613
0.186765528,0.194410849,0.155972529,0.157829078
0.18680542,0.194453139,0.156069668,0.157826952
0.186845324,0.194495765,0.156166945,0.157825242
0.186885235,0.194538722,0.156264355,0.15782395
0.186925147,0.19458201,0.156361894,0.157823081
0.186965056,0.194625627,0.156459558,0.157822638
0.187004955,0.194669569,0.156557342,0.157822624
0.187044838,0.194713835,0.156655242,0.157823043
0.187084701,0.194758424,0.156753255,0.157823896
0.187124536,0.194803334,0.156851375,0.157825186
0.187164339,0.194848561,0.156949599,0.157826916
0.187204101,0.194894105,0.157047922,0.157829085
0.187243818,0.194939964,0.157146341,0.157831696
0.187283483,0.194986134,0.15724485,0.15783475
0.187323089,0.195032614,0.157343445,0.157838245
0.18736263,0.195079402,0.157442123,0.157842184
0.187402099,0.195126494,0.157540881,0.157846563
0.187441489,0.19517389,0.157639715,0.157851384
0.187480794,0.195221585,0.157738624,0.157856644
0.187520006,0.195269579,0.157837606,0.157862341
0.187559119,0.195317868,0.15793666,0.157868475
0.187598124,0.195366451,0.158035784,0.157875043
0.187637016,0.195415324,0.158134979,0.157882045
0.187675788,0.195464486,0.158234243,0.157889479
0.187714432,0.195513934,0.158333574,0.157897342
0.187752943,0.195563665,0.158432973,0.157905632
0.187791314,0.195613678,0.158532438,0.157914347
0.187829537,0.195663968,0.158631968,0.157923484
0.187867607,0.195714532,0.158731561,0.157933042
0.187905515,0.195765368,0.158831215,0.157943018
0.187943255,0.195816471,0.158930929,0.15795341
0.187980821,0.195867838,0.159030701,0.157964216
0.188018205,0.195919467,0.159130528,0.157975434
0.188055402,0.195971355,0.15923041,0.157987062
0.188092405,0.196023499,0.159330344,0.157999097
0.188129209,0.196075897,0.159430327,0.158011538
0.188165809,0.196128547,0.159530357,0.158024384
0.188202199,0.196181444,0.159630432,0.158037632
0.188238374,0.196234586,0.159730549,0.158051281
0.18827433,0.196287971,0.159830704,0.15806533
0.188310061,0.196341596,0.159930896,0.158079776
0.188345563,0.196395457,0.160031121,0.158094617
0.188380831,0.196449553,0.160131377,0.158109852
0.18841586,0.196503881,0.160231661,0.158125478
0.188450646,0.196558438,0.16033197,0.158141493
0.188485185,0.196613222,0.160432302,0.158157894
0.188519472,0.196668229,0.160532653,0.158174679
0.188553502,0.196723456,0.160633019,0.158191845
0.188587273,0.1967789,0.160733398,0.15820939
0.188620779,0.196834559,0.160833785,0.158227313
0.188654017,0.196890427,0.160934177,0.158245612
0.188686982,0.196946503,0.161034569,0.158264286
0.188719672,0.197002782,0.161134958,0.158283335
0.188752081,0.197059261,0.16123534,0.158302757
0.188784207,0.197115936,0.161335711,0.158322553
0.188816047,0.197172803,0.161436067,0.158342721
0.188847597,0.197229858,0.161536404,0.158363263
0.188878856,0.197287098,0.161636717,0.158384177
0.188909821,0.197344517,0.161737003,0.158405465
0.18894049,0.197402113,0.161837258,0.158427126
0.188970859,0.19745988,0.161937479,0.158449161
0.189000927,0.197517816,0.162037662,0.158471571
0.18903069,0.197575916,0.162137804,0.158494356
0.189060145,0.197634176,0.162237904,0.15851752
0.189089289,0.197692593,0.162337958,0.158541064
0.189118119,0.197751162,0.162437964,0.158564991
0.189146632,0.197809881,0.162537921,0.158589305
0.189174825,0.197868745,0.162637826,0.158614009
0.189202695,0.197927752,0.162737677,0.158639105
0.18923024,0.197986897,0.162837472,0.158664597
0.189257456,0.198046177,0.162937208,0.158690489
0.18928434,0.198105587,0.163036882,0.158716785
0.189310889,0.198165124,0.163136493,0.158743489
0.189337099,0.198224783,0.163236038,0.158770607
0.189362969,0.198284558,0.163335513,0.158798141
0.189388495,0.198344445,0.163434917,0.158826097
0.189413674,0.198404439,0.163534246,0.158854479
0.189438504,0.198464535,0.163633496,0.15888329
0.189462982,0.198524729,0.163732665,0.158912536
0.189487107,0.198585016,0.163831749,0.158942217
0.189510877,0.198645392,0.163930744,0.158972339
0.18953429,0.198705853,0.164029646,0.159002905
0.189557348,0.198766396,0.164128451,0.159033918
0.189580049,0.19882702,0.164227154,0.159065383
0.189602394,0.198887724,0.164325753,0.159097302
0.189624383,0.198948505,0.164424241,0.159129684
0.189646019,0.199009363,0.164522614,0.159162532
0.189667301,0.199070298,0.164620869,0.159195855
0.189688232,0.199131307,0.164719,0.159229655
0.189708813,0.199192388,0.164817005,0.159263941
0.189729044,0.199253541,0.164914878,0.159298714
0.189748926,0.199314762,0.165012616,0.159333982
0.189768462,0.199376049,0.165110214,0.159369746
0.18978765,0.199437399,0.165207669,0.159406012
0.189806493,0.199498809,0.165304974,0.159442783
0.189824992,0.199560276,0.165402126,0.15948006
0.189843146,0.199621796,0.165499119,0.159517847
0.189860957,0.199683367,0.165595948,0.159556144
0.189878426,0.199744984,0.165692607,0.159594953
0.189895552,0.199806646,0.165789091,0.159634275
0.189912336,0.199868348,0.165885395,0.15967411
0.189928779,0.199930089,0.165981513,0.159714458
0.18994488,0.199991866,0.166077442,0.159755319
0.189960638,0.200053677,0.166173175,0.159796693
0.189976054,0.200115521,0.166268707,0.15983858
0.189991126,0.200177397,0.166364034,0.159880981
0.190005854,0.200239305,0.166459149,0.159923896
0.190020235,0.200301243,0.166554048,0.159967326
0.19003427,0.200363212,0.166648724,0.160011272
0.190047955,0.200425212,0.166743173,0.160055735
0.190061291,0.200487241,0.166837389,0.160100717
0.190074275,0.2005493,0.166931365,0.16014622
0.190086908,0.200611389,0.167025096,0.160192245
0.19009919,0.200673508,0.167118577,0.160238793
0.190111121,0.200735657,0.167211802,0.160285865
0.190122703,0.200797836,0.167304766,0.160333463
0.190133938,0.200860047,0.167397464,0.160381588
0.190144829,0.200922289,0.167489891,0.160430244
0.19015538,0.200984564,0.167582042,0.160479434
0.190165595,0.201046872,0.167673912,0.16052916
0.190175476,0.201109213,0.167765496,0.160579426
0.190185027,0.201171587,0.167856788,0.160630234
0.190194252,0.201233995,0.167947784,0.160681588
0.190203154,0.201296438,0.16803848,0.16073349
0.190211736,0.201358916,0.168128871,0.160785942
0.190220001,0.201421428,0.168218952,0.160838947
0.190227951,0.201483976,0.168308721,0.160892507
0.190235591,0.201546557,0.168398174,0.160946625
0.190242921,0.201609172,0.168487308,0.161001305
0.190249946,0.201671819,0.168576119,0.161056548
0.190256668,0.201734498,0.168664605,0.161112358
0.19026309,0.201797209,0.168752761,0.161168737
0.190269212,0.20185995,0.168840587,0.161225687
0.190275039,0.201922721,0.168928078,0.161283211
0.19028057,0.201985523,0.169015231,0.16134131
0.190285809,0.202048353,0.169102044,0.161399986
0.190290757,0.202111212,0.169188514,0.161459241
0.190295415,0.202174098,0.169274637,0.161519076
0.190299785,0.202237011,0.169360409,0.161579494
0.190303868,0.20229995,0.169445829,0.161640495
0.190307666,0.202362914,0.169530892,0.161702081
0.19031118,0.202425904,0.169615596,0.161764253
0.190314411,0.202488918,0.169699939,0.161827012
0.190317358,0.202551956,0.169783918,0.161890358
0.190320024,0.202615017,0.16986753,0.161954291
0.190322407,0.202678098,0.169950774,0.162018811
0.190324509,0.202741198,0.170033647,0.162083916
0.190326329,0.202804316,0.170116148,0.162149607
0.190327868,0.202867451,0.170198273,0.162215881
0.190329126,0.202930601,0.170280023,0.162282737
0.190330102,0.202993766,0.170361395,0.162350174
0.190330797,0.203056945,0.17044239,0.162418189
0.190331211,0.20312014,0.170523005,0.162486779
0.190331341,0.203183351,0.17060324,0.162555941
0.190331189,0.203246577,0.170683093,0.162625673
0.190330754,0.20330982,0.170762565,0.162695971
0.190330035,0.20337308,0.170841655,0.162766833
0.190329031,0.203436358,0.170920361,0.162838256
0.190327742,0.203499654,0.170998684,0.162910239
0.190326166,0.203562971,0.171076621,0.162982783
0.190324302,0.203626308,0.171154173,0.163055888
0.190322151,0.203689668,0.171231336,0.163129556
0.19031971,0.203753051,0.171308111,0.163203787
0.190316979,0.203816461,0.171384495,0.16327858
0.190313957,0.203879896,0.171460486,0.163353936
0.190310644,0.20394336,0.171536082,0.163429852
0.190307041,0.204006854,0.171611281,0.163506329
0.190303146,0.20407038,0.171686081,0.163583363
0.190298959,0.204133939,0.17176048,0.163660953
0.19029448,0.204197532,0.171834475,0.163739097
0.190289709,0.20426116,0.171908066,0.163817792
0.190284645,0.204324825,0.171981249,0.163897035
0.190279288,0.204388527,0.172054022,0.163976823
0.190273637,0.204452267,0.172126384,0.164057152
0.190267692,0.204516045,0.172198331,0.164138019
0.190261453,0.204579863,0.172269862,0.16421942
0.190254919,0.20464372,0.172340973,0.164301351
0.190248089,0.204707617,0.172411663,0.164383807
0.190240964,0.204771555,0.172481928,0.164466783
0.190233543,0.204835533,0.172551766,0.164550275
0.190225824,0.204899552,0.172621174,0.164634277
0.190217809,0.204963612,0.172690149,0.164718785
0.190209496,0.205027713,0.172758689,0.164803796
0.190200885,0.205091854,0.172826791,0.164889305
0.190191976,0.205156035,0.172894452,0.164975309
0.190182769,0.205220256,0.17296167,0.165061804
0.190173263,0.205284517,0.17302844,0.165148787
0.190163459,0.205348817,0.173094761,0.165236254
0.190153357,0.205413153,0.173160628,0.165324202
0.190142957,0.205477525,0.173226039,0.165412628
0.190132259,0.205541932,0.173290988,0.165501529
0.190121263,0.20560637,0.173355474,0.165590901
0.19010997,0.205670838,0.17341949,0.165680743
0.190098379,0.205735335,0.173483034,0.165771054
0.190086492,0.205799859,0.173546101,0.165861831
0.190074308,0.205864409,0.173608686,0.165953073
0.190061827,0.205928981,0.173670785,0.166044779
0.190049048,0.205993575,0.173732393,0.166136945
0.190035972,0.206058187,0.173793505,0.166229571
0.190022597,0.206122815,0.173854116,0.166322655
0.190008923,0.206187458,0.173914221,0.166416193
0.189994949,0.206252113,0.173973816,0.166510186
0.189980675,0.206316777,0.174032896,0.16660463
0.1899661,0.206381448,0.174091456,0.166699523
0.189951224,0.206446123,0.174149494,0.166794863
0.189936049,0.206510799,0.174207005,0.166890647
0.189920577,0.206575473,0.174263986,0.166986871
0.189904809,0.206640142,0.174320435,0.167083533
0.189888747,0.206704804,0.174376351,0.167180628
0.189872395,0.206769455,0.174431733,0.167278155
0.189855756,0.206834093,0.174486579,0.167376108
0.189838832,0.206898715,0.174540889,0.167474485
0.189821626,0.206963319,0.174594663,0.167573284
0.189804143,0.2070279,0.174647901,0.167672501
0.189786384,0.207092457,0.174700602,0.167772136
0.189768353,0.207156986,0.174752765,0.167872185
0.189750054,0.207221483,0.174804391,0.167972647
0.189731491,0.207285947,0.174855479,0.168073521
0.189712667,0.207350372,0.174906027,0.168174804
0.189693585,0.207414754,0.174956037,0.168276493
0.189674248,0.207479091,0.175005507,0.168378586
0.189654661,0.207543377,0.175054437,0.168481081
0.189634825,0.207607608,0.175102827,0.168583974
0.189614746,0.207671781,0.175150676,0.168687262
0.189594425,0.207735892,0.175197984,0.168790941
0.189573867,0.207799935,0.175244752,0.168895008
0.189553075,0.207863909,0.175290978,0.168999458
0.189532052,0.207927807,0.175336663,0.169104287
0.1895108,0.207991627,0.175381807,0.16920949
0.189489324,0.208055365,0.175426412,0.169315062
0.189467624,0.208119017,0.175470477,0.169420998
0.189445704,0.208182577,0.175514004,0.169527292
0.189423565,0.208246044,0.175556995,0.169633938
0.189401208,0.208309413,0.17559945,0.169740931
0.189378635,0.20837268,0.175641372,0.169848266
0.189355848,0.208435842,0.17568276,0.169955938
0.189332847,0.208498897,0.175723617,0.170063945
0.189309634,0.208561839,0.175763943,0.170172281
0.189286209,0.208624666,0.17580374,0.170280944
0.189262576,0.208687374,0.175843009,0.170389931
0.189238734,0.208749961,0.175881753,0.170499238
0.189214688,0.208812423,0.175919973,0.170608862
0.189190438,0.208874759,0.175957672,0.1707188
0.189165989,0.208936966,0.175994853,0.170829049
0.189141343,0.208999043,0.176031518,0.170939606
0.189116503,0.20906099,0.176067673,0.171050468
0.189091471,0.209122803,0.176103321,0.171161632
0.18906625,0.209184483,0.176138465,0.171273094
0.189040843,0.209246026,0.17617311,0.171384853
0.189015252,0.209307432,0.17620726,0.171496904
0.188989479,0.209368698,0.176240918,0.171609245
0.188963527,0.209429821,0.176274087,0.171721873
0.188937398,0.2094908,0.176306773,0.171834787
0.188911094,0.209551633,0.176338978,0.171947986
0.188884616,0.209612316,0.176370706,0.172061469
0.188857967,0.209672846,0.17640196,0.172175236
0.188831147,0.209733223,0.176432744,0.172289286
0.188804157,0.209793442,0.176463059,0.172403617
0.188777,0.209853502,0.17649291,0.172518227
0.188749674,0.2099134,0.176522299,0.172633115
0.188722181,0.209973131,0.176551228,0.172748279
0.188694521,0.210032694,0.1765797,0.172863716
0.188666694,0.210092085,0.176607718,0.172979425
0.188638701,0.210151301,0.176635284,0.173095402
0.188610544,0.210210337,0.176662401,0.173211644
0.188582222,0.210269189,0.176689071,0.173328148
0.188553737,0.210327855,0.176715296,0.173444909
0.18852509,0.210386329,0.17674108,0.173561923
0.188496281,0.210444607,0.176766423,0.173679185
0.188467312,0.210502685,0.176791329,0.173796689
0.188438184,0.210560557,0.176815798,0.173914431
0.188408898,0.21061822,0.176839834,0.174032404
0.188379454,0.21067567,0.176863437,0.174150605
0.188349854,0.210732905,0.176886611,0.174269031
0.188320099,0.210789921,0.176909356,0.174387677
0.18829019,0.210846716,0.176931676,0.174506541
0.188260129,0.210903288,0.176953571,0.174625618
0.188229918,0.210959634,0.176975045,0.174744905
0.188199558,0.211015754,0.176996099,0.174864398
0.188169053,0.211071647,0.177016735,0.174984094
0.188138404,0.211127312,0.177036955,0.17510399
0.188107615,0.211182748,0.17705676,0.175224081
0.188076687,0.211237953,0.177076152,0.175344365
0.188045623,0.211292927,0.177095131,0.175464837
0.188014426,0.211347666,0.1771137,0.175585494
0.187983096,0.21140217,0.177131859,0.175706331
0.187951638,0.211456436,0.177149609,0.175827342
0.187920053,0.211510462,0.177166951,0.175948524
0.187888343,0.211564246,0.177183886,0.176069872
0.18785651,0.211617786,0.177200415,0.176191379
0.187824555,0.21167108,0.177216539,0.176313041
0.18779248,0.211724127,0.17723226,0.176434851
0.187760286,0.211776925,0.177247578,0.176556804
0.187727974,0.211829469,0.177262494,0.176678895
0.187695545,0.211881759,0.177277009,0.176801118
0.187663,0.211933792,0.177291124,0.176923469
0.187630339,0.211985565,0.177304841,0.177045942
0.187597564,0.212037074,0.177318162,0.177168532
0.187564673,0.212088319,0.177331088,0.177291233
0.187531669,0.212139294,0.177343623,0.17741404
0.187498551,0.212189999,0.177355768,0.177536946
0.187465319,0.212240431,0.177367525,0.177659946
0.187431975,0.212290587,0.177378898,0.177783033
0.187398518,0.212340466,0.177389887,0.177906201
0.187364948,0.212390067,0.177400495,0.178029443
0.187331265,0.212439386,0.177410724,0.178152753
0.187297469,0.212488424,0.177420578,0.178276123
0.18726356,0.212537176,0.177430059,0.178399547
0.187229536,0.212585642,0.17743917,0.178523018
0.187195397,0.212633818,0.177447915,0.17864653
0.187161143,0.212681704,0.177456296,0.178770074
0.187126773,0.212729296,0.177464318,0.178893643
0.187092286,0.212776592,0.177471985,0.17901723
0.187057682,0.212823589,0.177479301,0.179140827
0.18702296,0.212870284,0.177486268,0.179264424
0.186988121,0.212916674,0.177492891,0.179388015
0.186953162,0.212962756,0.177499173,0.179511589
0.186918084,0.213008527,0.177505118,0.179635139
0.186882886,0.213053982,0.177510729,0.179758654
0.186847567,0.213099118,0.177516009,0.179882127
0.186812126,0.213143933,0.177520963,0.180005548
0.186776563,0.213188422,0.177525593,0.180128907
0.186740876,0.213232581,0.177529905,0.180252196
0.186705067,0.213276407,0.1775339,0.180375406
0.186669135,0.213319895,0.177537583,0.180498527
0.186633079,0.213363041,0.177540957,0.180621551
0.186596901,0.213405843,0.177544024,0.18074447
0.186560598,0.213448297,0.177546789,0.180867275
0.186524172,0.2134904,0.177549252,0.180989959
0.186487624,0.213532149,0.177551418,0.181112516
0.186450952,0.213573542,0.177553288,0.18123494
0.186414159,0.213614578,0.177554865,0.181357228
0.186377246,0.213655254,0.177556151,0.181479376
0.186340212,0.213695568,0.177557146,0.181601379
0.18630306,0.21373552,0.177557854,0.181723233
0.186265789,0.213775108,0.177558275,0.181844933
0.186228403,0.213814332,0.177558411,0.181966475
0.186190901,0.213853193,0.177558263,0.182087852
0.186153286,0.213891692,0.177557832,0.182209061
0.186115558,0.213929829,0.177557119,0.182330095
0.186077719,0.213967608,0.177556126,0.182450947
0.18603977,0.21400503,0.177554854,0.182571614
0.186001711,0.214042096,0.177553303,0.182692089
0.185963545,0.214078807,0.177551474,0.182812366
0.185925272,0.214115167,0.177549366,0.18293244
0.185886894,0.214151175,0.177546981,0.183052306
0.185848411,0.214186833,0.177544318,0.183171959
0.185809825,0.214222144,0.177541377,0.183291395
0.185771137,0.214257108,0.177538158,0.183410609
0.185732349,0.214291727,0.177534662,0.183529595
0.185693463,0.214326002,0.177530888,0.183648348
0.185654479,0.214359935,0.177526838,0.183766863
0.185615398,0.214393526,0.177522512,0.183885134
0.185576223,0.214426777,0.177517911,0.184003156
0.185536955,0.214459689,0.177513038,0.184120924
0.185497594,0.214492263,0.177507893,0.184238435
0.185458143,0.214524499,0.177502477,0.184355685
0.1854186,0.214556398,0.177496793,0.184472673
0.185378967,0.21458796,0.177490841,0.184589395
0.185339245,0.214619185,0.177484623,0.184705852
0.185299433,0.214650074,0.177478138,0.184822044
0.185259532,0.214680626,0.177471389,0.184937971
0.185219541,0.214710841,0.177464376,0.185053635
0.185179461,0.214740717,0.177457099,0.185169037
0.185139291,0.214770254,0.177449559,0.185284179
0.18509903,0.214799451,0.177441757,0.185399062
0.185058678,0.214828306,0.177433694,0.185513689
0.185018234,0.214856816,0.177425371,0.185628059
0.184977697,0.214884981,0.17741679,0.185742175
0.184937066,0.214912798,0.177407953,0.185856038
0.18489634,0.214940265,0.177398861,0.185969649
0.184855518,0.214967378,0.177389516,0.186083008
0.1848146,0.214994135,0.177379921,0.186196116
0.184773584,0.215020534,0.177370077,0.186308974
0.184732469,0.21504657,0.177359986,0.186421583
0.184691255,0.215072242,0.177349651,0.186533942
0.18464994,0.215097546,0.177339072,0.186646052
0.184608522,0.215122477,0.177328253,0.186757913
0.184566999,0.215147033,0.177317193,0.186869525
0.184525371,0.21517121,0.177305896,0.186980888
0.184483636,0.215195004,0.177294362,0.187092002
0.184441792,0.215218412,0.177282595,0.187202869
0.184399838,0.215241428,0.177270596,0.187313487
0.184357771,0.21526405,0.177258367,0.187423858
0.184315589,0.215286272,0.17724591,0.187533979
0.18427329,0.21530809,0.177233229,0.18764385
0.184230872,0.215329499,0.177220324,0.18775347
0.184188332,0.215350493,0.1772072,0.187862836
0.184145669,0.215371069,0.177193857,0.187971947
0.184102879,0.215391221,0.177180298,0.188080799
0.184059961,0.215410944,0.177166526,0.188189391
0.184016912,0.215430234,0.177152544,0.188297718
0.183973731,0.215449086,0.177138354,0.188405777
0.183930415,0.215467495,0.17712396,0.188513564
0.183886963,0.215485457,0.177109364,0.188621075
0.183843373,0.215502966,0.17709457,0.188728305
0.183799643,0.21552002,0.17707958,0.188835249
0.183755773,0.215536612,0.177064398,0.188941904
0.183711762,0.215552739,0.177049027,0.189048263
0.183667609,0.215568395,0.177033471,0.189154323
0.183623314,0.215583577,0.177017733,0.189260081
0.183578877,0.215598281,0.177001818,0.189365533
0.183534298,0.215612506,0.176985729,0.189470674
0.183489578,0.21562625,0.176969471,0.189575501
0.183444716,0.215639513,0.176953046,0.189680009
0.183399712,0.215652294,0.176936459,0.189784193
0.183354567,0.215664596,0.176919712,0.189888048
0.183309281,0.215676417,0.176902808,0.189991568
0.183263853,0.215687761,0.176885751,0.190094748
0.183218283,0.215698626,0.176868541,0.190197581
0.183172572,0.215709015,0.176851183,0.19030006
0.18312672,0.215718929,0.176833679,0.19040218
0.183080727,0.215728366,0.17681603,0.190503933
0.183034595,0.215737328,0.17679824,0.190605313
0.182988322,0.215745815,0.176780311,0.190706314
0.182941911,0.215753828,0.176762246,0.190806928
0.182895362,0.215761365,0.176744046,0.190907149
0.182848678,0.215768428,0.176725715,0.191006971
0.18280186,0.215775018,0.176707255,0.191106387
0.182754909,0.215781134,0.176688669,0.191205389
0.182707827,0.215786775,0.176669959,0.191303971
0.182660617,0.215791943,0.176651128,0.191402125
0.182613279,0.215796637,0.176632176,0.191499843
0.182565817,0.215800857,0.176613108,0.191597119
0.182518231,0.215804603,0.176593925,0.191693943
0.182470523,0.215807876,0.17657463,0.191790307
0.182422695,0.215810679,0.176555223,0.191886203
0.182374748,0.215813013,0.176535708,0.191981622
0.182326684,0.21581488,0.176516086,0.192076555
0.182278504,0.215816285,0.17649636,0.192170993
0.182230209,0.215817229,0.176476533,0.192264928
0.182181801,0.215817716,0.176456607,0.19235835
0.182133282,0.215817751,0.176436585,0.19245125
0.182084653,0.215817335,0.17641647,0.192543618
0.182035916,0.215816472,0.176396265,0.192635445
0.181987071,0.215815164,0.176375974,0.192726722
0.181938121,0.215813415,0.176355599,0.19281744
0.181889066,0.215811225,0.176335144,0.19290759
0.181839908,0.215808597,0.176314612,0.192997165
0.181790647,0.215805532,0.176294005,0.193086156
0.181741285,0.215802032,0.176273327,0.193174556
0.181691824,0.215798098,0.17625258,0.193262357
0.181642262,0.215793731,0.176231767,0.193349551
0.181592602,0.215788933,0.176210891,0.193436133
0.181542844,0.215783705,0.176189954,0.193522094
0.181492989,0.215778047,0.176168959,0.193607429
0.181443037,0.21577196,0.176147909,0.193692128
0.181392988,0.215765446,0.176126806,0.193776187
0.181342842,0.215758505,0.176105654,0.193859596
0.1812926,0.215751141,0.176084454,0.19394235
0.181242261,0.215743353,0.176063209,0.19402444
0.181191826,0.215735148,0.176041922,0.194105859
0.181141293,0.215726528,0.176020595,0.1941866
0.181090663,0.2157175,0.175999229,0.194266657
0.181039934,0.21570807,0.175977828,0.194346022
0.180989105,0.215698242,0.175956394,0.194424689
0.180938177,0.215688021,0.175934929,0.194502652
0.180887147,0.215677412,0.175913436,0.194579903
0.180836015,0.215666419,0.175891918,0.194656435
0.18078478,0.215655046,0.175870378,0.194732242
0.180733441,0.215643296,0.175848819,0.194807317
0.180681997,0.215631175,0.175827242,0.194881651
0.180630447,0.215618685,0.175805652,0.194955237
0.180578791,0.215605829,0.175784049,0.195028067
0.180527027,0.215592611,0.175762437,0.195100132
0.180475154,0.215579033,0.175740816,0.195171425
0.180423171,0.215565098,0.17571919,0.195241935
0.180371077,0.215550811,0.17569756,0.195311656
0.18031887,0.215536173,0.175675927,0.195380578
0.180266549,0.215521189,0.175654295,0.195448692
0.180214113,0.215505862,0.175632666,0.195515991
0.18016156,0.215490193,0.17561104,0.195582465
0.180108891,0.215474188,0.175589419,0.195648106
0.180056104,0.215457847,0.175567806,0.195712906
0.1800032,0.215441176,0.175546201,0.195776857
0.179950178,0.215424177,0.175524606,0.195839951
0.179897039,0.215406854,0.175503023,0.19590218
0.179843785,0.215389209,0.175481453,0.195963539
0.179790414,0.215371247,0.175459897,0.19602402
0.179736928,0.21535297,0.175438357,0.196083616
0.179683327,0.215334382,0.175416833,0.196142319
0.179629612,0.215315487,0.175395326,0.196200122
0.179575782,0.215296288,0.175373838,0.196257017
0.179521839,0.215276788,0.17535237,0.196312997
0.179467782,0.215256989,0.175330922,0.196368053
0.179413612,0.215236896,0.175309495,0.196422179
0.17935933,0.21521651,0.17528809,0.196475365
0.179304935,0.215195834,0.175266706,0.196527604
0.179250428,0.215174871,0.175245345,0.196578887
0.179195809,0.215153624,0.175224007,0.196629208
0.179141078,0.215132094,0.17520269,0.196678558
0.179086236,0.215110284,0.175181396,0.196726931
0.179031281,0.215088195,0.175160124,0.196774323
0.178976213,0.21506583,0.175138872,0.196820725
0.178921032,0.21504319,0.175117641,0.196866133
0.178865737,0.215020279,0.175096431,0.19691054
0.178810328,0.214997097,0.175075242,0.196953941
0.178754806,0.214973649,0.175054073,0.196996328
0.178699169,0.214949935,0.175032925,0.197037696
0.17864342,0.214925959,0.175011798,0.197078038
0.178587559,0.214901724,0.174990694,0.197117346
0.178531587,0.214877232,0.174969613,0.197155616
0.178475505,0.214852487,0.174948556,0.197192839
0.178419314,0.214827493,0.174927525,0.19722901
0.178363015,0.214802253,0.17490652,0.197264123
0.178306609,0.214776773,0.174885542,0.19729817
0.178250097,0.214751055,0.174864592,0.197331146
0.17819348,0.214725104,0.17484367,0.197363044
0.17813676,0.214698924,0.174822777,0.19739386
0.178079936,0.214672517,0.174801912,0.197423588
0.17802301,0.214645887,0.174781077,0.197452221
0.177965982,0.214619036,0.174760271,0.197479755
0.177908855,0.214591968,0.174739495,0.197506183
0.177851627,0.214564684,0.174718748,0.197531501
0.177794301,0.214537188,0.17469803,0.1975557
0.177736877,0.214509481,0.174677341,0.197578776
0.177679357,0.214481566,0.17465668,0.197600723
0.177621739,0.214453446,0.174636045,0.197621534
0.177564026,0.214425122,0.174615437,0.197641205
0.177506217,0.214396598,0.174594854,0.19765973
0.177448312,0.214367877,0.174574294,0.197677105
0.177390312,0.214338959,0.174553757,0.197693324
0.177332218,0.214309848,0.174533242,0.197708383
0.177274028,0.214280545,0.174512747,0.197722276
0.177215745,0.214251051,0.174492271,0.197734998
0.177157367,0.214221368,0.174471813,0.197746544
0.177098895,0.214191498,0.174451372,0.197756909
0.177040329,0.214161441,0.174430945,0.197766088
0.176981669,0.214131199,0.17441053,0.197774077
0.176922916,0.214100772,0.174390127,0.19778087
0.176864068,0.214070162,0.174369733,0.197786462
0.176805127,0.214039368,0.174349346,0.197790848
0.176746091,0.214008393,0.174328968,0.197794024
0.176686959,0.213977238,0.174308595,0.197795983
0.176627733,0.213945904,0.174288229,0.197796721
0.176568409,0.213914392,0.174267868,0.197796233
0.17650899,0.213882704,0.174247513,0.197794514
0.176449473,0.21385084,0.174227163,0.197791559
0.176389859,0.213818802,0.174206817,0.197787363
0.176330147,0.21378659,0.174186475,0.197781922
0.176270336,0.213754204,0.174166137,0.197775231
0.176210427,0.213721646,0.174145801,0.197767286
0.176150419,0.213688915,0.174125468,0.197758083
0.176090311,0.213656012,0.174105136,0.197747622
0.176030104,0.213622937,0.174084806,0.197735901
0.175969798,0.213589691,0.174064474,0.197722919
0.17590939,0.213556274,0.174044141,0.197708675
0.175848882,0.213522685,0.174023805,0.197693168
0.175788272,0.213488924,0.174003465,0.197676398
0.17572756,0.213454991,0.173983118,0.197658365
0.175666745,0.213420886,0.173962763,0.197639068
0.175605826,0.213386609,0.1739424,0.197618507
0.175544802,0.213352161,0.173922029,0.197596683
0.175483672,0.213317543,0.173901649,0.197573595
0.175422435,0.213282753,0.17388126,0.197549246
0.175361089,0.213247792,0.173860864,0.197523636
0.175299633,0.213212661,0.173840462,0.197496767
0.175238066,0.21317736,0.173820056,0.19746864
0.175176385,0.213141891,0.173799646,0.197439257
0.175114588,0.213106253,0.173779236,0.197408618
0.175052674,0.213070447,0.173758826,0.197376725
0.17499064,0.213034476,0.173738417,0.197343577
0.174928483,0.21299834,0.173718012,0.197309176
0.174866203,0.212962041,0.173697611,0.197273519
0.174803797,0.212925582,0.173677217,0.197236609
0.174741262,0.212888965,0.173656831,0.197198443
0.174678597,0.212852194,0.173636453,0.197159022
0.1746158,0.212815272,0.173616086,0.197118345
0.174552867,0.212778204,0.173595729,0.197076415
0.174489796,0.212740997,0.173575383,0.197033231
0.174426585,0.212703656,0.173555049,0.196988794
0.174363231,0.21266619,0.173534727,0.196943105
0.174299731,0.212628606,0.173514417,0.196896166
0.174236082,0.212590911,0.173494119,0.196847979
0.17417228,0.212553111,0.173473834,0.196798544
0.174108322,0.212515215,0.173453562,0.196747864
0.174044205,0.212477227,0.173433303,0.196695942
0.173979927,0.212439154,0.173413057,0.196642779
0.173915483,0.212401002,0.173392824,0.196588378
0.173850872,0.212362778,0.173372606,0.196532741
0.173786091,0.212324485,0.173352401,0.196475872
0.173721137,0.212286129,0.173332211,0.196417773
0.173656008,0.212247716,0.173312035,0.196358445
0.173590703,0.21220925,0.173291874,0.196297892
0.173525218,0.212170736,0.173271727,0.196236116
0.173459553,0.212132179,0.173251595,0.196173118
0.173393706,0.212093582,0.173231478,0.196108903
0.173327675,0.21205495,0.173211376,0.196043471
0.173261458,0.212016286,0.173191288,0.195976826
0.173195053,0.211977595,0.173171215,0.195908969
0.17312846,0.211938879,0.173151155,0.195839903
0.173061678,0.211900141,0.173131111,0.19576963
0.172994706,0.211861385,0.173111082,0.195698153
0.172927543,0.211822614,0.173091069,0.195625475
0.172860191,0.211783829,0.173071075,0.195551598
0.172792648,0.211745034,0.173051101,0.195476528
0.172724917,0.211706231,0.173031149,0.195400268
0.172656996,0.211667423,0.17301122,0.195322825
0.172588886,0.21162861,0.172991319,0.195244202
0.172520588,0.211589795,0.172971445,0.195164404
0.172452102,0.211550979,0.172951602,0.195083435
0.172383428,0.211512163,0.172931791,0.195001298
0.172314567,0.211473348,0.172912013,0.194917999
0.172245517,0.211434535,0.17289227,0.194833541
0.172176281,0.211395723,0.172872563,0.194747929
0.172106856,0.211356913,0.172852893,0.194661167
0.172037244,0.211318104,0.172833259,0.19457326
0.171967444,0.211279297,0.172813663,0.194484213
0.171897456,0.211240492,0.172794105,0.194394031
0.17182728,0.211201688,0.172774586,0.19430272
0.171756914,0.211162886,0.172755106,0.194210285
0.17168636,0.211124086,0.172735666,0.194116733
0.171615615,0.211085287,0.172716267,0.194022071
0.171544679,0.211046488,0.172696909,0.193926305
0.171473552,0.211007688,0.172677595,0.193829443
0.171402232,0.210968885,0.172658324,0.193731491
0.17133072,0.21093008,0.172639097,0.193632456
0.171259013,0.210891269,0.172619916,0.193532345
0.17118711,0.21085245,0.17260078,0.193431163
0.171115011,0.210813623,0.17258169,0.193328918
0.171042714,0.210774785,0.172562647,0.193225616
0.170970218,0.210735934,0.172543651,0.193121264
0.17089752,0.210697069,0.172524703,0.19301587
0.170824622,0.210658187,0.172505802,0.192909439
0.170751521,0.210619288,0.172486949,0.19280198
0.170678217,0.21058037,0.172468145,0.192693498
0.170604709,0.21054143,0.172449388,0.192584
0.170530996,0.210502466,0.172430679,0.192473492
0.170457078,0.210463477,0.172412017,0.192361983
0.170382953,0.21042446,0.172393401,0.192249479
0.170308622,0.210385412,0.172374832,0.192135988
0.170234084,0.21034633,0.172356309,0.192021515
0.17015934,0.210307213,0.17233783,0.191906071
0.170084389,0.210268059,0.172319395,0.191789662
0.170009231,0.210228865,0.172301003,0.191672299
0.169933867,0.210189632,0.172282652,0.19155399
0.169858298,0.21015036,0.172264341,0.191434747
0.169782523,0.210111047,0.17224607,0.191314577
0.169706545,0.210071696,0.172227837,0.191193492
0.169630362,0.210032305,0.172209642,0.191071503
0.169553976,0.209992875,0.172191484,0.190948618
0.169477389,0.209953405,0.172173362,0.19082485
0.1694006,0.209913898,0.172155274,0.190700207
0.169323612,0.209874353,0.17213722,0.1905747
0.169246426,0.209834774,0.172119198,0.19044834
0.169169042,0.209795161,0.172101206,0.190321135
0.169091464,0.20975552,0.172083243,0.190193097
0.169013693,0.209715851,0.172065306,0.190064236
0.16893573,0.209676159,0.172047393,0.18993456
0.168857578,0.209636447,0.172029502,0.189804081
0.168779238,0.20959672,0.172011631,0.189672809
0.168700711,0.209556983,0.171993777,0.189540754
0.168622001,0.209517239,0.171975938,0.189407926
0.168543107,0.209477493,0.171958111,0.189274335
0.168464032,0.20943775,0.171940295,0.189139991
0.168384776,0.209398012,0.171922486,0.189004902
0.168305341,0.209358284,0.171904682,0.188869079
0.168225728,0.209318568,0.17188688,0.18873253
0.168145938,0.209278867,0.171869076,0.188595265
0.168065972,0.209239185,0.171851268,0.188457294
0.167985832,0.209199524,0.171833453,0.188318624
0.16790552,0.209159887,0.171815627,0.188179265
0.167825037,0.209120277,0.171797786,0.188039226
0.167744386,0.209080698,0.171779929,0.187898515
0.167663569,0.209041152,0.17176205,0.187757142
0.167582589,0.209001642,0.171744149,0.187615115
0.167501448,0.208962172,0.17172622,0.187472445
0.167420149,0.208922744,0.171708262,0.18732914
0.167338695,0.20888336,0.171690272,0.18718521
0.167257089,0.208844021,0.171672246,0.187040665
0.167175334,0.208804729,0.171654181,0.186895514
0.167093432,0.208765486,0.171636075,0.186749766
0.167011387,0.208726292,0.171617925,0.18660343
0.166929202,0.208687148,0.171599727,0.186456515
0.166846878,0.208648056,0.171581479,0.186309029
0.16676442,0.208609017,0.17156318,0.186160981
0.166681827,0.208570031,0.171544825,0.186012379
0.166599104,0.208531098,0.171526412,0.18586323
0.166516252,0.208492218,0.17150794,0.185713545
0.166433273,0.208453393,0.171489405,0.185563332
0.166350169,0.208414623,0.171470804,0.1854126
0.166266942,0.208375908,0.171452135,0.185261358
0.166183594,0.208337249,0.171433395,0.185109613
0.166100127,0.20829865,0.171414581,0.184957374
0.166016542,0.208260111,0.171395691,0.184804649
0.165932841,0.208221635,0.171376723,0.184651446
0.165849026,0.208183227,0.171357673,0.184497774
0.165765098,0.208144889,0.17133854,0.184343639
0.165681059,0.208106628,0.171319321,0.184189051
0.16559691,0.208068447,0.171300013,0.184034017
0.165512654,0.208030352,0.171280612,0.183878544
0.165428291,0.207992348,0.171261118,0.183722639
0.165343826,0.20795444,0.171241526,0.183566308
0.165259258,0.207916631,0.171221835,0.183409559
0.165174592,0.207878928,0.171202043,0.183252397
0.165089828,0.207841333,0.171182148,0.183094828
0.165004971,0.207803853,0.171162147,0.182936856
0.164920021,0.207766491,0.17114204,0.182778488
0.164834982,0.207729253,0.171121824,0.182619728
0.164749856,0.207692144,0.171101498,0.182460582
0.164664646,0.207655168,0.17108106,0.182301054
0.164579354,0.207618329,0.171060508,0.182141148
0.164493983,0.207581632,0.171039843,0.18198087
0.164408536,0.20754508,0.171019062,0.181820224
0.164323015,0.207508677,0.170998166,0.181659214
0.164237422,0.207472427,0.170977153,0.181497847
0.164151761,0.207436334,0.170956022,0.181336128
0.164066034,0.2074004,0.170934772,0.181174065
0.163980243,0.207364629,0.170913401,0.181011666
0.163894392,0.207329024,0.170891909,0.180848939
0.163808481,0.207293587,0.170870294,0.180685892
0.163722514,0.207258321,0.170848554,0.180522538
0.163636493,0.207223228,0.170826687,0.180358886
0.16355042,0.20718831,0.170804694,0.180194949
0.163464297,0.207153569,0.170782571,0.180030737
0.163378128,0.207119007,0.17076032,0.179866263
0.163291912,0.207084625,0.170737937,0.179701539
0.163205654,0.207050425,0.170715424,0.179536578
0.163119353,0.207016409,0.170692778,0.179371393
0.163033013,0.206982577,0.17067,0.179205997
0.162946634,0.20694893,0.170647088,0.179040402
0.162860218,0.206915469,0.170624042,0.178874621
0.162773766,0.206882193,0.17060086,0.178708666
