processed_ch1,processed_ch2,processed_ch3,processed_ch4
-0.006906102,-0.001069724,-0.000733887,-0.002075137
-0.006901516,-0.001070773,-0.000735046,-0.002074691
-0.006896936,-0.001071823,-0.000736193,-0.002074267
-0.006892362,-0.001072874,-0.000737328,-0.002073866
-0.006887794,-0.001073923,-0.000738451,-0.002073485
-0.006883232,-0.001074973,-0.000739563,-0.002073127
-0.006878677,-0.001076023,-0.000740662,-0.002072789
-0.006874129,-0.001077072,-0.000741749,-0.002072473
-0.006869587,-0.00107812,-0.000742824,-0.002072178
-0.006865053,-0.001079168,-0.000743888,-0.002071904
-0.006860526,-0.001080216,-0.000744939,-0.002071652
-0.006856007,-0.001081262,-0.000745977,-0.00207142
-0.006851496,-0.001082308,-0.000747004,-0.00207121
-0.006846993,-0.001083354,-0.000748018,-0.002071021
-0.006842498,-0.001084398,-0.000749019,-0.002070854
-0.006838011,-0.001085442,-0.000750008,-0.002070708
-0.006833534,-0.001086486,-0.000750985,-0.002070583
-0.006829065,-0.001087529,-0.000751949,-0.00207048
-0.006824606,-0.001088571,-0.0007529,-0.002070399
-0.006820156,-0.001089612,-0.000753839,-0.002070339
-0.006815716,-0.001090653,-0.000754765,-0.002070301
-0.006811286,-0.001091692,-0.000755679,-0.002070285
-0.006806866,-0.001092731,-0.00075658,-0.002070291
-0.006802456,-0.001093768,-0.00075747,-0.002070318
-0.006798056,-0.001094804,-0.000758347,-0.002070367
-0.006793668,-0.001095838,-0.000759212,-0.002070438
-0.00678929,-0.001096871,-0.000760065,-0.002070531
-0.006784924,-0.001097902,-0.000760907,-0.002070645
-0.006780569,-0.001098932,-0.000761736,-0.002070781
-0.006776226,-0.00109996,-0.000762554,-0.002070939
-0.006771895,-0.001100987,-0.00076336,-0.002071118
-0.006767576,-0.001102012,-0.000764154,-0.002071318
-0.00676327,-0.001103035,-0.000764937,-0.002071538
-0.006758976,-0.001104057,-0.000765708,-0.00207178
-0.006754695,-0.001105078,-0.000766467,-0.002072043
-0.006750428,-0.001106097,-0.000767215,-0.002072326
-0.006746173,-0.001107115,-0.000767951,-0.00207263
-0.006741932,-0.001108131,-0.000768675,-0.002072954
-0.006737705,-0.001109147,-0.000769388,-0.002073298
-0.006733492,-0.001110162,-0.000770089,-0.002073663
-0.006729294,-0.001111176,-0.000770779,-0.002074047
-0.00672511,-0.00111219,-0.000771458,-0.002074451
-0.006720941,-0.001113203,-0.000772124,-0.002074874
-0.006716787,-0.001114216,-0.00077278,-0.002075318
-0.006712649,-0.001115229,-0.000773423,-0.002075781
-0.006708526,-0.001116242,-0.000774055,-0.002076264
-0.006704419,-0.001117254,-0.000774676,-0.002076767
-0.006700328,-0.001118266,-0.000775285,-0.00207729
-0.006696254,-0.001119277,-0.000775882,-0.002077834
-0.006692196,-0.001120288,-0.000776467,-0.002078398
-0.006688155,-0.001121298,-0.000777041,-0.002078983
-0.006684132,-0.001122307,-0.000777603,-0.002079588
-0.006680125,-0.001123316,-0.000778154,-0.002080215
-0.006676135,-0.001124324,-0.000778692,-0.002080862
-0.006672164,-0.001125331,-0.000779219,-0.002081529
-0.00666821,-0.001126336,-0.000779734,-0.002082218
-0.006664274,-0.001127341,-0.000780238,-0.002082927
-0.006660356,-0.001128345,-0.000780729,-0.002083656
-0.006656456,-0.001129348,-0.000781208,-0.002084406
-0.006652575,-0.00113035,-0.000781676,-0.002085176
-0.006648713,-0.001131351,-0.000782132,-0.002085967
-0.006644869,-0.001132351,-0.000782575,-0.002086777
-0.006641045,-0.001133349,-0.000783007,-0.002087608
-0.00663724,-0.001134347,-0.000783427,-0.00208846
-0.006633453,-0.001135343,-0.000783834,-0.002089331
-0.006629686,-0.001136338,-0.00078423,-0.002090222
-0.006625939,-0.001137332,-0.000784613,-0.002091133
-0.006622211,-0.001138325,-0.000784984,-0.002092064
-0.006618503,-0.001139316,-0.000785343,-0.002093015
-0.006614815,-0.001140307,-0.00078569,-0.002093985
-0.006611147,-0.001141296,-0.000786026,-0.002094975
-0.0066075,-0.001142285,-0.000786349,-0.002095985
-0.006603872,-0.001143272,-0.00078666,-0.002097014
-0.006600265,-0.001144258,-0.000786959,-0.002098062
-0.006596679,-0.001145243,-0.000787247,-0.00209913
-0.006593114,-0.001146227,-0.000787523,-0.002100217
-0.006589569,-0.001147211,-0.000787787,-0.002101323
-0.006586045,-0.001148193,-0.000788039,-0.002102448
-0.006582542,-0.001149174,-0.000788279,-0.002103592
-0.00657906,-0.001150155,-0.000788508,-0.002104754
-0.0065756,-0.001151135,-0.000788724,-0.002105935
-0.00657216,-0.001152114,-0.000788928,-0.002107135
-0.006568742,-0.001153093,-0.000789121,-0.002108354
-0.006565346,-0.001154071,-0.000789301,-0.002109591
-0.006561971,-0.001155048,-0.000789469,-0.002110848
-0.006558618,-0.001156024,-0.000789625,-0.002112123
-0.006555286,-0.001157,-0.000789769,-0.002113417
-0.006551977,-0.001157974,-0.0007899,-0.002114731
-0.00654869,-0.001158947,-0.000790019,-0.002116065
-0.006545425,-0.001159919,-0.000790127,-0.002117419
-0.006542183,-0.00116089,-0.000790221,-0.002118793
-0.006538963,-0.00116186,-0.000790304,-0.002120188
-0.006535765,-0.001162829,-0.000790374,-0.002121604
-0.00653259,-0.001163797,-0.000790432,-0.002123041
-0.006529438,-0.001164763,-0.000790477,-0.002124499
-0.006526309,-0.001165728,-0.00079051,-0.002125979
-0.006523202,-0.001166691,-0.000790531,-0.002127481
-0.006520119,-0.001167653,-0.000790538,-0.002129004
-0.006517058,-0.001168613,-0.000790533,-0.002130548
-0.006514021,-0.001169571,-0.000790515,-0.002132114
-0.006511007,-0.001170528,-0.000790485,-0.002133702
-0.006508016,-0.001171482,-0.000790442,-0.002135309
-0.006505049,-0.001172435,-0.000790386,-0.002136938
-0.006502106,-0.001173387,-0.000790317,-0.002138587
-0.006499186,-0.001174337,-0.000790236,-0.002140256
-0.00649629,-0.001175286,-0.000790142,-0.002141944
-0.006493418,-0.001176234,-0.000790036,-0.002143653
-0.00649057,-0.00117718,-0.000789918,-0.002145381
-0.006487745,-0.001178126,-0.000789787,-0.002147129
-0.006484945,-0.00117907,-0.000789645,-0.002148896
-0.006482169,-0.001180012,-0.00078949,-0.002150682
-0.006479418,-0.001180954,-0.000789323,-0.002152486
-0.00647669,-0.001181895,-0.000789145,-0.002154309
-0.006473987,-0.001182835,-0.000788955,-0.002156149
-0.006471308,-0.001183774,-0.000788753,-0.002158006
-0.006468653,-0.001184713,-0.00078854,-0.002159881
-0.006466022,-0.00118565,-0.000788315,-0.002161772
-0.006463415,-0.001186587,-0.000788079,-0.002163679
-0.006460833,-0.001187522,-0.000787831,-0.002165603
-0.006458274,-0.001188457,-0.000787572,-0.002167542
-0.00645574,-0.001189391,-0.000787301,-0.002169497
-0.006453231,-0.001190324,-0.000787019,-0.002171467
-0.006450745,-0.001191257,-0.000786726,-0.002173453
-0.006448284,-0.001192188,-0.000786423,-0.002175453
-0.006445848,-0.001193119,-0.000786108,-0.002177469
-0.006443436,-0.001194048,-0.000785782,-0.002179499
-0.006441049,-0.001194977,-0.000785445,-0.002181544
-0.006438686,-0.001195905,-0.000785097,-0.002183603
-0.006436348,-0.001196832,-0.000784739,-0.002185676
-0.006434034,-0.001197757,-0.000784369,-0.002187763
-0.006431745,-0.001198682,-0.000783989,-0.002189864
-0.006429481,-0.001199605,-0.000783597,-0.002191978
-0.006427241,-0.001200526,-0.000783195,-0.002194105
-0.006425027,-0.001201447,-0.000782781,-0.002196246
-0.006422836,-0.001202365,-0.000782357,-0.002198398
-0.006420671,-0.001203283,-0.000781921,-0.002200563
-0.00641853,-0.001204198,-0.000781475,-0.002202741
-0.006416414,-0.001205113,-0.000781018,-0.00220493
-0.006414324,-0.001206025,-0.00078055,-0.002207131
-0.006412258,-0.001206936,-0.000780071,-0.002209343
-0.006410218,-0.001207846,-0.000779581,-0.002211567
-0.006408202,-0.001208754,-0.000779081,-0.002213802
-0.006406213,-0.00120966,-0.000778569,-0.002216048
-0.006404248,-0.001210564,-0.000778048,-0.002218304
-0.006402309,-0.001211467,-0.000777515,-0.002220572
-0.006400396,-0.001212368,-0.000776972,-0.002222849
-0.006398508,-0.001213268,-0.000776419,-0.002225136
-0.006396645,-0.001214166,-0.000775854,-0.002227433
-0.006394809,-0.001215063,-0.000775279,-0.00222974
-0.006392998,-0.001215958,-0.000774693,-0.002232055
-0.006391212,-0.001216852,-0.000774097,-0.002234379
-0.006389452,-0.001217744,-0.000773489,-0.002236712
-0.006387718,-0.001218635,-0.000772871,-0.002239052
-0.00638601,-0.001219524,-0.000772242,-0.0022414
-0.006384326,-0.001220413,-0.000771602,-0.002243755
-0.006382669,-0.001221299,-0.000770951,-0.002246116
-0.006381036,-0.001222184,-0.00077029,-0.002248483
-0.006379429,-0.001223068,-0.000769618,-0.002250856
-0.006377848,-0.001223951,-0.000768935,-0.002253235
-0.006376292,-0.001224831,-0.000768241,-0.002255617
-0.006374761,-0.001225711,-0.000767537,-0.002258004
-0.006373256,-0.001226588,-0.000766822,-0.002260395
-0.006371776,-0.001227464,-0.000766096,-0.002262788
-0.006370322,-0.001228339,-0.000765359,-0.002265185
-0.006368893,-0.001229211,-0.000764611,-0.002267583
-0.00636749,-0.001230082,-0.000763853,-0.002269984
-0.006366113,-0.001230951,-0.000763083,-0.002272386
-0.00636476,-0.001231818,-0.000762303,-0.00227479
-0.006363434,-0.001232683,-0.000761512,-0.002277194
-0.006362134,-0.001233546,-0.00076071,-0.002279599
-0.006360859,-0.001234406,-0.000759897,-0.002282005
-0.00635961,-0.001235265,-0.000759074,-0.00228441
-0.006358387,-0.001236121,-0.000758239,-0.002286815
-0.00635719,-0.001236974,-0.000757393,-0.00228922
-0.006356019,-0.001237825,-0.000756537,-0.002291624
-0.006354874,-0.001238672,-0.00075567,-0.002294028
-0.006353754,-0.001239517,-0.000754792,-0.00229643
-0.006352661,-0.001240358,-0.000753903,-0.00229883
-0.006351593,-0.001241196,-0.000753003,-0.002301229
-0.00635055,-0.001242031,-0.000752092,-0.002303626
-0.006349534,-0.001242863,-0.00075117,-0.002306021
-0.006348543,-0.001243691,-0.000750237,-0.002308413
-0.006347578,-0.001244516,-0.000749294,-0.002310802
-0.006346639,-0.001245338,-0.000748339,-0.002313187
-0.006345725,-0.001246156,-0.000747374,-0.002315568
-0.006344837,-0.001246971,-0.000746398,-0.002317945
-0.006343974,-0.001247782,-0.000745411,-0.002320316
-0.006343137,-0.00124859,-0.000744413,-0.002322682
-0.006342325,-0.001249394,-0.000743405,-0.002325042
-0.006341538,-0.001250194,-0.000742386,-0.002327395
-0.006340775,-0.00125099,-0.000741357,-0.002329742
-0.006340038,-0.001251782,-0.000740318,-0.002332081
-0.006339325,-0.00125257,-0.000739268,-0.002334412
-0.006338637,-0.001253354,-0.000738208,-0.002336735
-0.006337973,-0.001254134,-0.000737138,-0.002339049
-0.006337333,-0.00125491,-0.000736059,-0.002341354
-0.006336717,-0.001255681,-0.000734969,-0.002343649
-0.006336126,-0.001256449,-0.000733869,-0.002345935
-0.006335558,-0.001257212,-0.000732759,-0.00234821
-0.006335015,-0.00125797,-0.00073164,-0.002350475
-0.006334495,-0.001258724,-0.00073051,-0.00235273
-0.006334,-0.001259474,-0.000729372,-0.002354973
-0.006333528,-0.001260219,-0.000728223,-0.002357204
-0.00633308,-0.00126096,-0.000727065,-0.002359424
-0.006332655,-0.001261696,-0.000725898,-0.00236163
-0.006332255,-0.001262428,-0.000724722,-0.002363824
-0.006331878,-0.001263155,-0.000723537,-0.002366004
-0.006331524,-0.001263877,-0.000722342,-0.002368169
-0.006331195,-0.001264595,-0.000721139,-0.00237032
-0.006330888,-0.001265308,-0.000719927,-0.002372456
-0.006330606,-0.001266016,-0.000718706,-0.002374577
-0.006330346,-0.001266719,-0.000717477,-0.002376682
-0.00633011,-0.001267417,-0.000716239,-0.002378771
-0.006329897,-0.00126811,-0.000714992,-0.002380844
-0.006329707,-0.001268797,-0.000713737,-0.0023829
-0.00632954,-0.00126948,-0.000712473,-0.002384939
-0.006329396,-0.001270157,-0.0007112,-0.002386961
-0.006329275,-0.001270829,-0.000709919,-0.002388966
-0.006329176,-0.001271495,-0.00070863,-0.002390953
-0.006329101,-0.001272157,-0.000707332,-0.002392923
-0.006329048,-0.001272812,-0.000706026,-0.002394875
-0.006329018,-0.001273463,-0.000704711,-0.002396809
-0.00632901,-0.001274108,-0.000703389,-0.002398724
-0.006329025,-0.001274747,-0.000702058,-0.002400621
-0.006329063,-0.001275382,-0.000700719,-0.002402499
-0.006329123,-0.001276011,-0.000699372,-0.002404358
-0.006329205,-0.001276635,-0.000698018,-0.002406198
-0.006329309,-0.001277254,-0.000696655,-0.002408018
-0.006329434,-0.001277868,-0.000695285,-0.002409818
-0.006329582,-0.001278477,-0.000693907,-0.002411597
-0.006329752,-0.00127908,-0.000692521,-0.002413357
-0.006329943,-0.001279679,-0.000691128,-0.002415096
-0.006330155,-0.001280274,-0.000689727,-0.002416814
-0.006330389,-0.001280863,-0.000688318,-0.002418511
-0.006330644,-0.001281448,-0.000686902,-0.002420186
-0.006330921,-0.001282028,-0.000685478,-0.002421841
-0.006331218,-0.001282604,-0.000684047,-0.002423474
-0.006331536,-0.001283175,-0.000682608,-0.002425084
-0.006331876,-0.001283741,-0.000681162,-0.002426673
-0.006332236,-0.001284303,-0.000679709,-0.002428239
-0.006332616,-0.001284861,-0.000678249,-0.002429783
-0.006333018,-0.001285414,-0.000676782,-0.002431302
-0.006333439,-0.001285962,-0.000675308,-0.002432798
-0.006333881,-0.001286506,-0.000673826,-0.00243427
-0.006334344,-0.001287046,-0.000672338,-0.002435716
-0.006334826,-0.001287581,-0.000670843,-0.002437137
-0.006335328,-0.001288112,-0.000669341,-0.002438533
-0.00633585,-0.001288638,-0.000667833,-0.002439902
-0.006336392,-0.001289159,-0.000666317,-0.002441244
-0.006336953,-0.001289675,-0.000664795,-0.00244256
-0.006337533,-0.001290187,-0.000663267,-0.002443849
-0.006338133,-0.001290693,-0.000661732,-0.002445111
-0.006338751,-0.001291195,-0.00066019,-0.002446347
-0.006339388,-0.001291691,-0.000658643,-0.002447555
-0.006340044,-0.001292183,-0.000657089,-0.002448736
-0.006340718,-0.00129267,-0.000655529,-0.002449891
-0.006341411,-0.001293152,-0.000653963,-0.002451019
-0.006342121,-0.001293629,-0.000652392,-0.002452121
-0.00634285,-0.001294102,-0.000650815,-0.002453195
-0.006343596,-0.00129457,-0.000649232,-0.002454244
-0.00634436,-0.001295034,-0.000647645,-0.002455265
-0.006345141,-0.001295493,-0.000646051,-0.00245626
-0.00634594,-0.001295947,-0.000644453,-0.002457228
-0.006346755,-0.001296397,-0.000642849,-0.002458169
-0.006347588,-0.001296842,-0.000641241,-0.002459084
-0.006348438,-0.001297282,-0.000639627,-0.002459971
-0.006349304,-0.001297717,-0.000638008,-0.00246083
-0.006350186,-0.001298148,-0.000636385,-0.002461663
-0.006351085,-0.001298575,-0.000634757,-0.002462469
-0.006352,-0.001298997,-0.000633124,-0.002463247
-0.00635293,-0.001299414,-0.000631487,-0.002463998
-0.006353877,-0.001299828,-0.000629846,-0.002464722
-0.006354838,-0.001300237,-0.000628201,-0.002465418
-0.006355815,-0.001300641,-0.000626552,-0.002466087
-0.006356808,-0.001301042,-0.000624899,-0.002466728
-0.006357815,-0.001301438,-0.000623243,-0.002467342
-0.006358838,-0.001301829,-0.000621583,-0.002467927
-0.006359875,-0.001302216,-0.00061992,-0.002468484
-0.006360926,-0.001302598,-0.000618254,-0.002469014
-0.006361993,-0.001302976,-0.000616584,-0.002469515
-0.006363073,-0.001303348,-0.000614912,-0.002469989
-0.006364167,-0.001303715,-0.000613237,-0.002470434
-0.006365276,-0.001304078,-0.000611559,-0.002470853
-0.006366398,-0.001304435,-0.000609878,-0.002471244
-0.006367533,-0.001304786,-0.000608194,-0.002471608
-0.006368682,-0.001305133,-0.000606507,-0.002471945
-0.006369844,-0.001305474,-0.000604817,-0.002472255
-0.006371019,-0.00130581,-0.000603125,-0.002472539
-0.006372207,-0.001306141,-0.00060143,-0.002472797
-0.006373407,-0.001306466,-0.000599733,-0.002473028
-0.006374621,-0.001306786,-0.000598033,-0.002473233
-0.006375846,-0.0013071,-0.000596331,-0.002473412
-0.006377084,-0.001307408,-0.000594627,-0.002473565
-0.006378334,-0.001307711,-0.000592921,-0.002473692
-0.006379596,-0.001308008,-0.000591213,-0.002473793
-0.00638087,-0.001308299,-0.000589504,-0.002473868
-0.006382155,-0.001308584,-0.000587793,-0.002473917
-0.006383452,-0.001308862,-0.00058608,-0.002473941
-0.00638476,-0.001309135,-0.000584367,-0.002473939
-0.006386079,-0.001309401,-0.000582652,-0.002473912
-0.006387409,-0.001309661,-0.000580937,-0.002473859
-0.006388749,-0.001309914,-0.00057922,-0.002473782
-0.0063901,-0.001310161,-0.000577503,-0.002473678
-0.006391461,-0.001310402,-0.000575786,-0.00247355
-0.006392832,-0.001310637,-0.000574068,-0.002473396
-0.006394213,-0.001310866,-0.00057235,-0.002473217
-0.006395605,-0.001311088,-0.000570632,-0.002473013
-0.006397005,-0.001311304,-0.000568914,-0.002472784
-0.006398415,-0.001311514,-0.000567197,-0.002472531
-0.006399834,-0.001311717,-0.00056548,-0.002472253
-0.006401263,-0.001311913,-0.000563764,-0.002471951
-0.0064027,-0.001312102,-0.000562048,-0.002471625
-0.006404145,-0.001312285,-0.000560334,-0.002471276
-0.006405599,-0.001312461,-0.00055862,-0.002470903
-0.006407062,-0.001312631,-0.000556907,-0.002470507
-0.006408533,-0.001312794,-0.000555196,-0.002470089
-0.006410011,-0.001312951,-0.000553485,-0.002469647
-0.006411498,-0.001313101,-0.000551776,-0.002469184
-0.006412992,-0.001313245,-0.000550069,-0.002468698
-0.006414493,-0.001313383,-0.000548363,-0.002468191
-0.006416002,-0.001313514,-0.000546659,-0.002467662
-0.006417518,-0.00131364,-0.000544956,-0.002467113
-0.006419041,-0.001313759,-0.000543256,-0.002466542
-0.006420571,-0.001313873,-0.000541558,-0.002465952
-0.006422107,-0.001313981,-0.000539862,-0.002465341
-0.006423651,-0.001314082,-0.000538169,-0.002464711
-0.0064252,-0.001314178,-0.000536478,-0.002464061
-0.006426756,-0.001314269,-0.00053479,-0.002463393
-0.006428319,-0.001314353,-0.000533105,-0.002462706
-0.006429887,-0.001314432,-0.000531423,-0.002462001
-0.006431462,-0.001314506,-0.000529744,-0.002461279
-0.006433042,-0.001314573,-0.000528069,-0.00246054
-0.006434628,-0.001314635,-0.000526397,-0.002459784
-0.006436219,-0.001314691,-0.000524728,-0.002459011
-0.006437817,-0.00131474,-0.000523063,-0.002458223
-0.006439419,-0.001314784,-0.000521403,-0.00245742
-0.006441027,-0.001314822,-0.000519746,-0.002456601
-0.006442639,-0.001314853,-0.000518093,-0.002455767
-0.006444257,-0.001314878,-0.000516445,-0.002454919
-0.006445879,-0.001314897,-0.000514802,-0.002454056
-0.006447506,-0.00131491,-0.000513163,-0.002453179
-0.006449137,-0.001314916,-0.000511529,-0.002452289
-0.006450773,-0.001314917,-0.000509901,-0.002451385
-0.006452412,-0.001314911,-0.000508277,-0.002450467
-0.006454056,-0.001314899,-0.000506659,-0.002449538
-0.006455704,-0.001314881,-0.000505046,-0.002448595
-0.006457356,-0.001314858,-0.000503438,-0.002447641
-0.006459011,-0.001314828,-0.000501836,-0.002446676
-0.00646067,-0.001314792,-0.000500239,-0.0024457
-0.006462332,-0.001314751,-0.000498649,-0.002444713
-0.006463997,-0.001314703,-0.000497064,-0.002443716
-0.006465666,-0.00131465,-0.000495484,-0.00244271
-0.006467336,-0.00131459,-0.000493911,-0.002441694
-0.00646901,-0.001314525,-0.000492343,-0.002440669
-0.006470685,-0.001314453,-0.000490782,-0.002439635
-0.006472362,-0.001314376,-0.000489226,-0.002438593
-0.006474041,-0.001314294,-0.000487677,-0.002437543
-0.006475722,-0.001314205,-0.000486134,-0.002436485
-0.006477404,-0.001314111,-0.000484597,-0.00243542
-0.006479088,-0.001314011,-0.000483066,-0.002434348
-0.006480773,-0.001313905,-0.000481541,-0.00243327
-0.006482459,-0.001313794,-0.000480023,-0.002432184
-0.006484146,-0.001313677,-0.000478511,-0.002431093
-0.006485834,-0.001313554,-0.000477006,-0.002429995
-0.006487522,-0.001313425,-0.000475507,-0.002428892
-0.006489211,-0.00131329,-0.000474014,-0.002427783
-0.006490901,-0.00131315,-0.000472527,-0.002426668
-0.006492591,-0.001313003,-0.000471047,-0.002425548
-0.006494281,-0.001312851,-0.000469573,-0.002424423
-0.006495971,-0.001312693,-0.000468106,-0.002423292
-0.006497661,-0.001312529,-0.000466644,-0.002422155
-0.00649935,-0.00131236,-0.00046519,-0.002421014
-0.006501039,-0.001312184,-0.000463741,-0.002419867
-0.006502727,-0.001312002,-0.000462299,-0.002418714
-0.006504414,-0.001311815,-0.000460863,-0.002417556
-0.0065061,-0.001311621,-0.000459434,-0.002416392
-0.006507784,-0.001311422,-0.000458011,-0.002415222
-0.006509467,-0.001311217,-0.000456594,-0.002414047
-0.006511148,-0.001311007,-0.000455184,-0.002412866
-0.006512827,-0.001310791,-0.00045378,-0.002411679
-0.006514504,-0.001310569,-0.000452383,-0.002410486
-0.006516179,-0.001310342,-0.000450992,-0.002409287
-0.006517851,-0.001310109,-0.000449608,-0.002408083
-0.006519521,-0.00130987,-0.00044823,-0.002406872
-0.006521188,-0.001309625,-0.000446859,-0.002405656
-0.006522852,-0.001309374,-0.000445494,-0.002404434
-0.006524513,-0.001309117,-0.000444136,-0.002403208
-0.006526171,-0.001308853,-0.000442785,-0.002401977
-0.006527826,-0.001308584,-0.00044144,-0.002400741
-0.006529477,-0.001308309,-0.000440102,-0.002399501
-0.006531125,-0.001308027,-0.00043877,-0.002398256
-0.006532769,-0.001307739,-0.000437445,-0.002397009
-0.00653441,-0.001307445,-0.000436127,-0.002395758
-0.006536047,-0.001307145,-0.000434815,-0.002394504
-0.00653768,-0.001306839,-0.000433511,-0.002393248
-0.00653931,-0.001306527,-0.000432212,-0.002391989
-0.006540936,-0.001306208,-0.000430921,-0.002390729
-0.006542558,-0.001305883,-0.000429636,-0.002389466
-0.006544176,-0.001305552,-0.000428357,-0.002388202
-0.00654579,-0.001305215,-0.000427085,-0.002386937
-0.0065474,-0.001304871,-0.00042582,-0.002385671
-0.006549006,-0.001304521,-0.000424561,-0.002384404
-0.006550607,-0.001304165,-0.000423308,-0.002383137
-0.006552204,-0.001303802,-0.000422062,-0.002381869
-0.006553796,-0.001303433,-0.000420822,-0.002380602
-0.006555384,-0.001303058,-0.000419588,-0.002379335
-0.006556966,-0.001302676,-0.000418361,-0.002378069
-0.006558544,-0.001302288,-0.000417141,-0.002376804
-0.006560117,-0.001301893,-0.000415926,-0.00237554
-0.006561685,-0.001301491,-0.000414719,-0.002374277
-0.006563249,-0.001301082,-0.000413517,-0.002373015
-0.006564807,-0.001300666,-0.000412322,-0.002371755
-0.00656636,-0.001300242,-0.000411132,-0.002370497
-0.006567908,-0.00129981,-0.000409949,-0.00236924
-0.00656945,-0.001299371,-0.000408772,-0.002367985
-0.006570987,-0.001298924,-0.000407601,-0.002366732
-0.006572519,-0.001298469,-0.000406435,-0.002365481
-0.006574045,-0.001298005,-0.000405275,-0.002364232
-0.006575566,-0.001297534,-0.00040412,-0.002362985
-0.006577081,-0.001297055,-0.000402972,-0.002361742
-0.006578591,-0.001296568,-0.000401828,-0.0023605
-0.006580095,-0.001296072,-0.00040069,-0.002359262
-0.006581592,-0.001295569,-0.000399558,-0.002358026
-0.006583084,-0.001295056,-0.000398431,-0.002356793
-0.00658457,-0.001294536,-0.000397309,-0.002355563
-0.006586049,-0.001294007,-0.000396193,-0.002354336
-0.006587522,-0.001293469,-0.000395082,-0.002353111
-0.006588989,-0.001292922,-0.000393977,-0.00235189
-0.006590449,-0.001292367,-0.000392878,-0.002350671
-0.006591903,-0.001291802,-0.000391784,-0.002349454
-0.00659335,-0.001291229,-0.000390695,-0.002348241
-0.006594791,-0.001290646,-0.000389612,-0.002347029
-0.006596224,-0.001290054,-0.000388534,-0.00234582
-0.006597651,-0.001289453,-0.000387461,-0.002344614
-0.00659907,-0.001288842,-0.000386393,-0.00234341
-0.006600482,-0.001288222,-0.00038533,-0.002342208
-0.006601888,-0.001287593,-0.000384273,-0.002341009
-0.006603286,-0.001286954,-0.00038322,-0.002339811
-0.006604676,-0.001286305,-0.000382172,-0.002338617
-0.00660606,-0.001285647,-0.000381129,-0.002337424
-0.006607436,-0.00128498,-0.00038009,-0.002336234
-0.006608804,-0.001284302,-0.000379056,-0.002335046
-0.006610165,-0.001283615,-0.000378026,-0.00233386
-0.006611519,-0.001282919,-0.000377,-0.002332677
-0.006612865,-0.001282213,-0.000375979,-0.002331495
-0.006614203,-0.001281497,-0.000374961,-0.002330316
-0.006615533,-0.001280772,-0.000373947,-0.002329139
-0.006616856,-0.001280038,-0.000372936,-0.002327963
-0.006618171,-0.001279294,-0.00037193,-0.00232679
-0.006619477,-0.001278541,-0.000370926,-0.002325619
-0.006620776,-0.001277777,-0.000369926,-0.002324451
-0.006622066,-0.001277004,-0.00036893,-0.002323285
-0.006623348,-0.001276221,-0.000367937,-0.002322121
-0.006624621,-0.001275427,-0.000366947,-0.00232096
-0.006625886,-0.001274623,-0.00036596,-0.002319801
-0.006627142,-0.001273809,-0.000364976,-0.002318645
-0.006628389,-0.001272984,-0.000363996,-0.002317491
-0.006629628,-0.001272149,-0.000363018,-0.002316341
-0.006630858,-0.001271303,-0.000362043,-0.002315194
-0.006632079,-0.001270446,-0.000361071,-0.00231405
-0.006633291,-0.001269579,-0.000360102,-0.002312911
-0.006634495,-0.001268701,-0.000359136,-0.002311775
-0.006635689,-0.001267812,-0.000358173,-0.002310644
-0.006636874,-0.001266913,-0.000357212,-0.002309517
-0.00663805,-0.001266002,-0.000356254,-0.002308394
-0.006639217,-0.001265081,-0.000355299,-0.002307275
-0.006640374,-0.001264149,-0.000354346,-0.002306161
-0.006641522,-0.001263206,-0.000353396,-0.002305051
-0.006642661,-0.001262253,-0.000352448,-0.002303946
-0.00664379,-0.001261288,-0.000351503,-0.002302844
-0.00664491,-0.001260312,-0.000350561,-0.002301747
-0.006646021,-0.001259325,-0.000349621,-0.002300654
-0.006647122,-0.001258328,-0.000348683,-0.002299566
-0.006648213,-0.001257319,-0.000347749,-0.002298482
-0.006649295,-0.0012563,-0.000346816,-0.002297404
-0.006650368,-0.00125527,-0.000345887,-0.00229633
-0.006651431,-0.001254229,-0.00034496,-0.002295263
-0.006652484,-0.001253177,-0.000344036,-0.002294202
-0.006653529,-0.001252114,-0.000343114,-0.002293147
-0.006654563,-0.00125104,-0.000342195,-0.0022921
-0.006655589,-0.001249956,-0.000341279,-0.002291059
-0.006656605,-0.001248861,-0.000340366,-0.002290026
-0.006657612,-0.001247755,-0.000339455,-0.002289001
-0.006658609,-0.001246639,-0.000338547,-0.002287983
-0.006659597,-0.001245512,-0.000337642,-0.002286973
-0.006660576,-0.001244375,-0.000336739,-0.002285972
-0.006661545,-0.001243227,-0.000335838,-0.002284979
-0.006662506,-0.001242069,-0.000334941,-0.002283995
-0.006663457,-0.0012409,-0.000334046,-0.002283019
-0.0066644,-0.001239721,-0.000333153,-0.002282052
-0.006665334,-0.001238531,-0.000332264,-0.002281093
-0.006666259,-0.001237331,-0.000331377,-0.002280142
-0.006667175,-0.001236121,-0.000330494,-0.002279199
-0.006668083,-0.0012349,-0.000329613,-0.002278265
-0.006668983,-0.001233669,-0.000328735,-0.002277339
-0.006669874,-0.001232428,-0.00032786,-0.002276421
-0.006670757,-0.001231176,-0.000326988,-0.002275511
-0.006671631,-0.001229915,-0.000326119,-0.00227461
-0.006672497,-0.001228643,-0.000325253,-0.002273718
-0.006673355,-0.001227361,-0.00032439,-0.002272834
-0.006674205,-0.001226069,-0.00032353,-0.002271959
-0.006675046,-0.001224766,-0.000322673,-0.002271093
-0.006675878,-0.001223454,-0.000321819,-0.002270237
-0.006676702,-0.001222131,-0.000320968,-0.00226939
-0.006677518,-0.001220797,-0.00032012,-0.002268553
-0.006678326,-0.001219454,-0.000319275,-0.002267725
-0.006679125,-0.0012181,-0.000318433,-0.002266907
-0.006679916,-0.001216736,-0.000317595,-0.002266098
-0.006680698,-0.001215362,-0.000316761,-0.002265298
-0.006681472,-0.001213977,-0.00031593,-0.002264508
-0.006682239,-0.001212582,-0.000315102,-0.002263727
-0.006682997,-0.001211176,-0.000314278,-0.002262956
-0.006683746,-0.001209761,-0.000313458,-0.002262195
-0.006684488,-0.001208335,-0.000312641,-0.002261444
-0.006685221,-0.001206899,-0.000311828,-0.002260704
-0.006685946,-0.001205452,-0.000311018,-0.002259975
-0.006686663,-0.001203996,-0.000310211,-0.002259257
-0.006687372,-0.001202529,-0.000309408,-0.002258551
-0.006688072,-0.001201053,-0.000308608,-0.002257857
-0.006688764,-0.001199567,-0.000307811,-0.002257176
-0.006689448,-0.00119807,-0.000307018,-0.002256506
-0.006690124,-0.001196564,-0.000306228,-0.00225585
-0.006690791,-0.001195049,-0.000305442,-0.002255206
-0.00669145,-0.001193524,-0.000304659,-0.002254575
-0.006692101,-0.001191989,-0.000303879,-0.002253957
-0.006692743,-0.001190446,-0.000303103,-0.002253353
-0.006693376,-0.001188893,-0.00030233,-0.002252762
-0.006694,-0.001187332,-0.000301561,-0.002252186
-0.006694616,-0.001185762,-0.000300795,-0.002251623
-0.006695223,-0.001184184,-0.000300032,-0.002251075
-0.006695821,-0.001182597,-0.000299273,-0.002250541
-0.00669641,-0.001181002,-0.000298516,-0.002250022
-0.006696991,-0.001179399,-0.000297763,-0.002249517
-0.006697562,-0.001177787,-0.000297013,-0.002249027
-0.006698125,-0.001176168,-0.000296266,-0.002248552
-0.006698679,-0.001174541,-0.000295522,-0.002248091
-0.006699225,-0.001172906,-0.000294781,-0.002247646
-0.006699761,-0.001171263,-0.000294043,-0.002247215
-0.006700289,-0.001169612,-0.000293307,-0.0022468
-0.006700808,-0.001167954,-0.000292575,-0.002246399
-0.006701319,-0.001166288,-0.000291846,-0.002246015
-0.00670182,-0.001164615,-0.000291119,-0.002245645
-0.006702314,-0.001162935,-0.000290395,-0.002245292
-0.006702798,-0.001161247,-0.000289675,-0.002244954
-0.006703274,-0.001159553,-0.000288957,-0.002244631
-0.006703742,-0.001157852,-0.000288242,-0.002244324
-0.006704201,-0.001156143,-0.000287531,-0.002244032
-0.006704651,-0.001154429,-0.000286822,-0.002243755
-0.006705094,-0.001152708,-0.000286117,-0.002243493
-0.006705528,-0.00115098,-0.000285414,-0.002243246
-0.006705954,-0.001149246,-0.000284715,-0.002243014
-0.006706372,-0.001147506,-0.000284019,-0.002242797
-0.006706782,-0.00114576,-0.000283326,-0.002242595
-0.006707183,-0.001144008,-0.000282637,-0.00224241
-0.006707576,-0.00114225,-0.000281951,-0.00224224
-0.006707961,-0.001140486,-0.000281268,-0.002242087
-0.006708337,-0.001138717,-0.000280589,-0.00224195
-0.006708705,-0.001136942,-0.000279914,-0.002241829
-0.006709065,-0.001135161,-0.000279242,-0.002241724
-0.006709417,-0.001133375,-0.000278573,-0.002241636
-0.00670976,-0.001131584,-0.000277909,-0.002241563
-0.006710095,-0.001129787,-0.000277247,-0.002241507
-0.006710422,-0.001127986,-0.00027659,-0.002241467
-0.00671074,-0.001126179,-0.000275936,-0.002241442
-0.00671105,-0.001124367,-0.000275286,-0.002241434
-0.006711352,-0.001122551,-0.000274639,-0.00224144
-0.006711645,-0.001120729,-0.000273997,-0.002241463
-0.006711929,-0.001118903,-0.000273358,-0.002241501
-0.006712205,-0.001117073,-0.000272722,-0.002241555
-0.006712473,-0.001115238,-0.000272091,-0.002241625
-0.006712731,-0.001113399,-0.000271463,-0.002241711
-0.006712981,-0.001111555,-0.000270839,-0.002241812
-0.006713223,-0.001109707,-0.000270219,-0.00224193
-0.006713455,-0.001107855,-0.000269603,-0.002242064
-0.006713678,-0.001105998,-0.000268991,-0.002242214
-0.006713893,-0.001104138,-0.000268383,-0.00224238
-0.006714098,-0.001102273,-0.000267778,-0.002242562
-0.006714295,-0.001100405,-0.000267178,-0.002242761
-0.006714483,-0.001098532,-0.000266581,-0.002242976
-0.006714662,-0.001096656,-0.000265988,-0.002243208
-0.006714832,-0.001094777,-0.000265399,-0.002243457
-0.006714993,-0.001092894,-0.000264814,-0.002243723
-0.006715146,-0.001091007,-0.000264232,-0.002244006
-0.00671529,-0.001089118,-0.000263654,-0.002244307
-0.006715426,-0.001087225,-0.000263079,-0.002244626
-0.006715553,-0.001085329,-0.000262508,-0.002244964
-0.006715671,-0.00108343,-0.00026194,-0.00224532
-0.006715781,-0.001081527,-0.000261376,-0.002245695
-0.006715882,-0.001079622,-0.000260815,-0.002246089
-0.006715975,-0.001077714,-0.000260258,-0.002246502
-0.006716058,-0.001075802,-0.000259704,-0.002246935
-0.006716133,-0.001073888,-0.000259154,-0.002247387
-0.0067162,-0.001071971,-0.000258607,-0.00224786
-0.006716257,-0.001070051,-0.000258063,-0.002248353
-0.006716306,-0.001068128,-0.000257523,-0.002248866
-0.006716346,-0.001066203,-0.000256986,-0.0022494
-0.006716377,-0.001064275,-0.000256452,-0.002249954
-0.006716399,-0.001062344,-0.000255921,-0.002250529
-0.006716413,-0.00106041,-0.000255393,-0.002251125
-0.006716417,-0.001058475,-0.000254868,-0.002251743
-0.006716414,-0.001056537,-0.000254346,-0.002252381
-0.006716401,-0.001054596,-0.000253826,-0.002253041
-0.00671638,-0.001052654,-0.00025331,-0.002253722
-0.00671635,-0.00105071,-0.000252796,-0.002254425
-0.006716311,-0.001048763,-0.000252284,-0.002255149
-0.006716265,-0.001046815,-0.000251775,-0.002255895
-0.00671621,-0.001044866,-0.000251269,-0.002256663
-0.006716146,-0.001042915,-0.000250766,-0.002257453
-0.006716074,-0.001040963,-0.000250266,-0.002258264
-0.006715994,-0.00103901,-0.000249768,-0.002259097
-0.006715906,-0.001037057,-0.000249273,-0.002259952
-0.006715809,-0.001035103,-0.000248782,-0.002260828
-0.006715705,-0.001033148,-0.000248293,-0.002261727
-0.006715592,-0.001031193,-0.000247807,-0.002262647
-0.006715472,-0.001029238,-0.000247324,-0.002263588
-0.006715343,-0.001027282,-0.000246843,-0.002264552
-0.006715207,-0.001025326,-0.000246366,-0.002265538
-0.006715062,-0.00102337,-0.000245891,-0.002266545
-0.00671491,-0.001021414,-0.000245419,-0.002267574
-0.006714749,-0.001019458,-0.00024495,-0.002268625
-0.006714581,-0.001017503,-0.000244484,-0.002269699
-0.006714406,-0.001015548,-0.000244021,-0.002270794
-0.006714222,-0.001013594,-0.00024356,-0.002271912
-0.006714031,-0.001011642,-0.000243103,-0.002273052
-0.006713833,-0.001009691,-0.000242648,-0.002274215
-0.006713627,-0.001007742,-0.000242196,-0.0022754
-0.006713414,-0.001005795,-0.000241748,-0.002276607
-0.006713193,-0.00100385,-0.000241302,-0.002277837
-0.006712966,-0.001001909,-0.00024086,-0.00227909
-0.006712731,-0.00099997,-0.00024042,-0.002280365
-0.006712489,-0.000998035,-0.000239984,-0.002281663
-0.00671224,-0.000996102,-0.00023955,-0.002282984
-0.006711984,-0.000994173,-0.000239119,-0.002284328
-0.006711721,-0.000992246,-0.000238692,-0.002285693
-0.006711451,-0.000990323,-0.000238267,-0.002287081
-0.006711174,-0.000988403,-0.000237845,-0.002288492
-0.00671089,-0.000986487,-0.000237426,-0.002289925
-0.006710599,-0.000984574,-0.000237009,-0.002291379
-0.006710302,-0.000982665,-0.000236596,-0.002292856
-0.006709997,-0.000980759,-0.000236186,-0.002294356
-0.006709687,-0.000978858,-0.000235779,-0.002295877
-0.006709369,-0.000976961,-0.000235375,-0.00229742
-0.006709046,-0.000975068,-0.000234973,-0.002298984
-0.006708716,-0.000973179,-0.000234575,-0.00230057
-0.006708379,-0.000971296,-0.00023418,-0.002302178
-0.006708036,-0.000969417,-0.000233788,-0.002303808
-0.006707688,-0.000967543,-0.000233398,-0.002305459
-0.006707333,-0.000965675,-0.000233012,-0.002307131
-0.006706972,-0.000963812,-0.000232628,-0.002308825
-0.006706605,-0.000961954,-0.000232246,-0.002310541
-0.006706232,-0.000960102,-0.000231867,-0.002312279
-0.006705854,-0.000958256,-0.00023149,-0.002314038
-0.00670547,-0.000956415,-0.000231116,-0.00231582
-0.00670508,-0.000954581,-0.000230743,-0.002317623
-0.006704684,-0.000952752,-0.000230373,-0.002319448
-0.006704283,-0.00095093,-0.000230006,-0.002321295
-0.006703877,-0.000949113,-0.00022964,-0.002323165
-0.006703465,-0.000947303,-0.000229277,-0.002325057
-0.006703049,-0.000945499,-0.000228915,-0.002326971
-0.006702627,-0.000943701,-0.000228556,-0.002328907
-0.006702201,-0.00094191,-0.000228199,-0.002330865
-0.006701769,-0.000940125,-0.000227844,-0.002332845
-0.006701333,-0.000938348,-0.00022749,-0.002334848
-0.006700892,-0.000936577,-0.000227139,-0.002336873
-0.006700447,-0.000934813,-0.00022679,-0.00233892
-0.006699997,-0.000933057,-0.000226442,-0.002340989
-0.006699543,-0.000931308,-0.000226096,-0.002343081
-0.006699084,-0.000929567,-0.000225751,-0.002345195
-0.006698622,-0.000927834,-0.000225408,-0.002347331
-0.006698155,-0.000926109,-0.000225066,-0.00234949
-0.006697684,-0.000924392,-0.000224725,-0.002351671
-0.006697209,-0.000922683,-0.000224386,-0.002353874
-0.006696731,-0.000920982,-0.000224048,-0.0023561
-0.006696248,-0.00091929,-0.000223711,-0.002358348
-0.006695763,-0.000917606,-0.000223375,-0.002360618
-0.006695273,-0.000915931,-0.000223041,-0.00236291
-0.006694781,-0.000914265,-0.000222708,-0.002365225
-0.006694285,-0.000912606,-0.000222377,-0.002367562
-0.006693786,-0.000910957,-0.000222047,-0.002369922
-0.006693283,-0.000909316,-0.000221718,-0.002372305
-0.006692778,-0.000907684,-0.00022139,-0.00237471
-0.00669227,-0.00090606,-0.000221064,-0.002377136
-0.006691758,-0.000904445,-0.000220739,-0.002379585
-0.006691244,-0.000902839,-0.000220415,-0.002382056
-0.006690728,-0.000901241,-0.000220092,-0.002384547
-0.006690208,-0.000899652,-0.00021977,-0.00238706
-0.006689687,-0.000898073,-0.00021945,-0.002389594
-0.006689163,-0.000896502,-0.00021913,-0.002392149
-0.006688636,-0.000894941,-0.000218811,-0.002394724
-0.006688108,-0.000893389,-0.000218493,-0.002397319
-0.006687577,-0.000891846,-0.000218175,-0.002399933
-0.006687044,-0.000890313,-0.000217859,-0.002402566
-0.00668651,-0.000888789,-0.000217543,-0.002405217
-0.006685974,-0.000887275,-0.000217228,-0.002407887
-0.006685435,-0.00088577,-0.000216914,-0.002410574
-0.006684896,-0.000884275,-0.0002166,-0.002413278
-0.006684354,-0.00088279,-0.000216287,-0.002416
-0.006683811,-0.000881314,-0.000215974,-0.002418737
-0.006683267,-0.000879848,-0.000215662,-0.002421491
-0.006682721,-0.000878391,-0.00021535,-0.00242426
-0.006682174,-0.000876945,-0.000215038,-0.002427045
-0.006681625,-0.000875509,-0.000214726,-0.002429845
-0.006681076,-0.000874083,-0.000214415,-0.002432659
-0.006680525,-0.000872667,-0.000214104,-0.002435488
-0.006679973,-0.000871262,-0.000213793,-0.002438331
-0.00667942,-0.000869868,-0.000213482,-0.002441188
-0.006678866,-0.000868484,-0.000213171,-0.002444059
-0.006678312,-0.000867111,-0.00021286,-0.002446943
-0.006677757,-0.000865748,-0.000212549,-0.002449841
-0.006677201,-0.000864396,-0.000212238,-0.002452752
-0.006676645,-0.000863053,-0.000211928,-0.002455675
-0.006676089,-0.000861721,-0.000211617,-0.002458611
-0.006675532,-0.000860399,-0.000211307,-0.00246156
-0.006674976,-0.000859087,-0.000210996,-0.002464522
-0.00667442,-0.000857785,-0.000210686,-0.002467496
-0.006673864,-0.000856493,-0.000210376,-0.002470483
-0.006673308,-0.000855211,-0.000210066,-0.002473481
-0.006672753,-0.000853939,-0.000209755,-0.002476493
-0.006672199,-0.000852677,-0.000209445,-0.002479516
-0.006671645,-0.000851425,-0.000209134,-0.002482552
-0.006671092,-0.000850182,-0.000208823,-0.0024856
-0.00667054,-0.00084895,-0.000208512,-0.002488661
-0.00666999,-0.000847727,-0.0002082,-0.002491733
-0.00666944,-0.000846514,-0.000207888,-0.002494817
-0.006668892,-0.00084531,-0.000207576,-0.002497913
-0.006668345,-0.000844117,-0.000207263,-0.002501021
-0.0066678,-0.000842933,-0.00020695,-0.002504139
-0.006667257,-0.000841759,-0.000206637,-0.002507269
-0.006666716,-0.000840595,-0.000206323,-0.002510409
-0.006666176,-0.000839441,-0.000206009,-0.00251356
-0.00666564,-0.000838297,-0.000205695,-0.002516721
-0.006665105,-0.000837163,-0.000205381,-0.002519893
-0.006664573,-0.000836038,-0.000205067,-0.002523075
-0.006664044,-0.000834924,-0.000204752,-0.002526267
-0.006663518,-0.000833819,-0.000204438,-0.00252947
-0.006662994,-0.000832723,-0.000204123,-0.002532683
-0.006662474,-0.000831637,-0.000203809,-0.002535906
-0.006661957,-0.000830561,-0.000203494,-0.002539139
-0.006661442,-0.000829495,-0.00020318,-0.002542381
-0.006660931,-0.000828438,-0.000202865,-0.002545633
-0.006660423,-0.00082739,-0.000202551,-0.002548894
-0.006659918,-0.000826352,-0.000202237,-0.002552164
-0.006659417,-0.000825324,-0.000201923,-0.002555443
-0.006658918,-0.000824305,-0.000201609,-0.00255873
-0.006658424,-0.000823295,-0.000201296,-0.002562025
-0.006657932,-0.000822295,-0.000200983,-0.002565328
-0.006657444,-0.000821305,-0.000200671,-0.002568639
-0.006656959,-0.000820325,-0.000200359,-0.002571958
-0.006656478,-0.000819355,-0.000200047,-0.002575285
-0.006656,-0.000818394,-0.000199736,-0.002578618
-0.006655526,-0.000817443,-0.000199426,-0.002581959
-0.006655055,-0.000816502,-0.000199116,-0.002585308
-0.006654587,-0.00081557,-0.000198806,-0.002588664
-0.006654123,-0.000814648,-0.000198498,-0.002592027
-0.006653662,-0.000813736,-0.00019819,-0.002595398
-0.006653205,-0.000812834,-0.000197883,-0.002598776
-0.006652751,-0.000811941,-0.000197576,-0.002602163
-0.006652301,-0.000811057,-0.000197271,-0.002605557
-0.006651854,-0.000810183,-0.000196966,-0.002608959
-0.00665141,-0.000809319,-0.000196663,-0.002612369
-0.006650971,-0.000808463,-0.00019636,-0.002615787
-0.006650534,-0.000807617,-0.000196058,-0.002619213
-0.006650102,-0.000806781,-0.000195757,-0.002622647
-0.006649673,-0.000805953,-0.000195456,-0.002626088
-0.006649248,-0.000805134,-0.000195156,-0.002629535
-0.006648826,-0.000804325,-0.000194857,-0.002632991
-0.006648408,-0.000803525,-0.000194559,-0.002636452
-0.006647994,-0.000802734,-0.000194261,-0.002639921
-0.006647583,-0.000801952,-0.000193964,-0.002643397
-0.006647176,-0.000801179,-0.000193667,-0.002646879
-0.006646773,-0.000800415,-0.000193371,-0.002650367
-0.006646374,-0.000799661,-0.000193076,-0.00265386
-0.006645979,-0.000798916,-0.000192782,-0.00265736
-0.006645587,-0.00079818,-0.000192488,-0.002660864
-0.0066452,-0.000797453,-0.000192195,-0.002664374
-0.006644817,-0.000796735,-0.000191903,-0.002667887
-0.006644437,-0.000796026,-0.000191612,-0.002671405
-0.006644062,-0.000795327,-0.000191321,-0.002674927
-0.006643691,-0.000794636,-0.000191031,-0.002678453
-0.006643324,-0.000793954,-0.000190742,-0.002681982
-0.006642961,-0.000793282,-0.000190454,-0.002685514
-0.006642602,-0.000792618,-0.000190167,-0.002689049
-0.006642248,-0.000791962,-0.000189881,-0.002692587
-0.006641897,-0.000791315,-0.000189596,-0.002696128
-0.006641551,-0.000790676,-0.000189312,-0.002699671
-0.006641209,-0.000790046,-0.000189029,-0.002703217
-0.00664087,-0.000789423,-0.000188748,-0.002706766
-0.006640536,-0.000788809,-0.000188467,-0.002710316
-0.006640206,-0.000788202,-0.000188188,-0.002713869
-0.00663988,-0.000787603,-0.00018791,-0.002717423
-0.006639557,-0.000787012,-0.000187634,-0.002720978
-0.006639239,-0.000786429,-0.00018736,-0.002724534
-0.006638925,-0.000785853,-0.000187087,-0.00272809
-0.006638615,-0.000785285,-0.000186816,-0.002731646
-0.00663831,-0.000784724,-0.000186546,-0.002735201
-0.006638009,-0.000784171,-0.000186278,-0.002738755
-0.006637712,-0.000783625,-0.000186012,-0.002742309
-0.006637419,-0.000783086,-0.000185748,-0.002745861
-0.006637131,-0.000782554,-0.000185485,-0.002749411
-0.006636848,-0.000782028,-0.000185224,-0.002752959
-0.006636569,-0.00078151,-0.000184965,-0.002756505
-0.006636294,-0.000780998,-0.000184708,-0.002760048
-0.006636025,-0.000780493,-0.000184452,-0.002763588
-0.00663576,-0.000779995,-0.000184199,-0.002767124
-0.0066355,-0.000779503,-0.000183947,-0.002770657
-0.006635245,-0.000779018,-0.000183697,-0.002774185
-0.006634994,-0.000778539,-0.000183448,-0.002777709
-0.006634749,-0.000778068,-0.000183202,-0.002781227
-0.006634509,-0.000777602,-0.000182958,-0.00278474
-0.006634273,-0.000777144,-0.000182716,-0.002788247
-0.006634043,-0.000776691,-0.000182475,-0.002791747
-0.006633818,-0.000776246,-0.000182237,-0.002795241
-0.006633598,-0.000775806,-0.000182001,-0.002798727
-0.006633383,-0.000775373,-0.000181766,-0.002802207
-0.006633173,-0.000774947,-0.000181534,-0.002805678
-0.006632969,-0.000774526,-0.000181303,-0.002809141
-0.00663277,-0.000774112,-0.000181075,-0.002812596
-0.006632577,-0.000773705,-0.000180848,-0.002816043
-0.006632388,-0.000773303,-0.000180623,-0.00281948
-0.006632206,-0.000772907,-0.000180401,-0.002822908
-0.006632029,-0.000772517,-0.00018018,-0.002826326
-0.006631857,-0.000772133,-0.000179962,-0.002829735
-0.006631692,-0.000771755,-0.000179746,-0.002833135
-0.006631532,-0.000771382,-0.000179532,-0.002836524
-0.006631377,-0.000771015,-0.00017932,-0.002839903
-0.006631229,-0.000770654,-0.00017911,-0.002843272
-0.006631086,-0.000770297,-0.000178903,-0.002846629
-0.006630949,-0.000769947,-0.000178699,-0.002849976
-0.006630817,-0.000769601,-0.000178496,-0.002853312
-0.006630692,-0.000769261,-0.000178297,-0.002856637
-0.006630572,-0.000768926,-0.000178099,-0.002859949
-0.006630458,-0.000768596,-0.000177905,-0.002863249
-0.00663035,-0.000768271,-0.000177713,-0.002866536
-0.006630248,-0.000767952,-0.000177523,-0.00286981
-0.006630152,-0.000767637,-0.000177336,-0.00287307
-0.006630062,-0.000767328,-0.000177151,-0.002876315
-0.006629979,-0.000767023,-0.00017697,-0.002879547
-0.006629902,-0.000766724,-0.00017679,-0.002882764
-0.006629831,-0.000766429,-0.000176614,-0.002885966
-0.006629766,-0.00076614,-0.00017644,-0.002889153
-0.006629708,-0.000765857,-0.000176269,-0.002892324
-0.006629657,-0.000765578,-0.000176101,-0.00289548
-0.006629612,-0.000765304,-0.000175936,-0.00289862
-0.006629574,-0.000765035,-0.000175774,-0.002901743
-0.006629542,-0.000764771,-0.000175615,-0.00290485
-0.006629518,-0.000764512,-0.000175459,-0.002907939
-0.0066295,-0.000764257,-0.000175306,-0.002911011
-0.006629489,-0.000764007,-0.000175156,-0.002914065
-0.006629486,-0.000763762,-0.000175009,-0.002917101
-0.006629489,-0.000763521,-0.000174866,-0.002920118
-0.0066295,-0.000763284,-0.000174726,-0.002923116
-0.006629518,-0.000763051,-0.000174589,-0.002926093
-0.006629544,-0.000762822,-0.000174455,-0.00292905
-0.006629576,-0.000762597,-0.000174325,-0.002931987
-0.006629616,-0.000762376,-0.000174198,-0.002934901
-0.006629663,-0.000762158,-0.000174074,-0.002937794
-0.006629717,-0.000761944,-0.000173954,-0.002940664
-0.006629778,-0.000761734,-0.000173838,-0.002943511
-0.006629846,-0.000761526,-0.000173725,-0.002946335
-0.006629921,-0.000761322,-0.000173616,-0.002949135
-0.006630003,-0.00076112,-0.00017351,-0.002951911
-0.006630092,-0.00076092,-0.000173409,-0.002954662
-0.006630187,-0.000760722,-0.000173311,-0.002957388
-0.006630289,-0.000760527,-0.000173218,-0.002960089
-0.006630398,-0.000760333,-0.000173128,-0.002962764
-0.006630514,-0.000760142,-0.000173042,-0.002965414
-0.006630636,-0.000759951,-0.00017296,-0.002968037
-0.006630765,-0.000759762,-0.000172882,-0.002970634
-0.0066309,-0.000759573,-0.000172808,-0.002973204
-0.006631042,-0.000759385,-0.000172737,-0.002975747
-0.00663119,-0.000759198,-0.00017267,-0.002978264
-0.006631344,-0.000759012,-0.000172607,-0.002980752
-0.006631505,-0.000758825,-0.000172548,-0.002983213
-0.006631673,-0.000758639,-0.000172493,-0.002985645
-0.006631846,-0.000758454,-0.000172442,-0.002988049
-0.006632026,-0.000758268,-0.000172394,-0.002990423
-0.006632213,-0.000758083,-0.000172351,-0.002992768
-0.006632406,-0.000757897,-0.000172311,-0.002995083
-0.006632605,-0.000757711,-0.000172276,-0.002997367
-0.006632811,-0.000757526,-0.000172245,-0.002999622
-0.006633023,-0.000757339,-0.000172218,-0.003001845
-0.006633242,-0.000757152,-0.000172195,-0.003004037
-0.006633466,-0.000756964,-0.000172176,-0.003006198
-0.006633698,-0.000756774,-0.00017216,-0.003008327
-0.006633935,-0.000756584,-0.000172149,-0.003010424
-0.006634178,-0.000756391,-0.000172141,-0.003012489
-0.006634428,-0.000756198,-0.000172138,-0.003014521
-0.006634683,-0.000756002,-0.000172137,-0.003016521
-0.006634945,-0.000755805,-0.000172141,-0.003018489
-0.006635212,-0.000755606,-0.000172148,-0.003020423
-0.006635486,-0.000755404,-0.000172159,-0.003022325
-0.006635765,-0.000755201,-0.000172173,-0.003024193
-0.00663605,-0.000754994,-0.000172191,-0.003026028
-0.00663634,-0.000754785,-0.000172213,-0.00302783
-0.006636636,-0.000754572,-0.000172238,-0.003029598
-0.006636937,-0.000754356,-0.000172267,-0.003031331
-0.006637244,-0.000754137,-0.000172299,-0.003033031
-0.006637556,-0.000753914,-0.000172335,-0.003034695
-0.006637872,-0.000753686,-0.000172374,-0.003036325
-0.006638194,-0.000753455,-0.000172417,-0.00303792
-0.00663852,-0.000753219,-0.000172464,-0.003039479
-0.006638852,-0.000752979,-0.000172514,-0.003041003
-0.006639187,-0.000752734,-0.000172568,-0.00304249
-0.006639527,-0.000752485,-0.000172625,-0.003043942
-0.006639872,-0.00075223,-0.000172686,-0.003045356
-0.006640221,-0.00075197,-0.000172751,-0.003046733
-0.006640574,-0.000751705,-0.000172819,-0.003048072
-0.006640931,-0.000751434,-0.000172891,-0.003049373
-0.006641292,-0.000751157,-0.000172966,-0.003050636
-0.006641657,-0.000750875,-0.000173045,-0.003051861
-0.006642026,-0.000750587,-0.000173127,-0.003053047
-0.006642398,-0.000750294,-0.000173213,-0.003054194
-0.006642774,-0.000749995,-0.000173302,-0.003055303
-0.006643153,-0.00074969,-0.000173394,-0.003056372
-0.006643535,-0.00074938,-0.000173489,-0.003057402
-0.00664392,-0.000749063,-0.000173588,-0.003058393
-0.006644309,-0.00074874,-0.000173689,-0.003059345
-0.0066447,-0.000748412,-0.000173794,-0.003060258
-0.006645093,-0.000748077,-0.000173902,-0.003061131
-0.00664549,-0.000747736,-0.000174013,-0.003061965
-0.006645888,-0.000747388,-0.000174127,-0.003062761
-0.006646289,-0.000747035,-0.000174245,-0.003063517
-0.006646692,-0.000746675,-0.000174365,-0.003064235
-0.006647098,-0.000746308,-0.000174488,-0.003064914
-0.006647505,-0.000745935,-0.000174614,-0.003065555
-0.006647914,-0.000745556,-0.000174744,-0.003066158
-0.006648325,-0.00074517,-0.000174877,-0.003066724
-0.006648737,-0.000744777,-0.000175012,-0.003067251
-0.006649151,-0.000744377,-0.000175151,-0.003067741
-0.006649566,-0.000743971,-0.000175293,-0.003068194
-0.006649982,-0.000743558,-0.000175438,-0.003068609
-0.006650399,-0.000743137,-0.000175586,-0.003068987
-0.006650818,-0.00074271,-0.000175736,-0.003069328
-0.006651237,-0.000742276,-0.000175889,-0.003069631
-0.006651657,-0.000741834,-0.000176046,-0.003069898
-0.006652077,-0.000741386,-0.000176205,-0.003070127
-0.006652497,-0.000740931,-0.000176367,-0.003070319
-0.006652918,-0.000740468,-0.000176532,-0.003070474
-0.006653339,-0.000739999,-0.0001767,-0.003070592
-0.006653761,-0.000739522,-0.000176871,-0.003070673
-0.006654182,-0.000739039,-0.000177045,-0.003070719
-0.006654603,-0.000738549,-0.000177222,-0.003070728
-0.006655024,-0.000738051,-0.000177403,-0.003070701
-0.006655445,-0.000737547,-0.000177587,-0.003070639
-0.006655865,-0.000737035,-0.000177774,-0.003070542
-0.006656286,-0.000736516,-0.000177965,-0.00307041
-0.006656705,-0.00073599,-0.000178159,-0.003070245
-0.006657125,-0.000735456,-0.000178357,-0.003070045
-0.006657543,-0.000734914,-0.000178558,-0.003069813
-0.006657961,-0.000734365,-0.000178762,-0.003069547
-0.006658379,-0.000733808,-0.00017897,-0.00306925
-0.006658795,-0.000733244,-0.000179182,-0.00306892
-0.006659211,-0.000732671,-0.000179397,-0.003068559
-0.006659626,-0.000732091,-0.000179615,-0.003068167
-0.006660039,-0.000731504,-0.000179837,-0.003067744
-0.006660452,-0.000730908,-0.000180063,-0.003067291
-0.006660863,-0.000730305,-0.000180293,-0.003066808
-0.006661272,-0.000729695,-0.000180526,-0.003066295
-0.00666168,-0.000729077,-0.000180763,-0.003065753
-0.006662087,-0.000728451,-0.000181004,-0.003065182
-0.006662492,-0.000727818,-0.000181249,-0.003064582
-0.006662895,-0.000727178,-0.000181498,-0.003063954
-0.006663297,-0.000726531,-0.000181751,-0.003063298
-0.006663697,-0.000725877,-0.000182008,-0.003062614
-0.006664096,-0.000725215,-0.000182268,-0.003061902
-0.006664492,-0.000724546,-0.000182533,-0.003061163
-0.006664887,-0.00072387,-0.000182802,-0.003060396
-0.00666528,-0.000723186,-0.000183075,-0.003059602
-0.006665671,-0.000722495,-0.000183352,-0.003058782
-0.00666606,-0.000721797,-0.000183634,-0.003057935
-0.006666448,-0.000721091,-0.000183919,-0.003057062
-0.006666833,-0.000720378,-0.000184209,-0.003056162
-0.006667216,-0.000719657,-0.000184503,-0.003055237
-0.006667598,-0.00071893,-0.0001848,-0.003054287
-0.006667977,-0.000718195,-0.000185103,-0.003053311
-0.006668353,-0.000717453,-0.000185409,-0.003052311
-0.006668728,-0.000716703,-0.000185719,-0.003051286
-0.0066691,-0.000715946,-0.000186033,-0.003050237
-0.00666947,-0.000715182,-0.000186352,-0.003049164
-0.006669837,-0.00071441,-0.000186674,-0.003048068
-0.006670203,-0.00071363,-0.000187001,-0.003046949
-0.006670565,-0.000712843,-0.000187332,-0.003045807
-0.006670926,-0.000712049,-0.000187667,-0.003044642
-0.006671283,-0.000711247,-0.000188006,-0.003043456
-0.006671639,-0.000710437,-0.000188349,-0.003042248
-0.006671991,-0.00070962,-0.000188697,-0.003041019
-0.006672341,-0.000708794,-0.000189048,-0.003039768
-0.006672689,-0.000707962,-0.000189404,-0.003038497
-0.006673034,-0.000707121,-0.000189764,-0.003037205
-0.006673376,-0.000706273,-0.000190129,-0.003035894
-0.006673715,-0.000705417,-0.000190498,-0.003034562
-0.006674051,-0.000704554,-0.000190872,-0.003033212
-0.006674384,-0.000703683,-0.000191251,-0.003031842
-0.006674715,-0.000702805,-0.000191634,-0.003030455
-0.006675042,-0.000701919,-0.000192023,-0.003029049
-0.006675366,-0.000701026,-0.000192416,-0.003027627
-0.006675687,-0.000700126,-0.000192815,-0.003026187
-0.006676005,-0.000699218,-0.000193219,-0.003024731
-0.006676319,-0.000698303,-0.000193629,-0.00302326
-0.00667663,-0.000697381,-0.000194044,-0.003021772
-0.006676937,-0.000696452,-0.000194465,-0.003020269
-0.006677241,-0.000695516,-0.000194891,-0.00301875
-0.006677541,-0.000694574,-0.000195323,-0.003017216
-0.006677837,-0.000693625,-0.000195761,-0.003015667
-0.006678129,-0.00069267,-0.000196205,-0.003014102
-0.006678418,-0.000691708,-0.000196655,-0.003012522
-0.006678702,-0.00069074,-0.000197112,-0.003010927
-0.006678983,-0.000689767,-0.000197575,-0.003009317
-0.006679259,-0.000688787,-0.000198044,-0.003007691
-0.006679532,-0.000687801,-0.00019852,-0.003006051
-0.0066798,-0.00068681,-0.000199003,-0.003004396
-0.006680064,-0.000685812,-0.000199492,-0.003002727
-0.006680324,-0.000684809,-0.000199988,-0.003001043
-0.00668058,-0.0006838,-0.00020049,-0.002999346
-0.006680832,-0.000682785,-0.000200999,-0.002997635
-0.006681079,-0.000681764,-0.000201514,-0.00299591
-0.006681322,-0.000680738,-0.000202036,-0.002994173
-0.006681561,-0.000679706,-0.000202565,-0.002992422
-0.006681796,-0.000678669,-0.0002031,-0.002990659
-0.006682027,-0.000677627,-0.000203642,-0.002988884
-0.006682254,-0.000676581,-0.00020419,-0.002987096
-0.006682477,-0.00067553,-0.000204745,-0.002985296
-0.006682695,-0.000674474,-0.000205307,-0.002983485
-0.00668291,-0.000673414,-0.000205876,-0.002981663
-0.006683121,-0.00067235,-0.000206451,-0.002979829
-0.006683327,-0.000671283,-0.000207034,-0.002977985
-0.00668353,-0.000670211,-0.000207624,-0.002976131
-0.006683729,-0.000669136,-0.000208221,-0.002974266
-0.006683924,-0.000668057,-0.000208825,-0.002972391
-0.006684114,-0.000666975,-0.000209436,-0.002970507
-0.006684301,-0.000665889,-0.000210054,-0.002968614
-0.006684484,-0.000664801,-0.00021068,-0.002966712
-0.006684663,-0.000663709,-0.000211312,-0.002964802
-0.006684839,-0.000662614,-0.000211952,-0.002962883
-0.00668501,-0.000661518,-0.000212599,-0.002960957
-0.006685177,-0.000660419,-0.000213254,-0.002959023
-0.006685341,-0.000659318,-0.000213916,-0.002957081
-0.0066855,-0.000658216,-0.000214585,-0.002955132
-0.006685656,-0.000657113,-0.000215261,-0.002953176
-0.006685808,-0.000656008,-0.000215945,-0.002951213
-0.006685956,-0.000654903,-0.000216636,-0.002949242
-0.0066861,-0.000653796,-0.000217335,-0.002947264
-0.00668624,-0.000652689,-0.000218042,-0.002945279
-0.006686377,-0.000651581,-0.000218756,-0.002943287
-0.00668651,-0.000650472,-0.000219478,-0.002941288
-0.006686639,-0.000649363,-0.000220208,-0.002939283
-0.006686764,-0.000648254,-0.000220946,-0.002937271
-0.006686885,-0.000647145,-0.000221692,-0.002935253
-0.006687003,-0.000646036,-0.000222445,-0.002933228
-0.006687117,-0.000644927,-0.000223207,-0.002931199
-0.006687227,-0.000643818,-0.000223976,-0.002929163
-0.006687333,-0.000642709,-0.000224754,-0.002927122
-0.006687436,-0.000641602,-0.000225539,-0.002925077
-0.006687535,-0.000640494,-0.000226332,-0.002923026
-0.00668763,-0.000639388,-0.000227134,-0.002920971
-0.006687721,-0.000638283,-0.000227943,-0.002918911
-0.006687809,-0.000637179,-0.00022876,-0.002916846
-0.006687892,-0.000636076,-0.000229586,-0.002914777
-0.006687972,-0.000634974,-0.00023042,-0.002912704
-0.006688049,-0.000633873,-0.000231261,-0.002910626
-0.006688121,-0.000632774,-0.000232111,-0.002908544
-0.006688189,-0.000631676,-0.00023297,-0.002906457
-0.006688254,-0.00063058,-0.000233836,-0.002904366
-0.006688315,-0.000629486,-0.000234711,-0.002902271
-0.006688372,-0.000628393,-0.000235594,-0.002900171
-0.006688425,-0.000627302,-0.000236485,-0.002898066
-0.006688475,-0.000626213,-0.000237385,-0.002895957
-0.006688521,-0.000625125,-0.000238292,-0.002893844
-0.006688563,-0.00062404,-0.000239208,-0.002891727
-0.006688602,-0.000622958,-0.000240132,-0.002889606
-0.006688638,-0.000621877,-0.000241064,-0.002887481
-0.00668867,-0.0006208,-0.000242005,-0.002885353
-0.006688698,-0.000619726,-0.000242953,-0.00288322
-0.006688724,-0.000618656,-0.000243909,-0.002881085
-0.006688746,-0.000617589,-0.000244874,-0.002878945
-0.006688766,-0.000616526,-0.000245846,-0.002876803
-0.006688783,-0.000615466,-0.000246827,-0.002874658
-0.006688797,-0.000614411,-0.000247815,-0.002872509
-0.006688808,-0.00061336,-0.000248812,-0.002870358
-0.006688817,-0.000612313,-0.000249817,-0.002868204
-0.006688823,-0.000611271,-0.000250831,-0.002866048
-0.006688826,-0.000610233,-0.000251852,-0.002863889
-0.006688828,-0.0006092,-0.000252882,-0.002861729
-0.006688827,-0.000608171,-0.00025392,-0.002859567
-0.006688823,-0.000607147,-0.000254966,-0.002857403
-0.006688818,-0.000606129,-0.00025602,-0.002855238
-0.00668881,-0.000605115,-0.000257082,-0.002853071
-0.0066888,-0.000604108,-0.000258152,-0.002850903
-0.006688788,-0.000603105,-0.00025923,-0.002848734
-0.006688774,-0.000602109,-0.000260317,-0.002846563
-0.006688759,-0.000601119,-0.000261411,-0.002844391
-0.006688741,-0.000600135,-0.000262514,-0.002842217
-0.006688721,-0.000599157,-0.000263625,-0.002840042
-0.0066887,-0.000598185,-0.000264744,-0.002837866
-0.006688677,-0.000597218,-0.000265871,-0.002835689
-0.006688652,-0.000596257,-0.000267007,-0.002833511
-0.006688625,-0.000595302,-0.000268151,-0.002831332
-0.006688597,-0.000594353,-0.000269303,-0.002829152
-0.006688568,-0.000593409,-0.000270462,-0.002826972
-0.006688537,-0.000592471,-0.00027163,-0.002824791
-0.006688504,-0.000591539,-0.000272806,-0.002822611
-0.00668847,-0.000590612,-0.000273989,-0.00282043
-0.006688435,-0.000589692,-0.00027518,-0.002818248
-0.006688399,-0.000588778,-0.000276378,-0.002816066
-0.006688361,-0.00058787,-0.000277584,-0.002813884
-0.006688322,-0.000586968,-0.000278798,-0.0028117
-0.006688282,-0.000586072,-0.00028002,-0.002809516
-0.006688241,-0.000585182,-0.000281249,-0.00280733
-0.006688199,-0.000584298,-0.000282485,-0.002805143
-0.006688155,-0.000583421,-0.00028373,-0.002802955
-0.006688111,-0.00058255,-0.000284982,-0.002800765
-0.006688066,-0.000581685,-0.000286242,-0.002798573
-0.00668802,-0.000580826,-0.000287509,-0.002796379
-0.006687972,-0.000579974,-0.000288784,-0.002794184
-0.006687924,-0.000579128,-0.000290066,-0.002791986
-0.006687875,-0.000578287,-0.000291356,-0.002789786
-0.006687826,-0.000577453,-0.000292653,-0.002787584
-0.006687775,-0.000576624,-0.000293958,-0.00278538
-0.006687724,-0.000575802,-0.00029527,-0.002783174
-0.006687672,-0.000574984,-0.00029659,-0.002780965
-0.006687619,-0.000574172,-0.000297917,-0.002778754
-0.006687565,-0.000573365,-0.000299251,-0.002776541
-0.006687511,-0.000572564,-0.000300592,-0.002774325
-0.006687455,-0.000571767,-0.00030194,-0.002772106
-0.006687399,-0.000570975,-0.000303296,-0.002769885
-0.006687342,-0.000570187,-0.000304658,-0.002767661
-0.006687285,-0.000569405,-0.000306027,-0.002765434
-0.006687226,-0.000568626,-0.000307404,-0.002763205
-0.006687167,-0.000567852,-0.000308787,-0.002760973
-0.006687107,-0.000567083,-0.000310177,-0.002758739
-0.006687046,-0.000566318,-0.000311573,-0.002756502
-0.006686984,-0.000565556,-0.000312976,-0.002754263
-0.006686922,-0.000564799,-0.000314386,-0.002752022
-0.006686858,-0.000564046,-0.000315801,-0.002749779
-0.006686794,-0.000563297,-0.000317223,-0.002747533
-0.006686728,-0.000562551,-0.000318651,-0.002745285
-0.006686662,-0.00056181,-0.000320084,-0.002743035
-0.006686595,-0.000561072,-0.000321523,-0.002740782
-0.006686527,-0.000560338,-0.000322968,-0.002738527
-0.006686459,-0.000559607,-0.000324418,-0.00273627
-0.006686389,-0.000558881,-0.000325873,-0.00273401
-0.006686318,-0.000558157,-0.000327333,-0.002731748
-0.006686246,-0.000557436,-0.000328798,-0.002729484
-0.006686172,-0.000556719,-0.000330268,-0.002727219
-0.006686098,-0.000556004,-0.000331743,-0.002724951
-0.006686023,-0.000555292,-0.000333222,-0.002722681
-0.006685947,-0.000554583,-0.000334705,-0.00272041
-0.006685869,-0.000553877,-0.000336192,-0.002718138
-0.00668579,-0.000553174,-0.000337684,-0.002715864
-0.006685709,-0.000552474,-0.000339179,-0.002713589
-0.006685627,-0.000551777,-0.000340677,-0.002711314
-0.006685544,-0.000551083,-0.000342179,-0.002709039
-0.006685458,-0.000550391,-0.000343684,-0.002706764
-0.006685372,-0.000549703,-0.000345192,-0.002704489
-0.006685283,-0.000549017,-0.000346704,-0.002702215
-0.006685193,-0.000548333,-0.000348217,-0.002699942
-0.006685102,-0.000547652,-0.000349734,-0.00269767
-0.006685009,-0.000546973,-0.000351253,-0.002695399
-0.006684914,-0.000546297,-0.000352774,-0.00269313
-0.006684818,-0.000545622,-0.000354298,-0.002690862
-0.00668472,-0.00054495,-0.000355824,-0.002688596
-0.00668462,-0.00054428,-0.000357352,-0.002686332
-0.006684519,-0.000543611,-0.000358882,-0.002684071
-0.006684415,-0.000542944,-0.000360413,-0.002681812
-0.006684311,-0.000542279,-0.000361945,-0.002679557
-0.006684204,-0.000541616,-0.000363479,-0.002677305
-0.006684095,-0.000540954,-0.000365014,-0.002675057
-0.006683984,-0.000540294,-0.000366549,-0.002672814
-0.006683872,-0.000539635,-0.000368085,-0.002670574
-0.006683758,-0.000538978,-0.000369622,-0.00266834
-0.006683641,-0.000538323,-0.000371159,-0.00266611
-0.006683523,-0.00053767,-0.000372696,-0.002663885
-0.006683403,-0.000537018,-0.000374232,-0.002661665
-0.006683281,-0.000536369,-0.000375769,-0.00265945
-0.006683157,-0.000535721,-0.000377305,-0.002657241
-0.006683031,-0.000535075,-0.000378841,-0.002655038
-0.006682904,-0.000534431,-0.000380376,-0.002652841
-0.006682775,-0.000533789,-0.00038191,-0.002650649
-0.006682644,-0.000533148,-0.000383443,-0.002648463
-0.006682511,-0.000532509,-0.000384975,-0.002646282
-0.006682377,-0.000531872,-0.000386507,-0.002644107
-0.006682241,-0.000531236,-0.000388036,-0.002641937
-0.006682104,-0.000530602,-0.000389564,-0.002639772
-0.006681965,-0.000529971,-0.000391091,-0.002637612
-0.006681824,-0.000529341,-0.000392615,-0.002635458
-0.006681682,-0.000528713,-0.000394137,-0.002633308
-0.006681538,-0.000528086,-0.000395657,-0.002631164
-0.006681393,-0.000527462,-0.000397174,-0.002629025
-0.006681247,-0.000526839,-0.000398689,-0.002626892
-0.006681099,-0.000526218,-0.0004002,-0.002624764
-0.00668095,-0.000525599,-0.000401709,-0.002622642
-0.006680799,-0.000524981,-0.000403215,-0.002620525
-0.006680648,-0.000524365,-0.000404718,-0.002618414
-0.006680495,-0.00052375,-0.000406218,-0.002616308
-0.006680341,-0.000523135,-0.000407714,-0.002614209
-0.006680186,-0.000522522,-0.000409207,-0.002612115
-0.00668003,-0.000521909,-0.000410696,-0.002610028
-0.006679873,-0.000521297,-0.000412182,-0.002607949
-0.006679715,-0.000520685,-0.000413664,-0.002605876
-0.006679557,-0.000520075,-0.000415142,-0.002603811
-0.006679397,-0.000519465,-0.000416616,-0.002601753
-0.006679236,-0.000518855,-0.000418086,-0.002599704
-0.006679075,-0.000518246,-0.000419551,-0.002597664
-0.006678913,-0.000517637,-0.000421013,-0.002595632
-0.00667875,-0.000517029,-0.00042247,-0.00259361
-0.006678587,-0.000516421,-0.000423923,-0.002591596
-0.006678423,-0.000515813,-0.000425372,-0.002589593
-0.006678258,-0.000515206,-0.000426816,-0.002587599
-0.006678093,-0.000514598,-0.000428256,-0.002585615
-0.006677928,-0.000513991,-0.000429692,-0.002583641
-0.006677762,-0.000513384,-0.000431123,-0.002581679
-0.006677596,-0.000512777,-0.00043255,-0.002579727
-0.00667743,-0.00051217,-0.000433972,-0.002577786
-0.006677263,-0.000511563,-0.000435389,-0.002575857
-0.006677096,-0.000510956,-0.000436802,-0.00257394
-0.006676929,-0.000510349,-0.000438211,-0.002572036
-0.006676762,-0.000509742,-0.000439614,-0.002570144
-0.006676595,-0.000509135,-0.000441013,-0.002568265
-0.006676427,-0.000508528,-0.000442407,-0.002566399
-0.006676259,-0.000507921,-0.000443796,-0.002564546
-0.006676092,-0.000507314,-0.00044518,-0.002562707
-0.006675924,-0.000506708,-0.000446559,-0.00256088
-0.006675756,-0.000506101,-0.000447933,-0.002559068
-0.006675589,-0.000505495,-0.000449301,-0.002557269
-0.006675422,-0.000504888,-0.000450664,-0.002555483
-0.006675255,-0.000504282,-0.000452022,-0.002553711
-0.006675089,-0.000503676,-0.000453375,-0.002551953
-0.006674924,-0.000503069,-0.000454722,-0.002550209
-0.006674759,-0.000502463,-0.000456064,-0.002548479
-0.006674595,-0.000501857,-0.000457401,-0.002546763
-0.006674432,-0.000501252,-0.000458732,-0.002545061
-0.00667427,-0.000500646,-0.000460058,-0.002543374
-0.006674109,-0.000500041,-0.000461378,-0.002541701
-0.006673949,-0.000499437,-0.000462693,-0.002540043
-0.006673791,-0.000498833,-0.000464002,-0.0025384
-0.006673633,-0.00049823,-0.000465305,-0.002536772
-0.006673477,-0.000497629,-0.000466603,-0.00253516
-0.006673322,-0.000497028,-0.000467894,-0.002533562
-0.006673168,-0.000496428,-0.00046918,-0.00253198
-0.006673016,-0.00049583,-0.00047046,-0.002530413
-0.006672866,-0.000495234,-0.000471734,-0.002528861
-0.006672717,-0.000494639,-0.000473002,-0.002527325
-0.006672569,-0.000494046,-0.000474264,-0.002525805
-0.006672424,-0.000493455,-0.000475519,-0.0025243
-0.00667228,-0.000492866,-0.000476768,-0.00252281
-0.006672139,-0.00049228,-0.000478011,-0.002521337
-0.006671999,-0.000491696,-0.000479247,-0.002519878
-0.006671862,-0.000491115,-0.000480477,-0.002518435
-0.006671727,-0.000490537,-0.0004817,-0.002517008
-0.006671595,-0.000489962,-0.000482917,-0.002515596
-0.006671465,-0.000489391,-0.000484126,-0.002514199
-0.006671338,-0.000488822,-0.000485329,-0.002512817
-0.006671214,-0.000488258,-0.000486525,-0.002511451
-0.006671092,-0.000487696,-0.000487714,-0.0025101
-0.006670973,-0.000487138,-0.000488896,-0.002508764
-0.006670858,-0.000486584,-0.000490071,-0.002507444
-0.006670745,-0.000486034,-0.000491238,-0.002506139
-0.006670636,-0.000485487,-0.000492399,-0.00250485
-0.00667053,-0.000484945,-0.000493552,-0.002503576
-0.006670427,-0.000484406,-0.000494697,-0.002502317
-0.006670328,-0.000483871,-0.000495836,-0.002501075
-0.006670232,-0.000483341,-0.000496966,-0.002499847
-0.00667014,-0.000482815,-0.00049809,-0.002498635
-0.006670052,-0.000482294,-0.000499205,-0.002497438
-0.006669968,-0.000481777,-0.000500313,-0.002496257
-0.006669888,-0.000481265,-0.000501413,-0.002495091
-0.006669813,-0.000480758,-0.000502505,-0.002493939
-0.006669741,-0.000480256,-0.000503589,-0.002492803
-0.006669675,-0.000479759,-0.000504665,-0.002491682
-0.006669612,-0.000479267,-0.000505732,-0.002490575
-0.006669554,-0.00047878,-0.000506791,-0.002489484
-0.006669501,-0.000478299,-0.000507841,-0.002488407
-0.006669453,-0.000477824,-0.000508882,-0.002487345
-0.006669409,-0.000477354,-0.000509915,-0.002486298
-0.006669371,-0.000476891,-0.000510939,-0.002485266
-0.006669337,-0.000476433,-0.000511954,-0.002484248
-0.006669309,-0.000475983,-0.00051296,-0.002483246
-0.006669286,-0.000475539,-0.000513957,-0.002482258
-0.006669268,-0.000475102,-0.000514945,-0.002481286
-0.006669255,-0.000474673,-0.000515924,-0.002480329
-0.006669248,-0.000474251,-0.000516893,-0.002479387
-0.006669247,-0.000473836,-0.000517854,-0.002478461
-0.006669251,-0.000473429,-0.000518805,-0.002477551
-0.006669261,-0.000473029,-0.000519747,-0.002476656
-0.006669276,-0.000472636,-0.000520679,-0.002475778
-0.006669297,-0.000472251,-0.000521601,-0.002474916
-0.006669325,-0.000471873,-0.000522514,-0.002474071
-0.006669358,-0.000471504,-0.000523417,-0.002473242
-0.006669397,-0.000471142,-0.00052431,-0.00247243
-0.006669442,-0.000470788,-0.000525193,-0.002471634
-0.006669493,-0.000470442,-0.000526066,-0.002470855
-0.00666955,-0.000470104,-0.000526929,-0.002470092
-0.006669613,-0.000469774,-0.000527782,-0.002469346
-0.006669683,-0.000469453,-0.000528625,-0.002468617
-0.006669758,-0.00046914,-0.000529458,-0.002467903
-0.00666984,-0.000468836,-0.00053028,-0.002467207
-0.006669928,-0.00046854,-0.000531092,-0.002466527
-0.006670022,-0.000468253,-0.000531894,-0.002465864
-0.006670122,-0.000467974,-0.000532685,-0.002465217
-0.006670229,-0.000467704,-0.000533466,-0.002464586
-0.006670342,-0.000467443,-0.000534236,-0.002463971
-0.006670461,-0.000467191,-0.000534995,-0.002463372
-0.006670587,-0.000466948,-0.000535744,-0.002462788
-0.006670719,-0.000466713,-0.000536481,-0.002462221
-0.006670858,-0.000466487,-0.000537208,-0.002461669
-0.006671003,-0.00046627,-0.000537925,-0.002461132
-0.006671156,-0.000466062,-0.00053863,-0.002460611
-0.006671315,-0.000465863,-0.000539325,-0.002460106
-0.006671481,-0.000465672,-0.000540009,-0.002459616
-0.006671654,-0.000465491,-0.000540682,-0.002459141
-0.006671834,-0.00046532,-0.000541345,-0.002458682
-0.006672021,-0.000465157,-0.000541998,-0.002458239
-0.006672216,-0.000465003,-0.000542639,-0.002457811
-0.006672418,-0.000464859,-0.000543271,-0.002457398
-0.006672628,-0.000464724,-0.000543892,-0.002457
-0.006672845,-0.000464598,-0.000544502,-0.002456617
-0.00667307,-0.000464481,-0.000545101,-0.002456249
-0.006673303,-0.000464373,-0.00054569,-0.002455896
-0.006673544,-0.000464275,-0.000546268,-0.002455558
-0.006673792,-0.000464186,-0.000546835,-0.002455235
-0.006674048,-0.000464107,-0.000547391,-0.002454928
-0.006674311,-0.000464037,-0.000547937,-0.002454636
-0.006674582,-0.000463977,-0.000548471,-0.00245436
-0.006674861,-0.000463926,-0.000548995,-0.0024541
-0.006675148,-0.000463885,-0.000549508,-0.002453856
-0.006675442,-0.000463854,-0.000550011,-0.002453628
-0.006675743,-0.000463831,-0.000550502,-0.002453416
-0.006676052,-0.000463818,-0.000550984,-0.002453221
-0.006676369,-0.000463814,-0.000551454,-0.002453041
-0.006676694,-0.000463818,-0.000551914,-0.002452877
-0.006677026,-0.000463832,-0.000552363,-0.00245273
-0.006677366,-0.000463853,-0.000552802,-0.002452598
-0.006677714,-0.000463883,-0.000553229,-0.002452482
-0.00667807,-0.000463921,-0.000553646,-0.002452382
-0.006678434,-0.000463968,-0.000554052,-0.002452298
-0.006678805,-0.000464023,-0.000554447,-0.002452228
-0.006679185,-0.000464087,-0.000554831,-0.002452174
-0.006679573,-0.000464159,-0.000555204,-0.002452135
-0.006679968,-0.000464239,-0.000555567,-0.002452111
-0.006680372,-0.000464327,-0.000555918,-0.002452102
-0.006680784,-0.000464423,-0.000556258,-0.002452108
-0.006681203,-0.000464528,-0.000556588,-0.002452128
-0.006681631,-0.000464639,-0.000556907,-0.002452163
-0.006682066,-0.000464759,-0.000557215,-0.002452214
-0.00668251,-0.000464886,-0.000557513,-0.002452279
-0.006682962,-0.000465021,-0.0005578,-0.002452359
-0.006683423,-0.000465164,-0.000558076,-0.002452455
-0.006683892,-0.000465315,-0.000558342,-0.002452566
-0.006684369,-0.000465473,-0.000558597,-0.002452691
-0.006684854,-0.000465638,-0.000558842,-0.002452832
-0.006685348,-0.00046581,-0.000559075,-0.002452987
-0.00668585,-0.00046599,-0.000559298,-0.002453157
-0.006686361,-0.000466177,-0.00055951,-0.002453341
-0.00668688,-0.000466372,-0.000559712,-0.00245354
-0.006687408,-0.000466573,-0.000559903,-0.002453752
-0.006687944,-0.000466781,-0.000560082,-0.002453979
-0.006688488,-0.000466996,-0.000560252,-0.002454219
-0.00668904,-0.000467217,-0.00056041,-0.002454472
-0.006689601,-0.000467445,-0.000560558,-0.002454739
-0.006690171,-0.000467679,-0.000560695,-0.002455018
-0.006690749,-0.000467919,-0.000560822,-0.002455311
-0.006691335,-0.000468165,-0.000560938,-0.002455616
-0.006691929,-0.000468418,-0.000561043,-0.002455934
-0.006692532,-0.000468676,-0.000561138,-0.002456263
-0.006693143,-0.00046894,-0.000561222,-0.002456605
-0.006693762,-0.000469209,-0.000561296,-0.002456958
-0.00669439,-0.000469485,-0.000561358,-0.002457323
-0.006695026,-0.000469765,-0.000561411,-0.002457699
-0.006695671,-0.000470052,-0.000561452,-0.002458086
-0.006696323,-0.000470343,-0.000561483,-0.002458483
-0.006696985,-0.00047064,-0.000561504,-0.002458892
-0.006697654,-0.000470942,-0.000561514,-0.00245931
-0.006698332,-0.00047125,-0.000561513,-0.002459739
-0.006699018,-0.000471562,-0.000561501,-0.002460177
-0.006699712,-0.00047188,-0.00056148,-0.002460625
-0.006700414,-0.000472203,-0.000561447,-0.002461082
-0.006701124,-0.000472531,-0.000561405,-0.002461548
-0.006701842,-0.000472865,-0.000561351,-0.002462023
-0.006702568,-0.000473203,-0.000561288,-0.002462507
-0.006703302,-0.000473546,-0.000561214,-0.002463
-0.006704043,-0.000473895,-0.00056113,-0.002463502
-0.006704792,-0.000474249,-0.000561036,-0.002464012
-0.006705549,-0.000474607,-0.000560931,-0.00246453
-0.006706313,-0.000474971,-0.000560816,-0.002465056
-0.006707085,-0.00047534,-0.000560691,-0.00246559
-0.006707864,-0.000475714,-0.000560555,-0.002466132
-0.00670865,-0.000476094,-0.00056041,-0.002466681
-0.006709444,-0.000476479,-0.000560253,-0.002467237
-0.006710245,-0.000476869,-0.000560087,-0.0024678
-0.006711053,-0.000477265,-0.000559911,-0.002468368
-0.006711868,-0.000477665,-0.000559724,-0.002468943
-0.00671269,-0.000478071,-0.000559527,-0.002469524
-0.006713519,-0.000478482,-0.00055932,-0.002470109
-0.006714355,-0.000478898,-0.000559104,-0.002470699
-0.006715198,-0.000479318,-0.000558877,-0.002471294
-0.006716048,-0.000479743,-0.00055864,-0.002471893
-0.006716905,-0.000480173,-0.000558394,-0.002472495
-0.006717769,-0.000480608,-0.000558138,-0.002473101
-0.006718639,-0.000481047,-0.000557872,-0.002473709
-0.006719517,-0.000481491,-0.000557597,-0.002474321
-0.006720401,-0.000481939,-0.000557311,-0.002474935
-0.006721292,-0.000482391,-0.000557016,-0.002475552
-0.006722189,-0.000482848,-0.000556711,-0.002476171
-0.006723094,-0.000483309,-0.000556396,-0.002476792
-0.006724005,-0.000483774,-0.000556071,-0.002477415
-0.006724924,-0.000484242,-0.000555737,-0.002478039
-0.006725849,-0.000484715,-0.000555392,-0.002478664
-0.006726781,-0.000485191,-0.000555037,-0.00247929
-0.00672772,-0.000485671,-0.000554673,-0.002479916
-0.006728666,-0.000486155,-0.000554299,-0.002480543
-0.006729619,-0.000486642,-0.000553915,-0.002481169
-0.006730578,-0.000487133,-0.000553521,-0.002481794
-0.006731545,-0.000487628,-0.000553118,-0.002482418
-0.006732518,-0.000488127,-0.000552705,-0.002483041
-0.006733498,-0.000488629,-0.000552282,-0.002483661
-0.006734485,-0.000489135,-0.000551849,-0.002484279
-0.006735479,-0.000489645,-0.000551407,-0.002484893
-0.006736479,-0.000490158,-0.000550954,-0.002485503
-0.006737486,-0.000490675,-0.000550492,-0.00248611
-0.0067385,-0.000491196,-0.000550019,-0.002486711
-0.00673952,-0.000491721,-0.000549537,-0.002487308
-0.006740546,-0.000492249,-0.000549044,-0.002487899
-0.006741578,-0.000492782,-0.000548541,-0.002488484
-0.006742617,-0.000493319,-0.000548028,-0.002489064
-0.006743662,-0.00049386,-0.000547505,-0.002489638
-0.006744713,-0.000494406,-0.000546972,-0.002490206
-0.006745769,-0.000494956,-0.000546428,-0.002490768
-0.006746831,-0.00049551,-0.000545875,-0.002491323
-0.006747899,-0.000496068,-0.000545312,-0.002491872
-0.006748973,-0.00049663,-0.000544739,-0.002492414
-0.006750052,-0.000497196,-0.000544155,-0.002492949
-0.006751137,-0.000497766,-0.000543563,-0.002493476
-0.006752227,-0.00049834,-0.00054296,-0.002493996
-0.006753322,-0.000498918,-0.000542347,-0.002494508
-0.006754422,-0.0004995,-0.000541725,-0.002495012
-0.006755527,-0.000500087,-0.000541094,-0.002495507
-0.006756638,-0.000500677,-0.000540453,-0.002495994
-0.006757753,-0.000501272,-0.000539802,-0.002496471
-0.006758874,-0.000501871,-0.000539142,-0.002496939
-0.006759999,-0.000502475,-0.000538472,-0.002497397
-0.006761129,-0.000503083,-0.000537794,-0.002497846
-0.006762264,-0.000503696,-0.000537106,-0.002498283
-0.006763404,-0.000504315,-0.00053641,-0.002498711
-0.006764548,-0.000504938,-0.000535704,-0.002499128
-0.006765696,-0.000505566,-0.00053499,-0.002499533
-0.006766849,-0.0005062,-0.000534268,-0.002499928
-0.006768007,-0.00050684,-0.000533536,-0.002500311
-0.006769169,-0.000507485,-0.000532797,-0.002500683
-0.006770335,-0.000508136,-0.000532049,-0.002501044
-0.006771506,-0.000508794,-0.000531293,-0.002501394
-0.006772681,-0.000509459,-0.000530528,-0.002501732
-0.00677386,-0.00051013,-0.000529756,-0.002502058
-0.006775044,-0.000510808,-0.000528976,-0.002502373
-0.006776232,-0.000511493,-0.000528188,-0.002502677
-0.006777425,-0.000512186,-0.000527392,-0.002502969
-0.006778621,-0.000512886,-0.000526589,-0.002503251
-0.006779822,-0.000513594,-0.000525779,-0.00250352
-0.006781028,-0.00051431,-0.000524961,-0.002503778
-0.006782237,-0.000515033,-0.000524137,-0.002504024
-0.006783451,-0.000515764,-0.000523305,-0.002504259
-0.006784669,-0.000516503,-0.000522468,-0.002504481
-0.006785892,-0.000517249,-0.000521623,-0.002504692
-0.006787119,-0.000518004,-0.000520773,-0.00250489
-0.00678835,-0.000518767,-0.000519916,-0.002505075
-0.006789585,-0.000519538,-0.000519053,-0.002505248
-0.006790825,-0.000520318,-0.000518184,-0.002505409
-0.006792069,-0.000521105,-0.000517309,-0.002505556
-0.006793318,-0.000521902,-0.000516428,-0.002505689
-0.006794572,-0.000522706,-0.000515542,-0.002505809
-0.006795829,-0.00052352,-0.000514649,-0.002505915
-0.006797092,-0.000524342,-0.000513751,-0.002506006
-0.006798359,-0.000525172,-0.000512847,-0.002506082
-0.00679963,-0.000526012,-0.000511938,-0.002506144
-0.006800906,-0.000526861,-0.000511023,-0.00250619
-0.006802187,-0.000527719,-0.000510103,-0.002506221
-0.006803471,-0.000528586,-0.000509178,-0.002506236
-0.00680476,-0.000529462,-0.000508247,-0.002506234
-0.006806054,-0.000530348,-0.000507312,-0.002506215
-0.006807352,-0.000531244,-0.000506371,-0.002506179
-0.006808654,-0.00053215,-0.000505426,-0.002506124
-0.00680996,-0.000533065,-0.000504476,-0.002506051
-0.006811271,-0.00053399,-0.000503522,-0.002505958
-0.006812586,-0.000534924,-0.000502563,-0.002505847
-0.006813905,-0.000535869,-0.000501599,-0.002505715
-0.006815228,-0.000536823,-0.000500631,-0.002505563
-0.006816555,-0.000537786,-0.000499659,-0.00250539
-0.006817887,-0.00053876,-0.000498683,-0.002505197
-0.006819222,-0.000539743,-0.000497702,-0.002504982
-0.006820562,-0.000540737,-0.000496718,-0.002504745
-0.006821905,-0.000541741,-0.00049573,-0.002504486
-0.006823253,-0.000542755,-0.000494738,-0.002504204
-0.006824605,-0.000543779,-0.000493742,-0.002503899
-0.006825961,-0.000544813,-0.000492743,-0.002503571
-0.006827321,-0.000545856,-0.000491741,-0.002503219
-0.006828685,-0.000546909,-0.000490735,-0.002502844
-0.006830054,-0.000547972,-0.000489727,-0.002502444
-0.006831427,-0.000549044,-0.000488715,-0.002502019
-0.006832804,-0.000550126,-0.0004877,-0.00250157
-0.006834185,-0.000551217,-0.000486682,-0.002501096
-0.006835571,-0.000552317,-0.000485661,-0.002500596
-0.00683696,-0.000553427,-0.000484637,-0.002500071
-0.006838354,-0.000554547,-0.000483611,-0.002499521
-0.006839753,-0.000555676,-0.000482582,-0.002498945
-0.006841155,-0.000556814,-0.000481551,-0.002498343
-0.006842561,-0.000557963,-0.000480517,-0.002497715
-0.006843972,-0.000559121,-0.000479481,-0.00249706
-0.006845387,-0.000560288,-0.000478442,-0.00249638
-0.006846806,-0.000561466,-0.000477402,-0.002495673
-0.006848229,-0.000562652,-0.000476359,-0.00249494
-0.006849656,-0.000563849,-0.000475315,-0.00249418
-0.006851087,-0.000565055,-0.000474269,-0.002493394
-0.006852522,-0.000566271,-0.000473221,-0.00249258
-0.006853961,-0.000567497,-0.000472172,-0.002491741
-0.006855404,-0.000568732,-0.000471122,-0.002490874
-0.006856851,-0.000569977,-0.00047007,-0.00248998
-0.006858302,-0.000571232,-0.000469017,-0.002489058
-0.006859756,-0.000572496,-0.000467963,-0.00248811
-0.006861214,-0.00057377,-0.000466908,-0.002487133
-0.006862676,-0.000575053,-0.000465852,-0.002486129
-0.006864141,-0.000576345,-0.000464796,-0.002485096
-0.00686561,-0.000577646,-0.000463738,-0.002484034
-0.006867082,-0.000578957,-0.00046268,-0.002482943
-0.006868558,-0.000580277,-0.000461621,-0.002481822
-0.006870038,-0.000581605,-0.000460562,-0.002480671
-0.006871521,-0.000582943,-0.000459502,-0.002479489
-0.006873008,-0.000584289,-0.000458441,-0.002478276
-0.006874499,-0.000585644,-0.000457381,-0.002477032
-0.006875994,-0.000587008,-0.000456319,-0.002475755
-0.006877492,-0.000588381,-0.000455258,-0.002474447
-0.006878995,-0.000589762,-0.000454196,-0.002473105
-0.006880502,-0.000591153,-0.000453134,-0.002471731
-0.006882013,-0.000592551,-0.000452072,-0.002470324
-0.006883529,-0.000593959,-0.00045101,-0.002468883
-0.006885048,-0.000595375,-0.000449947,-0.002467409
-0.006886572,-0.000596799,-0.000448885,-0.0024659
-0.006888099,-0.000598232,-0.000447822,-0.002464357
-0.006889631,-0.000599674,-0.00044676,-0.002462779
-0.006891167,-0.000601124,-0.000445697,-0.002461167
-0.006892707,-0.000602582,-0.000444635,-0.002459519
-0.006894251,-0.00060405,-0.000443572,-0.002457836
-0.006895799,-0.000605525,-0.00044251,-0.002456117
-0.006897352,-0.000607009,-0.000441448,-0.002454363
-0.006898908,-0.000608503,-0.000440386,-0.002452572
-0.006900469,-0.000610005,-0.000439325,-0.002450744
-0.006902034,-0.000611515,-0.000438264,-0.002448879
-0.006903603,-0.000613035,-0.000437203,-0.002446977
-0.006905177,-0.000614563,-0.000436143,-0.002445037
-0.006906755,-0.0006161,-0.000435083,-0.002443059
-0.006908337,-0.000617645,-0.000434024,-0.002441043
-0.006909923,-0.000619198,-0.000432965,-0.002438988
-0.006911513,-0.000620758,-0.000431907,-0.002436894
-0.006913107,-0.000622326,-0.00043085,-0.002434761
-0.006914705,-0.000623901,-0.000429794,-0.00243259
-0.006916307,-0.000625484,-0.000428739,-0.002430379
-0.006917912,-0.000627073,-0.000427685,-0.00242813
-0.006919521,-0.000628669,-0.000426632,-0.002425841
-0.006921134,-0.000630272,-0.00042558,-0.002423514
-0.00692275,-0.000631882,-0.000424529,-0.002421148
-0.006924369,-0.000633498,-0.000423479,-0.002418743
-0.006925992,-0.000635122,-0.00042243,-0.0024163
-0.006927619,-0.000636752,-0.000421383,-0.002413817
-0.006929249,-0.000638389,-0.000420336,-0.002411296
-0.006930882,-0.000640033,-0.000419291,-0.002408736
-0.006932519,-0.000641684,-0.000418247,-0.002406137
-0.006934159,-0.000643342,-0.000417204,-0.002403499
-0.006935803,-0.000645006,-0.000416162,-0.002400822
-0.006937449,-0.000646677,-0.000415121,-0.002398106
-0.006939099,-0.000648354,-0.000414081,-0.002395351
-0.006940752,-0.000650038,-0.000413042,-0.002392557
-0.006942409,-0.000651728,-0.000412004,-0.002389724
-0.006944068,-0.000653425,-0.000410967,-0.002386852
-0.006945731,-0.000655128,-0.000409932,-0.002383941
-0.006947396,-0.000656837,-0.000408897,-0.002380991
-0.006949065,-0.000658553,-0.000407863,-0.002378002
-0.006950737,-0.000660276,-0.00040683,-0.002374975
-0.006952412,-0.000662005,-0.000405798,-0.002371909
-0.006954089,-0.00066374,-0.000404767,-0.002368805
-0.00695577,-0.000665482,-0.000403737,-0.002365663
-0.006957453,-0.000667229,-0.000402708,-0.002362484
-0.006959139,-0.000668983,-0.00040168,-0.002359266
-0.006960828,-0.000670743,-0.000400652,-0.002356012
-0.006962519,-0.000672508,-0.000399624,-0.00235272
-0.006964212,-0.000674279,-0.000398598,-0.002349391
-0.006965908,-0.000676056,-0.000397571,-0.002346026
-0.006967605,-0.000677838,-0.000396546,-0.002342623
-0.006969305,-0.000679624,-0.00039552,-0.002339183
-0.006971007,-0.000681416,-0.000394496,-0.002335708
-0.006972711,-0.000683213,-0.000393471,-0.002332195
-0.006974416,-0.000685014,-0.000392448,-0.002328647
-0.006976123,-0.00068682,-0.000391425,-0.002325063
-0.006977832,-0.000688631,-0.000390402,-0.002321443
-0.006979542,-0.000690446,-0.00038938,-0.002317788
-0.006981253,-0.000692266,-0.000388359,-0.002314098
-0.006982966,-0.00069409,-0.000387339,-0.002310373
-0.00698468,-0.000695919,-0.00038632,-0.002306613
-0.006986395,-0.000697752,-0.000385302,-0.002302819
-0.006988112,-0.000699589,-0.000384285,-0.002298991
-0.00698983,-0.000701431,-0.000383268,-0.00229513
-0.006991549,-0.000703277,-0.000382253,-0.002291236
-0.006993269,-0.000705128,-0.000381238,-0.002287309
-0.006994991,-0.000706982,-0.000380224,-0.002283349
-0.006996713,-0.00070884,-0.000379212,-0.002279357
-0.006998436,-0.000710702,-0.0003782,-0.002275333
-0.007000161,-0.000712568,-0.000377189,-0.002271276
-0.007001886,-0.000714437,-0.000376179,-0.002267188
-0.007003612,-0.000716311,-0.00037517,-0.002263068
-0.007005339,-0.000718188,-0.000374162,-0.002258917
-0.007007067,-0.000720068,-0.000373155,-0.002254734
-0.007008796,-0.000721952,-0.00037215,-0.00225052
-0.007010525,-0.00072384,-0.000371147,-0.002246274
-0.007012255,-0.000725732,-0.000370144,-0.002241998
-0.007013985,-0.000727629,-0.000369144,-0.002237691
-0.007015716,-0.000729529,-0.000368145,-0.002233353
-0.007017448,-0.000731433,-0.000367147,-0.002228985
-0.007019181,-0.000733342,-0.000366151,-0.002224586
-0.007020914,-0.000735255,-0.000365157,-0.002220157
-0.007022648,-0.000737171,-0.000364165,-0.002215698
-0.007024383,-0.000739092,-0.000363174,-0.002211209
-0.007026118,-0.000741016,-0.000362185,-0.002206691
-0.007027854,-0.000742944,-0.000361197,-0.002202143
-0.007029591,-0.000744875,-0.000360211,-0.002197566
-0.007031327,-0.000746809,-0.000359227,-0.002192961
-0.007033064,-0.000748747,-0.000358244,-0.002188327
-0.007034801,-0.000750688,-0.000357263,-0.002183664
-0.007036538,-0.000752632,-0.000356283,-0.002178974
-0.007038275,-0.000754579,-0.000355306,-0.002174255
-0.007040011,-0.000756529,-0.000354331,-0.002169509
-0.007041747,-0.000758482,-0.000353357,-0.002164735
-0.007043482,-0.000760438,-0.000352386,-0.002159934
-0.007045217,-0.000762397,-0.000351417,-0.002155105
-0.00704695,-0.000764359,-0.00035045,-0.002150249
-0.007048683,-0.000766324,-0.000349485,-0.002145365
-0.007050415,-0.000768292,-0.000348523,-0.002140455
-0.007052145,-0.000770263,-0.000347563,-0.002135517
-0.007053874,-0.000772236,-0.000346606,-0.002130552
-0.007055601,-0.000774212,-0.000345651,-0.002125561
-0.007057327,-0.00077619,-0.000344699,-0.002120542
-0.00705905,-0.000778171,-0.000343749,-0.002115498
-0.007060772,-0.000780154,-0.000342801,-0.002110426
-0.007062492,-0.000782139,-0.000341857,-0.002105329
-0.00706421,-0.000784126,-0.000340914,-0.002100206
-0.007065926,-0.000786115,-0.000339975,-0.002095057
-0.007067639,-0.000788107,-0.000339038,-0.002089883
-0.00706935,-0.000790101,-0.000338103,-0.002084683
-0.007071058,-0.000792097,-0.000337172,-0.002079459
-0.007072763,-0.000794094,-0.000336242,-0.00207421
-0.007074466,-0.000796094,-0.000335316,-0.002068936
-0.007076165,-0.000798096,-0.000334392,-0.002063638
-0.007077861,-0.000800099,-0.000333471,-0.002058317
-0.007079554,-0.000802104,-0.000332552,-0.002052972
-0.007081244,-0.000804111,-0.000331636,-0.002047605
-0.00708293,-0.000806119,-0.000330722,-0.002042215
-0.007084613,-0.000808129,-0.000329811,-0.002036802
-0.007086292,-0.00081014,-0.000328903,-0.002031367
-0.007087967,-0.000812152,-0.000327997,-0.00202591
-0.007089639,-0.000814167,-0.000327093,-0.002020431
-0.007091307,-0.000816182,-0.000326192,-0.002014929
-0.007092971,-0.000818199,-0.000325294,-0.002009406
-0.007094631,-0.000820218,-0.000324398,-0.002003861
-0.007096287,-0.000822237,-0.000323504,-0.001998295
-0.007097938,-0.000824258,-0.000322612,-0.001992707
-0.007099586,-0.000826281,-0.000321723,-0.001987099
-0.007101228,-0.000828304,-0.000320835,-0.001981469
-0.007102866,-0.000830329,-0.00031995,-0.001975819
-0.0071045,-0.000832355,-0.000319067,-0.001970148
-0.007106129,-0.000834381,-0.000318186,-0.001964457
-0.007107752,-0.000836409,-0.000317306,-0.001958746
-0.007109371,-0.000838438,-0.000316428,-0.001953015
-0.007110985,-0.000840467,-0.000315552,-0.001947264
-0.007112593,-0.000842498,-0.000314678,-0.001941493
-0.007114197,-0.000844529,-0.000313805,-0.001935703
-0.007115795,-0.000846562,-0.000312934,-0.001929895
-0.007117388,-0.000848595,-0.000312065,-0.001924067
-0.007118976,-0.000850629,-0.000311198,-0.001918221
-0.007120559,-0.000852663,-0.000310332,-0.001912356
-0.007122136,-0.000854699,-0.000309469,-0.001906473
-0.007123708,-0.000856734,-0.000308607,-0.001900572
-0.007125274,-0.00085877,-0.000307747,-0.001894653
-0.007126835,-0.000860807,-0.000306889,-0.001888716
-0.00712839,-0.000862843,-0.000306033,-0.001882761
-0.00712994,-0.00086488,-0.000305179,-0.001876789
-0.007131484,-0.000866917,-0.000304326,-0.001870798
-0.007133022,-0.000868954,-0.000303476,-0.001864791
-0.007134554,-0.00087099,-0.000302627,-0.001858767
-0.00713608,-0.000873027,-0.000301781,-0.001852725
-0.007137601,-0.000875063,-0.000300936,-0.001846667
-0.007139115,-0.000877099,-0.000300093,-0.001840593
-0.007140623,-0.000879135,-0.000299252,-0.001834502
-0.007142125,-0.00088117,-0.000298413,-0.001828396
-0.007143621,-0.000883204,-0.000297575,-0.001822274
-0.007145111,-0.000885238,-0.00029674,-0.001816136
-0.007146594,-0.000887271,-0.000295906,-0.001809983
-0.007148072,-0.000889303,-0.000295075,-0.001803814
-0.007149543,-0.000891334,-0.000294245,-0.001797629
-0.007151008,-0.000893364,-0.000293417,-0.001791429
-0.007152467,-0.000895394,-0.000292591,-0.001785214
-0.007153919,-0.000897423,-0.000291768,-0.001778983
-0.007155365,-0.00089945,-0.000290947,-0.001772737
-0.007156805,-0.000901477,-0.000290128,-0.001766475
-0.007158238,-0.000903502,-0.000289311,-0.001760197
-0.007159664,-0.000905526,-0.000288497,-0.001753904
-0.007161084,-0.000907548,-0.000287685,-0.001747595
-0.007162497,-0.000909569,-0.000286876,-0.001741271
-0.007163903,-0.000911589,-0.000286068,-0.001734932
-0.007165303,-0.000913607,-0.000285264,-0.001728579
-0.007166695,-0.000915624,-0.000284462,-0.001722211
-0.00716808,-0.000917639,-0.000283662,-0.001715829
-0.007169458,-0.000919652,-0.000282865,-0.001709433
-0.007170829,-0.000921664,-0.000282071,-0.001703023
-0.007172192,-0.000923675,-0.000281279,-0.0016966
-0.007173548,-0.000925685,-0.000280491,-0.001690164
-0.007174896,-0.000927693,-0.000279705,-0.001683714
-0.007176237,-0.000929699,-0.000278922,-0.001677251
-0.00717757,-0.000931705,-0.000278141,-0.001670776
-0.007178896,-0.000933708,-0.000277364,-0.001664288
-0.007180213,-0.000935711,-0.00027659,-0.001657788
-0.007181523,-0.000937711,-0.000275819,-0.001651275
-0.007182824,-0.00093971,-0.000275052,-0.001644751
-0.007184118,-0.000941707,-0.000274287,-0.001638215
-0.007185404,-0.000943702,-0.000273527,-0.001631668
-0.007186681,-0.000945695,-0.000272769,-0.00162511
-0.00718795,-0.000947685,-0.000272016,-0.001618541
-0.007189211,-0.000949673,-0.000271266,-0.001611962
-0.007190463,-0.000951658,-0.000270519,-0.001605372
-0.007191708,-0.00095364,-0.000269777,-0.001598774
-0.007192944,-0.00095562,-0.000269039,-0.001592165
-0.007194171,-0.000957596,-0.000268305,-0.001585548
-0.007195391,-0.00095957,-0.000267576,-0.001578922
-0.007196602,-0.000961541,-0.000266851,-0.001572289
-0.007197804,-0.00096351,-0.00026613,-0.001565648
-0.007198998,-0.000965476,-0.000265413,-0.001559
-0.007200183,-0.000967439,-0.000264702,-0.001552345
-0.00720136,-0.000969399,-0.000263995,-0.001545685
-0.007202529,-0.000971358,-0.000263292,-0.00153902
-0.007203688,-0.000973313,-0.000262594,-0.001532349
-0.007204839,-0.000975266,-0.000261902,-0.001525674
-0.007205981,-0.000977216,-0.000261214,-0.001518995
-0.007207115,-0.000979164,-0.00026053,-0.001512313
-0.00720824,-0.000981109,-0.000259852,-0.001505627
-0.007209356,-0.000983051,-0.000259179,-0.001498937
-0.007210463,-0.000984991,-0.000258511,-0.001492245
-0.007211561,-0.000986927,-0.000257849,-0.001485551
-0.007212651,-0.00098886,-0.000257192,-0.001478854
-0.007213731,-0.00099079,-0.00025654,-0.001472156
-0.007214803,-0.000992717,-0.000255893,-0.001465456
-0.007215865,-0.00099464,-0.000255252,-0.001458756
-0.007216919,-0.000996559,-0.000254616,-0.001452054
-0.007217964,-0.000998475,-0.000253985,-0.001445353
-0.007219,-0.001000387,-0.00025336,-0.001438651
-0.007220028,-0.001002295,-0.00025274,-0.001431951
-0.007221046,-0.001004199,-0.000252125,-0.001425251
-0.007222056,-0.001006098,-0.000251515,-0.001418553
-0.007223057,-0.001007994,-0.00025091,-0.001411857
-0.007224049,-0.001009885,-0.00025031,-0.001405164
-0.007225033,-0.001011771,-0.000249715,-0.001398474
-0.007226007,-0.001013653,-0.000249125,-0.001391787
-0.007226973,-0.00101553,-0.00024854,-0.001385104
-0.007227931,-0.001017402,-0.00024796,-0.001378425
-0.007228879,-0.001019269,-0.000247385,-0.001371751
-0.00722982,-0.001021131,-0.000246815,-0.001365082
-0.007230751,-0.001022987,-0.000246251,-0.001358418
-0.007231674,-0.001024838,-0.000245692,-0.00135176
-0.007232589,-0.001026683,-0.000245138,-0.001345108
-0.007233494,-0.001028523,-0.00024459,-0.001338463
-0.007234392,-0.001030358,-0.000244047,-0.001331825
-0.00723528,-0.001032186,-0.00024351,-0.001325195
-0.00723616,-0.00103401,-0.000242978,-0.001318572
-0.007237032,-0.001035827,-0.000242451,-0.001311958
-0.007237895,-0.001037639,-0.000241931,-0.001305353
-0.007238749,-0.001039445,-0.000241416,-0.001298757
-0.007239595,-0.001041245,-0.000240906,-0.00129217
-0.007240433,-0.001043039,-0.000240403,-0.001285591
-0.007241261,-0.001044826,-0.000239905,-0.001279023
-0.007242082,-0.001046608,-0.000239413,-0.001272463
-0.007242893,-0.001048383,-0.000238927,-0.001265913
-0.007243696,-0.001050152,-0.000238447,-0.001259374
-0.007244491,-0.001051915,-0.000237974,-0.001252844
-0.007245277,-0.001053671,-0.000237506,-0.001246325
-0.007246055,-0.00105542,-0.000237045,-0.001239817
-0.007246824,-0.001057164,-0.00023659,-0.00123332
-0.007247585,-0.0010589,-0.000236142,-0.001226836
-0.007248337,-0.001060631,-0.000235701,-0.001220363
-0.007249082,-0.001062355,-0.000235265,-0.001213903
-0.007249818,-0.001064072,-0.000234837,-0.001207456
-0.007250546,-0.001065784,-0.000234415,-0.001201022
-0.007251266,-0.001067489,-0.000233999,-0.001194602
-0.007251978,-0.001069188,-0.00023359,-0.001188196
-0.007252682,-0.00107088,-0.000233188,-0.001181803
-0.007253378,-0.001072566,-0.000232793,-0.001175425
-0.007254066,-0.001074246,-0.000232404,-0.001169062
-0.007254746,-0.001075918,-0.000232022,-0.001162713
-0.007255418,-0.001077584,-0.000231646,-0.00115638
-0.007256081,-0.001079243,-0.000231277,-0.001150061
-0.007256737,-0.001080895,-0.000230915,-0.001143759
-0.007257385,-0.00108254,-0.00023056,-0.001137472
-0.007258025,-0.001084178,-0.000230212,-0.001131203
-0.007258657,-0.00108581,-0.00022987,-0.00112495
-0.007259281,-0.001087434,-0.000229535,-0.001118715
-0.007259897,-0.001089051,-0.000229206,-0.001112497
-0.007260506,-0.001090661,-0.000228884,-0.001106299
-0.007261106,-0.001092264,-0.000228569,-0.00110012
-0.007261698,-0.001093859,-0.00022826,-0.00109396
-0.007262283,-0.001095448,-0.000227957,-0.001087821
-0.007262859,-0.001097029,-0.000227661,-0.001081703
-0.007263428,-0.001098603,-0.000227371,-0.001075607
-0.007263989,-0.001100169,-0.000227087,-0.001069532
-0.007264542,-0.001101729,-0.00022681,-0.001063479
-0.007265087,-0.001103281,-0.000226538,-0.001057449
-0.007265625,-0.001104825,-0.000226273,-0.001051442
-0.007266155,-0.001106362,-0.000226014,-0.001045457
-0.007266678,-0.001107892,-0.000225761,-0.001039496
-0.007267193,-0.001109414,-0.000225514,-0.001033557
-0.0072677,-0.001110929,-0.000225274,-0.001027642
-0.0072682,-0.001112436,-0.000225039,-0.001021751
-0.007268693,-0.001113935,-0.00022481,-0.001015882
-0.007269178,-0.001115427,-0.000224588,-0.001010037
-0.007269656,-0.00111691,-0.000224371,-0.001004216
-0.007270127,-0.001118386,-0.00022416,-0.000998418
-0.00727059,-0.001119853,-0.000223955,-0.000992645
-0.007271047,-0.001121313,-0.000223755,-0.000986896
-0.007271496,-0.001122764,-0.000223561,-0.000981172
-0.007271937,-0.001124208,-0.000223373,-0.000975474
-0.007272372,-0.001125643,-0.00022319,-0.000969801
-0.007272799,-0.001127071,-0.000223013,-0.000964154
-0.007273219,-0.00112849,-0.000222841,-0.000958534
-0.007273632,-0.001129901,-0.000222675,-0.000952941
-0.007274037,-0.001131304,-0.000222514,-0.000947375
-0.007274436,-0.001132699,-0.000222358,-0.000941837
-0.007274827,-0.001134085,-0.000222207,-0.000936326
-0.007275212,-0.001135463,-0.000222061,-0.000930844
-0.00727559,-0.001136832,-0.000221921,-0.00092539
-0.007275961,-0.001138193,-0.000221785,-0.000919965
-0.007276325,-0.001139545,-0.000221654,-0.000914569
-0.007276683,-0.001140888,-0.000221528,-0.000909202
-0.007277035,-0.001142223,-0.000221408,-0.000903864
-0.00727738,-0.001143549,-0.000221291,-0.000898555
-0.007277718,-0.001144867,-0.00022118,-0.000893276
-0.007278051,-0.001146176,-0.000221073,-0.000888026
-0.007278377,-0.001147477,-0.000220971,-0.000882805
-0.007278696,-0.001148768,-0.000220873,-0.000877615
-0.00727901,-0.001150051,-0.000220779,-0.000872453
-0.007279317,-0.001151325,-0.00022069,-0.000867322
-0.007279619,-0.00115259,-0.000220604,-0.00086222
-0.007279914,-0.001153845,-0.000220523,-0.000857147
-0.007280204,-0.001155091,-0.000220446,-0.000852105
-0.007280488,-0.001156328,-0.000220373,-0.000847091
-0.007280765,-0.001157555,-0.000220303,-0.000842108
-0.007281038,-0.001158772,-0.000220238,-0.000837153
-0.007281304,-0.001159979,-0.000220175,-0.000832229
-0.007281565,-0.001161177,-0.000220117,-0.000827334
-0.007281821,-0.001162365,-0.000220062,-0.00082247
-0.007282072,-0.001163543,-0.00022001,-0.000817636
-0.007282317,-0.001164712,-0.000219961,-0.000812834
-0.007282557,-0.00116587,-0.000219916,-0.000808062
-0.007282792,-0.001167018,-0.000219874,-0.000803322
-0.007283023,-0.001168156,-0.000219835,-0.000798613
-0.007283248,-0.001169284,-0.000219799,-0.000793937
-0.007283469,-0.001170402,-0.000219767,-0.000789292
-0.007283685,-0.001171509,-0.000219737,-0.000784679
-0.007283897,-0.001172606,-0.00021971,-0.000780099
-0.007284104,-0.001173692,-0.000219686,-0.00077555
-0.007284307,-0.001174769,-0.000219666,-0.000771035
-0.007284506,-0.001175835,-0.000219648,-0.000766552
-0.0072847,-0.00117689,-0.000219633,-0.000762102
-0.00728489,-0.001177935,-0.000219621,-0.000757685
-0.007285076,-0.001178969,-0.000219612,-0.000753302
-0.007285258,-0.001179992,-0.000219606,-0.000748952
-0.007285436,-0.001181005,-0.000219602,-0.000744636
-0.007285611,-0.001182006,-0.000219601,-0.000740354
-0.007285781,-0.001182996,-0.000219603,-0.000736106
-0.007285948,-0.001183976,-0.000219607,-0.000731891
-0.007286111,-0.001184944,-0.000219614,-0.00072771
-0.007286271,-0.001185901,-0.000219624,-0.000723564
-0.007286428,-0.001186846,-0.000219636,-0.000719451
-0.007286581,-0.001187781,-0.00021965,-0.000715372
-0.007286732,-0.001188704,-0.000219667,-0.000711328
-0.007286879,-0.001189615,-0.000219687,-0.000707318
-0.007287024,-0.001190515,-0.000219709,-0.000703341
-0.007287166,-0.001191403,-0.000219734,-0.0006994
-0.007287305,-0.00119228,-0.000219761,-0.000695493
-0.007287441,-0.001193145,-0.000219791,-0.00069162
-0.007287574,-0.001193998,-0.000219822,-0.000687783
-0.007287705,-0.00119484,-0.000219856,-0.000683979
-0.007287833,-0.00119567,-0.000219891,-0.000680211
-0.007287958,-0.001196489,-0.000219929,-0.000676476
-0.007288081,-0.001197295,-0.000219968,-0.000672776
-0.007288201,-0.001198089,-0.000220009,-0.00066911
-0.007288319,-0.001198871,-0.000220051,-0.000665478
-0.007288434,-0.00119964,-0.000220095,-0.000661879
-0.007288547,-0.001200398,-0.00022014,-0.000658315
-0.007288657,-0.001201142,-0.000220187,-0.000654785
-0.007288765,-0.001201874,-0.000220235,-0.000651288
-0.007288871,-0.001202593,-0.000220284,-0.000647826
-0.007288974,-0.0012033,-0.000220334,-0.000644398
-0.007289076,-0.001203993,-0.000220385,-0.000641005
-0.007289175,-0.001204674,-0.000220438,-0.000637647
-0.007289272,-0.001205342,-0.000220492,-0.000634325
-0.007289367,-0.001205997,-0.000220546,-0.000631038
-0.00728946,-0.001206639,-0.000220602,-0.000627788
-0.007289551,-0.001207268,-0.000220659,-0.000624574
-0.00728964,-0.001207884,-0.000220716,-0.000621398
-0.007289728,-0.001208487,-0.000220775,-0.000618258
-0.007289813,-0.001209078,-0.000220834,-0.000615156
-0.007289897,-0.001209655,-0.000220895,-0.000612091
-0.007289979,-0.00121022,-0.000220956,-0.000609064
-0.007290059,-0.001210772,-0.000221018,-0.000606075
-0.007290137,-0.00121131,-0.000221081,-0.000603124
-0.007290214,-0.001211836,-0.000221145,-0.000600212
-0.007290289,-0.001212348,-0.000221209,-0.000597337
-0.007290363,-0.001212847,-0.000221274,-0.000594502
-0.007290434,-0.001213332,-0.00022134,-0.000591705
-0.007290504,-0.001213804,-0.000221407,-0.000588947
-0.007290573,-0.001214262,-0.000221474,-0.000586228
-0.00729064,-0.001214707,-0.000221541,-0.000583549
-0.007290705,-0.001215139,-0.000221609,-0.000580909
-0.007290769,-0.001215557,-0.000221678,-0.000578309
-0.007290832,-0.001215962,-0.000221746,-0.000575749
-0.007290893,-0.001216353,-0.000221815,-0.000573229
-0.007290952,-0.00121673,-0.000221884,-0.000570749
-0.007291011,-0.001217093,-0.000221953,-0.00056831
-0.007291068,-0.001217443,-0.000222022,-0.000565911
-0.007291124,-0.001217778,-0.00022209,-0.000563552
-0.007291179,-0.001218099,-0.000222159,-0.000561235
-0.007291232,-0.001218406,-0.000222228,-0.000558957
-0.007291285,-0.001218698,-0.000222297,-0.000556721
-0.007291337,-0.001218975,-0.000222366,-0.000554525
-0.007291389,-0.001219237,-0.000222435,-0.000552369
-0.007291439,-0.001219484,-0.000222503,-0.000550254
-0.007291489,-0.001219715,-0.000222572,-0.000548179
-0.007291537,-0.001219931,-0.000222641,-0.000546145
-0.007291585,-0.001220131,-0.00022271,-0.000544151
-0.007291632,-0.001220315,-0.000222778,-0.000542197
-0.007291679,-0.001220484,-0.000222847,-0.000540283
-0.007291725,-0.001220637,-0.000222915,-0.00053841
-0.00729177,-0.001220773,-0.000222984,-0.000536577
-0.007291814,-0.001220894,-0.000223052,-0.000534785
-0.007291857,-0.001220999,-0.000223121,-0.000533033
-0.0072919,-0.001221088,-0.000223189,-0.000531321
-0.007291942,-0.001221162,-0.000223258,-0.00052965
-0.007291983,-0.001221219,-0.000223326,-0.000528021
-0.007292023,-0.00122126,-0.000223395,-0.000526432
-0.007292063,-0.001221286,-0.000223464,-0.000524884
-0.007292102,-0.001221295,-0.000223533,-0.000523377
-0.00729214,-0.001221289,-0.000223602,-0.000521912
-0.007292178,-0.001221267,-0.000223672,-0.000520487
-0.007292215,-0.001221229,-0.000223742,-0.000519103
-0.007292251,-0.001221175,-0.000223812,-0.000517761
-0.007292287,-0.001221106,-0.000223882,-0.000516459
-0.007292322,-0.00122102,-0.000223952,-0.000515199
-0.007292357,-0.001220919,-0.000224022,-0.00051398
-0.007292392,-0.001220803,-0.000224092,-0.000512802
-0.007292426,-0.001220671,-0.000224163,-0.000511666
-0.00729246,-0.001220523,-0.000224233,-0.000510572
-0.007292493,-0.001220359,-0.000224302,-0.000509518
-0.007292525,-0.00122018,-0.000224372,-0.000508507
-0.007292558,-0.001219986,-0.000224441,-0.000507536
-0.007292589,-0.001219775,-0.00022451,-0.000506607
-0.007292621,-0.001219549,-0.000224579,-0.000505719
-0.007292651,-0.001219307,-0.000224647,-0.000504872
-0.007292682,-0.001219049,-0.000224715,-0.000504067
-0.007292711,-0.001218776,-0.000224782,-0.000503303
-0.007292741,-0.001218486,-0.000224849,-0.000502579
-0.007292769,-0.001218181,-0.000224916,-0.000501897
-0.007292798,-0.001217861,-0.000224982,-0.000501256
-0.007292826,-0.001217525,-0.000225048,-0.000500655
-0.007292853,-0.001217173,-0.000225113,-0.000500095
-0.007292881,-0.001216806,-0.000225178,-0.000499575
-0.007292908,-0.001216423,-0.000225242,-0.000499096
-0.007292934,-0.001216025,-0.000225306,-0.000498657
-0.00729296,-0.001215612,-0.00022537,-0.000498258
-0.007292986,-0.001215183,-0.000225433,-0.000497898
-0.007293011,-0.001214739,-0.000225496,-0.000497579
-0.007293037,-0.001214281,-0.000225558,-0.000497299
-0.007293061,-0.001213807,-0.000225619,-0.000497058
-0.007293086,-0.001213318,-0.000225681,-0.000496857
-0.007293109,-0.001212814,-0.000225742,-0.000496695
-0.007293133,-0.001212295,-0.000225803,-0.000496572
-0.007293156,-0.001211761,-0.000225865,-0.000496487
-0.007293178,-0.001211212,-0.000225926,-0.000496442
-0.0072932,-0.001210649,-0.000225987,-0.000496435
-0.00729322,-0.00121007,-0.000226049,-0.000496467
-0.00729324,-0.001209477,-0.000226111,-0.000496537
-0.007293259,-0.001208869,-0.000226173,-0.000496645
-0.007293277,-0.001208246,-0.000226236,-0.000496793
-0.007293293,-0.001207609,-0.000226299,-0.000496978
-0.007293309,-0.001206957,-0.000226363,-0.000497201
-0.007293322,-0.00120629,-0.000226427,-0.000497463
-0.007293334,-0.001205609,-0.000226492,-0.000497762
-0.007293345,-0.001204913,-0.000226557,-0.000498099
-0.007293353,-0.001204203,-0.000226623,-0.000498473
-0.00729336,-0.001203478,-0.00022669,-0.000498883
-0.007293365,-0.00120274,-0.000226758,-0.000499331
-0.007293368,-0.001201986,-0.000226827,-0.000499815
-0.007293369,-0.001201218,-0.000226897,-0.000500336
-0.007293367,-0.001200435,-0.000226968,-0.000500893
-0.007293364,-0.001199638,-0.000227041,-0.000501486
-0.007293358,-0.001198825,-0.000227114,-0.000502115
-0.007293349,-0.001197998,-0.000227189,-0.00050278
-0.007293338,-0.001197155,-0.000227265,-0.000503481
-0.007293324,-0.001196298,-0.000227343,-0.000504217
-0.007293307,-0.001195426,-0.000227422,-0.000504989
-0.007293287,-0.001194539,-0.000227503,-0.000505796
-0.007293264,-0.001193637,-0.000227585,-0.000506638
-0.007293237,-0.001192721,-0.000227669,-0.000507516
-0.007293207,-0.00119179,-0.000227755,-0.000508428
-0.007293173,-0.001190845,-0.000227841,-0.000509375
-0.007293135,-0.001189886,-0.00022793,-0.000510356
-0.007293094,-0.001188912,-0.000228019,-0.000511372
-0.007293048,-0.001187923,-0.000228111,-0.000512421
-0.007292999,-0.001186921,-0.000228203,-0.000513505
-0.007292945,-0.001185904,-0.000228298,-0.000514621
-0.007292887,-0.001184873,-0.000228393,-0.000515772
-0.007292825,-0.001183828,-0.00022849,-0.000516955
-0.007292758,-0.001182768,-0.000228589,-0.000518171
-0.007292688,-0.001181696,-0.000228689,-0.000519419
-0.007292612,-0.001180609,-0.00022879,-0.0005207
-0.007292532,-0.001179508,-0.000228893,-0.000522013
-0.007292448,-0.001178394,-0.000228997,-0.000523357
-0.007292358,-0.001177267,-0.000229102,-0.000524734
-0.007292264,-0.001176126,-0.000229209,-0.000526142
-0.007292165,-0.001174972,-0.000229317,-0.000527582
-0.007292062,-0.001173805,-0.000229427,-0.000529053
-0.007291953,-0.001172626,-0.000229537,-0.000530556
-0.00729184,-0.001171433,-0.000229649,-0.000532091
-0.007291721,-0.001170228,-0.000229762,-0.000533657
-0.007291598,-0.001169011,-0.000229877,-0.000535254
-0.00729147,-0.001167782,-0.000229993,-0.000536884
-0.007291337,-0.001166541,-0.00023011,-0.000538546
-0.007291199,-0.001165289,-0.000230228,-0.00054024
-0.007291056,-0.001164024,-0.000230347,-0.000541966
-0.007290909,-0.001162748,-0.000230468,-0.000543726
-0.007290757,-0.001161461,-0.00023059,-0.000545519
-0.0072906,-0.001160162,-0.000230714,-0.000547345
-0.007290438,-0.001158852,-0.000230838,-0.000549205
-0.007290272,-0.001157531,-0.000230964,-0.000551099
-0.007290101,-0.0011562,-0.000231091,-0.000553028
-0.007289926,-0.001154858,-0.00023122,-0.000554991
-0.007289745,-0.001153505,-0.000231349,-0.000556988
-0.00728956,-0.001152141,-0.00023148,-0.000559022
-0.00728937,-0.001150766,-0.000231611,-0.00056109
-0.007289175,-0.001149381,-0.000231744,-0.000563195
-0.007288975,-0.001147986,-0.000231878,-0.000565336
-0.00728877,-0.00114658,-0.000232013,-0.000567514
-0.00728856,-0.001145164,-0.000232148,-0.000569728
-0.007288345,-0.001143738,-0.000232285,-0.000571979
-0.007288124,-0.001142302,-0.000232423,-0.000574267
-0.007287899,-0.001140857,-0.000232562,-0.000576592
-0.007287668,-0.001139401,-0.000232702,-0.000578954
-0.007287433,-0.001137935,-0.000232843,-0.000581353
-0.007287192,-0.00113646,-0.000232985,-0.00058379
-0.007286947,-0.001134974,-0.000233128,-0.000586264
-0.007286696,-0.001133477,-0.000233273,-0.000588775
-0.00728644,-0.001131971,-0.000233418,-0.000591324
-0.007286179,-0.001130454,-0.000233564,-0.00059391
-0.007285913,-0.001128927,-0.000233711,-0.000596534
-0.007285641,-0.001127389,-0.00023386,-0.000599196
-0.007285365,-0.001125841,-0.00023401,-0.000601895
-0.007285083,-0.001124283,-0.000234161,-0.000604632
-0.007284796,-0.001122715,-0.000234314,-0.000607407
-0.007284504,-0.001121136,-0.000234468,-0.00061022
-0.007284206,-0.001119548,-0.000234623,-0.00061307
-0.007283904,-0.00111795,-0.000234781,-0.000615959
-0.007283596,-0.001116341,-0.00023494,-0.000618885
-0.007283282,-0.001114723,-0.000235101,-0.000621849
-0.007282964,-0.001113095,-0.000235264,-0.000624851
-0.00728264,-0.001111456,-0.000235429,-0.000627889
-0.007282311,-0.001109808,-0.000235596,-0.000630965
-0.007281976,-0.001108149,-0.000235765,-0.000634078
-0.007281636,-0.00110648,-0.000235936,-0.000637227
-0.007281291,-0.001104801,-0.000236109,-0.000640412
-0.007280941,-0.001103112,-0.000236284,-0.000643634
-0.007280585,-0.001101412,-0.000236461,-0.000646891
-0.007280225,-0.001099702,-0.00023664,-0.000650184
-0.007279859,-0.001097982,-0.000236822,-0.000653513
-0.007279488,-0.001096251,-0.000237006,-0.000656878
-0.007279112,-0.001094511,-0.000237192,-0.000660277
-0.00727873,-0.00109276,-0.000237381,-0.000663712
-0.007278344,-0.001091,-0.000237573,-0.000667182
-0.007277953,-0.00108923,-0.000237768,-0.000670687
-0.007277558,-0.001087451,-0.000237965,-0.000674228
-0.007277157,-0.001085662,-0.000238166,-0.000677803
-0.007276752,-0.001083864,-0.00023837,-0.000681413
-0.007276343,-0.001082056,-0.000238577,-0.000685058
-0.007275929,-0.00108024,-0.000238788,-0.000688739
-0.00727551,-0.001078415,-0.000239001,-0.000692454
-0.007275087,-0.001076581,-0.000239218,-0.000696204
-0.00727466,-0.00107474,-0.000239438,-0.000699988
-0.007274229,-0.00107289,-0.000239662,-0.000703808
-0.007273793,-0.001071032,-0.000239889,-0.000707661
-0.007273354,-0.001069166,-0.00024012,-0.000711548
-0.00727291,-0.001067293,-0.000240354,-0.000715468
-0.007272463,-0.001065412,-0.000240592,-0.000719422
-0.007272012,-0.001063523,-0.000240833,-0.00072341
-0.007271557,-0.001061627,-0.000241078,-0.000727431
-0.007271099,-0.001059724,-0.000241327,-0.000731485
-0.007270637,-0.001057814,-0.00024158,-0.000735573
-0.007270171,-0.001055898,-0.000241837,-0.000739694
-0.007269702,-0.001053975,-0.000242098,-0.000743849
-0.00726923,-0.001052046,-0.000242363,-0.000748037
-0.007268754,-0.001050111,-0.000242632,-0.000752258
-0.007268274,-0.00104817,-0.000242905,-0.000756512
-0.007267791,-0.001046223,-0.000243182,-0.0007608
-0.007267305,-0.001044271,-0.000243464,-0.000765121
-0.007266816,-0.001042313,-0.00024375,-0.000769474
-0.007266324,-0.001040351,-0.00024404,-0.000773861
-0.007265828,-0.001038383,-0.000244335,-0.000778279
-0.007265329,-0.00103641,-0.000244634,-0.00078273
-0.007264828,-0.001034433,-0.000244937,-0.000787213
-0.007264323,-0.001032451,-0.000245245,-0.000791728
-0.007263815,-0.001030464,-0.000245557,-0.000796275
-0.007263304,-0.001028474,-0.000245873,-0.000800853
-0.007262791,-0.00102648,-0.000246194,-0.000805464
-0.007262275,-0.001024482,-0.000246519,-0.000810106
-0.007261756,-0.00102248,-0.000246849,-0.000814779
-0.007261235,-0.001020474,-0.000247183,-0.000819483
-0.007260711,-0.001018465,-0.000247521,-0.000824219
-0.007260185,-0.001016452,-0.000247864,-0.000828986
-0.007259657,-0.001014436,-0.000248211,-0.000833784
-0.007259126,-0.001012417,-0.000248562,-0.000838613
-0.007258593,-0.001010393,-0.000248917,-0.000843473
-0.007258057,-0.001008367,-0.000249276,-0.000848362
-0.00725752,-0.001006337,-0.000249639,-0.000853282
-0.00725698,-0.001004303,-0.000250006,-0.000858231
-0.007256438,-0.001002267,-0.000250376,-0.000863208
-0.007255894,-0.001000227,-0.00025075,-0.000868215
-0.007255347,-0.000998184,-0.000251128,-0.000873249
-0.007254799,-0.000996138,-0.00025151,-0.000878311
-0.007254248,-0.00099409,-0.000251895,-0.000883401
-0.007253695,-0.000992038,-0.000252283,-0.000888518
-0.007253141,-0.000989984,-0.000252676,-0.000893662
-0.007252584,-0.000987927,-0.000253071,-0.000898832
-0.007252025,-0.000985868,-0.00025347,-0.000904029
-0.007251464,-0.000983806,-0.000253872,-0.000909251
-0.007250901,-0.000981741,-0.000254278,-0.000914499
-0.007250336,-0.000979675,-0.000254686,-0.000919772
-0.007249769,-0.000977607,-0.000255097,-0.000925071
-0.0072492,-0.000975536,-0.000255511,-0.000930395
-0.00724863,-0.000973465,-0.000255927,-0.000935744
-0.007248057,-0.000971391,-0.000256347,-0.000941117
-0.007247482,-0.000969316,-0.000256768,-0.000946515
-0.007246906,-0.00096724,-0.000257192,-0.000951937
-0.007246328,-0.000965163,-0.000257618,-0.000957383
-0.007245748,-0.000963085,-0.000258046,-0.000962852
-0.007245166,-0.000961005,-0.000258476,-0.000968345
-0.007244584,-0.000958925,-0.000258909,-0.000973861
-0.007243999,-0.000956844,-0.000259343,-0.000979399
-0.007243414,-0.000954762,-0.000259778,-0.000984961
-0.007242827,-0.00095268,-0.000260216,-0.000990544
-0.007242239,-0.000950596,-0.000260655,-0.00099615
-0.007241649,-0.000948511,-0.000261095,-0.001001777
-0.007241059,-0.000946426,-0.000261537,-0.001007426
-0.007240467,-0.00094434,-0.00026198,-0.001013096
-0.007239873,-0.000942253,-0.000262424,-0.001018787
-0.007239278,-0.000940165,-0.000262868,-0.001024499
-0.007238682,-0.000938077,-0.000263314,-0.00103023
-0.007238084,-0.000935988,-0.000263761,-0.001035981
-0.007237485,-0.000933898,-0.000264208,-0.001041751
-0.007236884,-0.000931808,-0.000264656,-0.00104754
-0.007236282,-0.000929718,-0.000265104,-0.001053347
-0.007235678,-0.000927628,-0.000265553,-0.001059172
-0.007235072,-0.000925537,-0.000266003,-0.001065014
-0.007234465,-0.000923446,-0.000266452,-0.001070873
-0.007233856,-0.000921355,-0.000266902,-0.001076748
-0.007233245,-0.000919263,-0.000267352,-0.001082639
-0.007232633,-0.000917172,-0.000267802,-0.001088545
-0.007232019,-0.000915081,-0.000268252,-0.001094466
-0.007231403,-0.00091299,-0.000268701,-0.001100402
-0.007230786,-0.000910899,-0.00026915,-0.001106352
-0.007230166,-0.000908809,-0.000269597,-0.001112316
-0.007229545,-0.00090672,-0.000270044,-0.001118293
-0.007228922,-0.000904631,-0.00027049,-0.001124283
-0.007228297,-0.000902544,-0.000270934,-0.001130286
-0.00722767,-0.000900457,-0.000271377,-0.0011363
-0.007227041,-0.000898371,-0.000271819,-0.001142326
-0.00722641,-0.000896286,-0.000272259,-0.001148363
-0.007225778,-0.000894203,-0.000272697,-0.001154409
-0.007225143,-0.00089212,-0.000273133,-0.001160466
-0.007224506,-0.000890039,-0.000273568,-0.001166531
-0.007223868,-0.00088796,-0.000274,-0.001172604
-0.007223228,-0.000885881,-0.000274431,-0.001178685
-0.007222585,-0.000883805,-0.000274859,-0.001184773
-0.007221941,-0.00088173,-0.000275285,-0.001190867
-0.007221295,-0.000879657,-0.000275708,-0.001196966
-0.007220646,-0.000877586,-0.000276129,-0.001203071
-0.007219996,-0.000875517,-0.000276548,-0.001209181
-0.007219344,-0.000873451,-0.000276964,-0.001215296
-0.00721869,-0.000871386,-0.000277377,-0.001221415
-0.007218033,-0.000869324,-0.000277788,-0.001227538
-0.007217376,-0.000867264,-0.000278196,-0.001233665
-0.007216716,-0.000865206,-0.000278602,-0.001239794
-0.007216054,-0.00086315,-0.000279005,-0.001245926
-0.00721539,-0.000861097,-0.000279405,-0.00125206
-0.007214725,-0.000859045,-0.000279802,-0.001258195
-0.007214057,-0.000856996,-0.000280196,-0.001264332
-0.007213388,-0.00085495,-0.000280587,-0.001270469
-0.007212717,-0.000852905,-0.000280975,-0.001276606
-0.007212043,-0.000850863,-0.00028136,-0.001282743
-0.007211368,-0.000848824,-0.000281742,-0.001288879
-0.007210691,-0.000846787,-0.000282121,-0.001295014
-0.007210013,-0.000844752,-0.000282497,-0.001301148
-0.007209332,-0.000842721,-0.000282869,-0.001307281
-0.007208649,-0.000840691,-0.000283237,-0.001313412
-0.007207965,-0.000838665,-0.000283602,-0.001319542
-0.007207279,-0.000836642,-0.000283964,-0.00132567
-0.007206591,-0.000834622,-0.000284321,-0.001331797
-0.007205902,-0.000832606,-0.000284675,-0.001337921
-0.007205211,-0.000830593,-0.000285026,-0.001344044
-0.007204519,-0.000828584,-0.000285372,-0.001350164
-0.007203825,-0.000826578,-0.000285715,-0.001356282
-0.00720313,-0.000824577,-0.000286054,-0.001362397
-0.007202434,-0.00082258,-0.000286389,-0.001368511
-0.007201737,-0.000820588,-0.000286721,-0.001374621
-0.007201039,-0.0008186,-0.000287049,-0.00138073
-0.007200341,-0.000816617,-0.000287373,-0.001386836
-0.007199641,-0.000814639,-0.000287694,-0.00139294
-0.007198941,-0.000812667,-0.00028801,-0.001399041
-0.00719824,-0.0008107,-0.000288323,-0.00140514
-0.007197539,-0.000808738,-0.000288631,-0.001411237
-0.007196838,-0.000806783,-0.000288935,-0.001417332
-0.007196136,-0.000804833,-0.000289235,-0.001423424
-0.007195433,-0.000802888,-0.00028953,-0.001429514
-0.007194731,-0.00080095,-0.000289822,-0.001435601
-0.007194028,-0.000799018,-0.000290108,-0.001441686
-0.007193325,-0.000797092,-0.000290391,-0.001447767
-0.007192622,-0.000795172,-0.000290668,-0.001453845
-0.007191919,-0.000793258,-0.000290942,-0.001459919
-0.007191216,-0.00079135,-0.00029121,-0.00146599
-0.007190514,-0.000789449,-0.000291475,-0.001472058
-0.007189811,-0.000787555,-0.000291734,-0.001478121
-0.007189109,-0.000785667,-0.000291989,-0.001484181
-0.007188408,-0.000783785,-0.000292239,-0.001490236
-0.007187707,-0.000781911,-0.000292485,-0.001496287
-0.007187007,-0.000780044,-0.000292725,-0.001502334
-0.007186308,-0.000778185,-0.000292961,-0.001508376
-0.007185609,-0.000776333,-0.000293191,-0.001514414
-0.00718491,-0.000774488,-0.000293416,-0.001520448
-0.007184213,-0.000772652,-0.000293636,-0.001526477
-0.007183516,-0.000770824,-0.00029385,-0.001532502
-0.007182821,-0.000769005,-0.000294059,-0.001538522
-0.007182126,-0.000767194,-0.000294262,-0.001544538
-0.007181433,-0.000765392,-0.00029446,-0.001550548
-0.00718074,-0.000763598,-0.000294652,-0.001556554
-0.007180049,-0.000761814,-0.000294838,-0.001562554
-0.007179359,-0.000760039,-0.000295018,-0.001568549
-0.007178671,-0.000758274,-0.000295193,-0.001574539
-0.007177984,-0.000756517,-0.000295362,-0.001580524
-0.007177299,-0.00075477,-0.000295524,-0.001586503
-0.007176616,-0.000753033,-0.000295681,-0.001592478
-0.007175934,-0.000751306,-0.000295832,-0.001598446
-0.007175255,-0.000749588,-0.000295977,-0.00160441
-0.007174577,-0.00074788,-0.000296115,-0.001610368
-0.007173901,-0.000746183,-0.000296247,-0.001616321
-0.007173228,-0.000744495,-0.000296373,-0.001622268
-0.007172557,-0.000742818,-0.000296493,-0.001628209
-0.007171888,-0.000741151,-0.000296606,-0.001634145
-0.007171222,-0.000739495,-0.000296712,-0.001640075
-0.007170558,-0.000737849,-0.000296813,-0.001646
-0.007169897,-0.000736214,-0.000296907,-0.00165192
-0.007169238,-0.00073459,-0.000296994,-0.001657833
-0.007168582,-0.000732977,-0.000297075,-0.001663742
-0.007167929,-0.000731375,-0.00029715,-0.001669645
-0.007167279,-0.000729785,-0.000297219,-0.001675543
-0.007166631,-0.000728206,-0.000297281,-0.001681435
-0.007165985,-0.000726639,-0.000297337,-0.001687322
-0.007165343,-0.000725084,-0.000297387,-0.001693203
-0.007164703,-0.000723541,-0.000297431,-0.001699079
-0.007164065,-0.00072201,-0.000297468,-0.001704949
-0.00716343,-0.000720491,-0.000297499,-0.001710813
-0.007162798,-0.000718984,-0.000297524,-0.001716672
-0.007162167,-0.000717489,-0.000297543,-0.001722525
-0.007161539,-0.000716006,-0.000297555,-0.001728372
-0.007160914,-0.000714535,-0.000297562,-0.001734213
-0.007160291,-0.000713076,-0.000297562,-0.001740048
-0.007159671,-0.000711629,-0.000297557,-0.001745876
-0.007159053,-0.000710194,-0.000297545,-0.001751698
-0.007158437,-0.000708771,-0.000297528,-0.001757514
-0.007157824,-0.000707361,-0.000297505,-0.001763323
-0.007157213,-0.000705962,-0.000297476,-0.001769125
-0.007156605,-0.000704577,-0.000297442,-0.00177492
-0.007155998,-0.000703204,-0.000297401,-0.001780709
-0.007155394,-0.000701843,-0.000297355,-0.00178649
-0.007154793,-0.000700495,-0.000297303,-0.001792264
-0.007154193,-0.000699159,-0.000297246,-0.00179803
-0.007153596,-0.000697836,-0.000297182,-0.001803788
-0.007153,-0.000696526,-0.000297113,-0.001809537
-0.007152407,-0.000695229,-0.000297038,-0.001815278
-0.007151816,-0.000693945,-0.000296957,-0.00182101
-0.007151226,-0.000692673,-0.000296871,-0.001826732
-0.007150639,-0.000691414,-0.000296779,-0.001832445
-0.007150053,-0.000690169,-0.000296681,-0.001838147
-0.00714947,-0.000688936,-0.000296577,-0.001843839
-0.007148887,-0.000687715,-0.000296468,-0.00184952
-0.007148307,-0.000686508,-0.000296353,-0.00185519
-0.007147728,-0.000685314,-0.000296233,-0.001860849
-0.007147151,-0.000684132,-0.000296108,-0.001866497
-0.007146576,-0.000682963,-0.000295977,-0.001872132
-0.007146002,-0.000681807,-0.000295841,-0.001877756
-0.007145429,-0.000680664,-0.000295699,-0.001883367
-0.007144859,-0.000679533,-0.000295553,-0.001888966
-0.007144289,-0.000678415,-0.000295401,-0.001894552
-0.007143721,-0.000677311,-0.000295244,-0.001900124
-0.007143155,-0.000676219,-0.000295082,-0.001905683
-0.007142589,-0.00067514,-0.000294915,-0.001911228
-0.007142025,-0.000674074,-0.000294742,-0.00191676
-0.007141462,-0.000673021,-0.000294565,-0.001922276
-0.007140901,-0.000671982,-0.000294382,-0.001927778
-0.00714034,-0.000670956,-0.000294195,-0.001933265
-0.00713978,-0.000669943,-0.000294002,-0.001938737
-0.007139222,-0.000668944,-0.000293805,-0.001944192
-0.007138664,-0.000667958,-0.000293603,-0.001949631
-0.007138107,-0.000666986,-0.000293397,-0.001955053
-0.007137551,-0.000666027,-0.000293186,-0.001960457
-0.007136996,-0.000665082,-0.00029297,-0.001965844
-0.007136442,-0.000664151,-0.00029275,-0.001971213
-0.007135888,-0.000663233,-0.000292525,-0.001976564
-0.007135335,-0.000662329,-0.000292296,-0.001981896
-0.007134782,-0.000661439,-0.000292063,-0.001987209
-0.00713423,-0.000660563,-0.000291825,-0.001992504
-0.007133678,-0.000659701,-0.000291583,-0.00199778
-0.007133126,-0.000658854,-0.000291336,-0.002003037
-0.007132574,-0.00065802,-0.000291085,-0.002008276
-0.007132022,-0.0006572,-0.00029083,-0.002013495
-0.00713147,-0.000656395,-0.00029057,-0.002018696
-0.007130917,-0.000655603,-0.000290306,-0.002023877
-0.007130365,-0.000654825,-0.000290037,-0.00202904
