processed_ch1,processed_ch2,processed_ch3,processed_ch4
0.083935722,0.145706252,0.016022256,0.088096158
0.083889996,0.14562245,0.016016025,0.088040265
0.083844283,0.14553906,0.016009819,0.087984654
0.083798581,0.145456087,0.016003639,0.087929323
0.083752891,0.145373538,0.015997484,0.087874271
0.083707213,0.145291416,0.015991353,0.087819497
0.083661548,0.145209728,0.015985246,0.087765002
0.083615896,0.145128479,0.015979163,0.087710785
0.083570257,0.145047672,0.015973103,0.087656846
0.083524632,0.144967313,0.015967065,0.087603185
0.083479022,0.144887406,0.01596105,0.087549803
0.083433425,0.144807955,0.015955056,0.087496698
0.083387843,0.144728963,0.015949084,0.087443871
0.083342276,0.144650436,0.015943133,0.087391319
0.083296725,0.144572377,0.015937202,0.087339044
0.083251188,0.144494791,0.015931292,0.087287044
0.083205666,0.144417681,0.015925402,0.08723532
0.08316016,0.144341052,0.015919531,0.087183869
0.083114668,0.144264909,0.01591368,0.087132692
0.083069191,0.144189256,0.015907848,0.087081789
0.083023728,0.144114096,0.015902034,0.087031158
0.08297828,0.144039434,0.015896239,0.086980799
0.082932845,0.143965272,0.015890462,0.086930711
0.082887424,0.143891614,0.015884703,0.086880893
0.082842017,0.143818463,0.015878961,0.086831345
0.082796623,0.143745821,0.015873237,0.086782064
0.082751242,0.143673692,0.01586753,0.08673305
0.082705874,0.143602078,0.01586184,0.086684301
0.082660519,0.143530983,0.015856166,0.086635816
0.082615176,0.143460409,0.015850509,0.086587592
0.082569845,0.143390359,0.015844868,0.08653963
0.082524526,0.143320837,0.015839244,0.086491928
0.082479218,0.143251845,0.015833635,0.086444485
0.082433921,0.143183384,0.015828042,0.0863973
0.082388633,0.143115457,0.015822464,0.086350374
0.082343353,0.143048065,0.015816902,0.086303706
0.082298082,0.142981211,0.015811354,0.086257297
0.082252817,0.142914897,0.015805822,0.086211146
0.082207558,0.142849123,0.015800305,0.086165255
0.082162303,0.142783892,0.015794802,0.086119623
0.082117052,0.142719204,0.015789313,0.086074251
0.082071802,0.142655061,0.015783839,0.086029139
0.082026553,0.142591463,0.015778378,0.085984287
0.081981304,0.142528414,0.015772931,0.085939694
0.081936053,0.142465914,0.015767497,0.085895362
0.081890799,0.142403964,0.015762075,0.085851291
0.081845541,0.142342566,0.015756666,0.08580748
0.081800278,0.142281722,0.015751269,0.08576393
0.08175501,0.14222143,0.015745883,0.085720642
0.081709736,0.142161693,0.015740509,0.085677614
0.081664454,0.142102511,0.015735146,0.085634847
0.081619164,0.142043884,0.015729794,0.085592339
0.081573865,0.141985813,0.015724452,0.08555009
0.081528558,0.141928298,0.015719122,0.085508099
0.081483241,0.14187134,0.015713801,0.085466366
0.081437915,0.14181494,0.01570849,0.085424888
0.081392581,0.141759097,0.015703189,0.085383667
0.081347239,0.141703813,0.015697898,0.0853427
0.08130189,0.141649089,0.015692617,0.085301989
0.081256535,0.141594926,0.015687345,0.085261531
0.081211176,0.141541324,0.015682084,0.085221328
0.081165812,0.141488286,0.015676833,0.085181377
0.081120447,0.141435813,0.015671591,0.085141678
0.08107508,0.141383905,0.01566636,0.085102231
0.081029714,0.141332564,0.01566114,0.085063035
0.08098435,0.141281789,0.01565593,0.085024089
0.080938991,0.141231581,0.015650731,0.084985392
0.080893636,0.14118194,0.015645543,0.084946943
0.080848289,0.141132867,0.015640366,0.084908742
0.080802951,0.141084361,0.0156352,0.084870786
0.080757623,0.141036424,0.015630045,0.084833077
0.080712306,0.140989057,0.015624901,0.084795611
0.080667003,0.14094226,0.015619769,0.08475839
0.080621715,0.140896034,0.015614648,0.084721411
0.080576442,0.14085038,0.015609539,0.084684673
0.080531187,0.1408053,0.015604443,0.084648177
0.080485951,0.140760795,0.015599359,0.08461192
0.080440735,0.140716867,0.015594288,0.0845759
0.08039554,0.140673518,0.01558923,0.084540118
0.080350369,0.140630751,0.015584185,0.084504571
0.080305221,0.140588567,0.015579154,0.084469261
0.080260098,0.140546968,0.015574136,0.084434185
0.080215002,0.140505957,0.015569132,0.084399345
0.080169933,0.140465535,0.015564141,0.08436474
0.080124894,0.140425704,0.015559164,0.08433037
0.080079883,0.140386465,0.015554201,0.084296235
0.080034904,0.14034782,0.015549251,0.084262335
0.079989956,0.140309769,0.015544315,0.084228667
0.079945039,0.140272313,0.015539393,0.084195233
0.079900156,0.140235452,0.015534484,0.08416203
0.079855306,0.140199188,0.015529589,0.084129058
0.079810489,0.140163521,0.015524707,0.084096315
0.079765706,0.140128452,0.01551984,0.084063798
0.079720958,0.140093982,0.015514986,0.084031507
0.079676245,0.140060112,0.015510145,0.08399944
0.079631566,0.140026844,0.015505318,0.083967593
0.079586923,0.139994178,0.015500505,0.083935965
0.079542315,0.139962118,0.015495705,0.083904555
0.079497742,0.139930663,0.015490918,0.083873362
0.079453205,0.139899814,0.015486145,0.083842384
0.079408703,0.139869573,0.015481385,0.08381162
0.079364236,0.139839939,0.015476638,0.083781068
0.079319804,0.139810912,0.015471904,0.083750728
0.079275407,0.139782494,0.015467184,0.083720597
0.079231045,0.139754682,0.015462476,0.083690672
0.079186717,0.139727478,0.015457782,0.083660952
0.079142424,0.139700879,0.015453101,0.083631435
0.079098164,0.139674885,0.015448432,0.08360212
0.079053938,0.139649496,0.015443777,0.083573006
0.079009745,0.139624711,0.015439134,0.08354409
0.078965584,0.139600528,0.015434504,0.083515372
0.078921455,0.139576948,0.015429887,0.08348685
0.078877359,0.139553969,0.015425282,0.083458523
0.078833293,0.13953159,0.01542069,0.083430389
0.078789259,0.13950981,0.01541611,0.083402447
0.078745255,0.139488629,0.015411544,0.083374693
0.078701281,0.139468044,0.01540699,0.083347128
0.078657338,0.139448053,0.01540245,0.083319748
0.078613425,0.139428656,0.015397923,0.083292552
0.078569543,0.139409849,0.01539341,0.083265537
0.078525692,0.139391632,0.015388912,0.083238701
0.078481872,0.139374001,0.015384428,0.083212041
0.078438084,0.139356955,0.015379959,0.083185556
0.078394326,0.139340491,0.015375506,0.083159241
0.0783506,0.139324605,0.015371068,0.083133094
0.078306905,0.139309296,0.015366645,0.083107113
0.078263241,0.139294561,0.015362237,0.083081293
0.078219607,0.139280396,0.015357845,0.083055633
0.078176005,0.139266798,0.015353469,0.083030128
0.078132432,0.139253764,0.015349108,0.083004776
0.078088889,0.139241292,0.015344763,0.082979575
0.078045375,0.139229377,0.015340433,0.082954521
0.078001891,0.139218017,0.015336119,0.082929612
0.077958435,0.139207207,0.015331821,0.082904847
0.077915007,0.139196945,0.015327539,0.082880222
0.077871607,0.139187227,0.015323272,0.082855735
0.077828234,0.139178049,0.015319022,0.082831385
0.077784888,0.139169409,0.015314788,0.08280717
0.077741569,0.139161302,0.015310569,0.082783087
0.077698277,0.139153725,0.015306367,0.082759136
0.077655012,0.139146675,0.015302182,0.082735315
0.077611773,0.139140148,0.015298013,0.082711621
0.07756856,0.139134141,0.015293862,0.082688054
0.077525372,0.139128649,0.015289727,0.08266461
0.07748221,0.139123668,0.01528561,0.082641289
0.077439073,0.139119196,0.015281511,0.082618089
0.077395959,0.139115228,0.015277429,0.082595009
0.077352868,0.139111761,0.015273365,0.082572046
0.0773098,0.139108792,0.015269318,0.082549201
0.077266753,0.139106317,0.015265289,0.08252647
0.077223728,0.139104333,0.015261278,0.082503853
0.077180724,0.139102835,0.015257284,0.082481348
0.077137739,0.13910182,0.015253307,0.082458953
0.077094773,0.139101284,0.015249347,0.082436667
0.077051826,0.139101222,0.015245404,0.082414487
0.077008897,0.139101631,0.015241479,0.082392413
0.076965985,0.139102507,0.01523757,0.082370443
0.07692309,0.139103845,0.015233677,0.082348574
0.076880211,0.139105641,0.015229802,0.082326807
0.076837348,0.139107892,0.015225944,0.082305139
0.076794499,0.139110595,0.015222104,0.08228357
0.076751664,0.139113744,0.015218281,0.082262096
0.076708842,0.139117338,0.015214476,0.082240716
0.076666033,0.139121372,0.01521069,0.082219429
0.076623235,0.139125844,0.015206922,0.082198233
0.076580449,0.139130752,0.015203172,0.082177125
0.076537673,0.139136092,0.015199442,0.082156105
0.076494907,0.139141865,0.01519573,0.082135172
0.076452151,0.13914807,0.015192037,0.082114322
0.076409405,0.139154706,0.015188363,0.082093556
0.076366669,0.139161771,0.015184708,0.082072871
0.076323943,0.139169265,0.015181072,0.082052265
0.076281226,0.139177185,0.015177455,0.082031737
0.07623852,0.13918553,0.015173857,0.082011286
0.076195822,0.139194298,0.015170278,0.08199091
0.076153135,0.139203486,0.015166717,0.081970609
0.076110457,0.139213093,0.015163175,0.081950381
0.076067788,0.139223118,0.015159651,0.081930225
0.07602513,0.139233557,0.015156145,0.081910139
0.07598248,0.13924441,0.015152658,0.081890123
0.07593984,0.139255673,0.015149188,0.081870176
0.07589721,0.139267343,0.015145737,0.081850295
0.075854591,0.13927942,0.015142303,0.081830481
0.075811982,0.139291901,0.015138887,0.081810732
0.075769386,0.139304784,0.015135488,0.081791047
0.075726804,0.139318068,0.015132108,0.081771424
0.075684236,0.139331753,0.015128746,0.081751863
0.075641684,0.139345836,0.015125401,0.081732362
0.075599149,0.139360319,0.015122076,0.081712922
0.075556632,0.139375201,0.015118769,0.081693541
0.075514134,0.139390479,0.015115481,0.081674219
0.075471656,0.139406155,0.015112211,0.081654956
0.075429198,0.139422226,0.015108961,0.081635751
0.075386762,0.139438695,0.015105729,0.081616605
0.075344347,0.139455563,0.015102517,0.081597517
0.075301955,0.139472831,0.015099323,0.081578489
0.075259586,0.139490503,0.015096149,0.081559519
0.07521724,0.139508578,0.015092993,0.081540609
0.075174918,0.139527061,0.015089857,0.081521759
0.07513262,0.139545952,0.015086739,0.081502967
0.075090347,0.139565253,0.01508364,0.081484234
0.075048098,0.139584965,0.015080559,0.08146556
0.075005875,0.139605091,0.015077497,0.081446942
0.074963677,0.139625631,0.015074453,0.081428381
0.074921505,0.139646588,0.015071428,0.081409875
0.074879359,0.139667962,0.01506842,0.081391425
0.07483724,0.139689755,0.015065431,0.08137303
0.074795147,0.139711966,0.01506246,0.081354691
0.07475308,0.139734597,0.015059506,0.081336407
0.074711041,0.139757648,0.01505657,0.08131818
0.074669028,0.13978112,0.015053652,0.081300007
0.074627042,0.139805014,0.015050751,0.081281891
0.074585085,0.139829333,0.015047868,0.081263831
0.074543157,0.139854078,0.015045002,0.081245828
0.074501257,0.13987925,0.015042154,0.081227882
0.074459388,0.139904851,0.015039322,0.081209992
0.074417551,0.139930883,0.015036506,0.08119216
0.074375745,0.139957345,0.015033706,0.081174386
0.074333971,0.139984239,0.015030922,0.081156669
0.074292232,0.140011565,0.015028154,0.08113901
0.074250528,0.140039325,0.0150254,0.081121409
0.074208859,0.140067519,0.01502266,0.081103868
0.074167229,0.140096148,0.015019935,0.081086386
0.074125637,0.140125213,0.015017224,0.081068965
0.074084085,0.140154715,0.015014526,0.081051606
0.074042574,0.140184654,0.015011842,0.081034308
0.074001107,0.14021503,0.015009171,0.081017072
0.073959684,0.140245846,0.015006513,0.080999899
0.073918308,0.1402771,0.015003869,0.080982789
0.073876981,0.140308794,0.015001237,0.08096574
0.073835703,0.140340926,0.014998619,0.080948755
0.073794478,0.140373496,0.014996013,0.080931832
0.073753307,0.140406504,0.014993419,0.080914973
0.073712192,0.14043995,0.014990838,0.080898178
0.073671135,0.140473833,0.014988268,0.080881449
0.073630137,0.140508154,0.01498571,0.080864788
0.0735892,0.140542913,0.014983164,0.080848198
0.073548326,0.14057811,0.014980629,0.08083168
0.073507515,0.140613745,0.014978105,0.080815239
0.073466771,0.140649819,0.014975592,0.080798875
0.073426092,0.140686331,0.01497309,0.080782592
0.073385482,0.14072328,0.014970598,0.080766394
0.073344941,0.140760668,0.014968117,0.080750282
0.07330447,0.140798492,0.014965645,0.080734261
0.073264071,0.140836752,0.014963184,0.080718335
0.073223744,0.140875447,0.014960733,0.080702508
0.073183491,0.140914576,0.014958292,0.080686783
0.073143314,0.140954137,0.014955861,0.080671164
0.073103212,0.140994129,0.014953439,0.080655654
0.073063187,0.141034551,0.014951028,0.080640257
0.07302324,0.141075402,0.014948626,0.080624975
0.072983372,0.14111668,0.014946233,0.080609811
0.072943584,0.141158385,0.014943851,0.080594769
0.072903876,0.141200516,0.014941479,0.08057985
0.072864248,0.141243071,0.014939116,0.080565057
0.072824702,0.141286049,0.014936764,0.080550392
0.072785237,0.141329448,0.014934423,0.080535859
0.072745855,0.141373268,0.014932093,0.080521458
0.072706554,0.141417507,0.014929773,0.080507192
0.072667336,0.141462162,0.014927466,0.080493064
0.0726282,0.141507231,0.01492517,0.080479076
0.072589146,0.141552713,0.014922887,0.080465231
0.072550175,0.141598605,0.014920616,0.080451531
0.072511287,0.141644904,0.014918358,0.080437978
0.07247248,0.141691607,0.014916113,0.080424574
0.072433755,0.141738712,0.014913882,0.080411319
0.072395111,0.141786214,0.014911664,0.080398215
0.072356549,0.141834111,0.01490946,0.080385264
0.072318066,0.141882399,0.014907269,0.080372467
0.072279664,0.141931076,0.014905092,0.080359827
0.072241341,0.141980137,0.014902928,0.080347343
0.072203097,0.142029579,0.014900778,0.080335016
0.072164932,0.142079398,0.014898642,0.080322849
0.072126845,0.142129591,0.014896519,0.08031084
0.072088834,0.142180155,0.014894411,0.080298991
0.072050901,0.142231086,0.014892316,0.080287302
0.072013043,0.142282379,0.014890236,0.080275773
0.07197526,0.142334032,0.014888169,0.080264406
0.07193755,0.142386042,0.014886118,0.080253201
0.071899914,0.142438404,0.01488408,0.080242159
0.071862351,0.142491116,0.014882057,0.080231281
0.071824859,0.142544174,0.014880048,0.080220568
0.071787439,0.142597576,0.014878054,0.080210022
0.071750091,0.142651316,0.014876074,0.080199643
0.071712814,0.142705391,0.014874108,0.080189431
0.071675607,0.142759799,0.014872158,0.080179388
0.071638471,0.142814533,0.014870222,0.080169514
0.071601404,0.142869591,0.014868301,0.080159811
0.071564407,0.142924969,0.014866395,0.080150278
0.071527477,0.142980661,0.014864504,0.080140916
0.071490616,0.143036664,0.014862627,0.080131728
0.07145382,0.143092972,0.014860765,0.080122714
0.071417091,0.143149581,0.014858919,0.080113876
0.071380427,0.143206486,0.014857087,0.080105218
0.071343827,0.14326368,0.01485527,0.080096739
0.07130729,0.14332116,0.014853468,0.080088443
0.071270815,0.143378921,0.014851681,0.080080332
0.071234403,0.143436959,0.014849909,0.080072408
0.071198052,0.14349527,0.014848152,0.080064673
0.071161762,0.143553852,0.014846411,0.080057128
0.071125532,0.143612702,0.014844685,0.080049776
0.071089361,0.143671818,0.014842975,0.080042618
0.071053249,0.143731197,0.01484128,0.080035658
0.071017194,0.143790837,0.014839602,0.080028899
0.070981196,0.143850737,0.01483794,0.080022343
0.070945254,0.143910893,0.014836295,0.080015996
0.070909367,0.143971304,0.014834666,0.08000986
0.070873533,0.144031967,0.014833055,0.080003941
0.070837752,0.144092879,0.014831461,0.07999824
0.070802022,0.144154037,0.014829884,0.079992762
0.070766342,0.144215441,0.014828326,0.079987511
0.07073071,0.144277086,0.014826785,0.07998249
0.070695126,0.144338971,0.014825262,0.079977703
0.070659588,0.144401095,0.014823758,0.079973153
0.070624095,0.144463455,0.014822272,0.079968844
0.070588646,0.14452605,0.014820805,0.079964778
0.070553239,0.144588876,0.014819356,0.07996096
0.070517873,0.144651933,0.014817925,0.079957391
0.070482548,0.144715218,0.014816512,0.079954073
0.070447261,0.144778728,0.014815118,0.07995101
0.070412012,0.144842461,0.014813741,0.079948201
0.070376799,0.144906414,0.014812382,0.079945649
0.07034162,0.144970584,0.014811041,0.079943355
0.070306474,0.145034968,0.014809717,0.07994132
0.07027136,0.145099561,0.01480841,0.079939547
0.070236276,0.145164362,0.014807121,0.079938036
0.070201221,0.145229367,0.014805849,0.079936788
0.070166192,0.145294573,0.014804595,0.079935805
0.07013119,0.145359977,0.014803358,0.079935087
0.070096212,0.145425575,0.014802138,0.079934636
0.070061258,0.145491364,0.014800936,0.079934453
0.070026328,0.145557343,0.014799752,0.079934541
0.069991419,0.145623508,0.014798586,0.079934902
0.069956533,0.145689857,0.014797437,0.079935538
0.069921667,0.145756386,0.014796305,0.079936452
0.069886821,0.145823094,0.014795191,0.079937645
0.069851995,0.145889977,0.014794093,0.079939119
0.069817187,0.145957034,0.014793013,0.079940877
0.069782398,0.14602426,0.014791949,0.079942919
0.069747627,0.146091654,0.014790902,0.079945248
0.069712874,0.146159212,0.014789872,0.079947867
0.06967814,0.14622693,0.014788857,0.079950777
0.069643423,0.146294805,0.014787859,0.079953979
0.069608723,0.146362835,0.014786876,0.079957476
0.069574041,0.146431016,0.01478591,0.07996127
0.069539377,0.146499346,0.01478496,0.079965363
0.06950473,0.146567821,0.014784026,0.079969757
0.069470101,0.146636438,0.014783108,0.079974456
0.069435489,0.146705196,0.014782207,0.079979461
0.069400895,0.146774093,0.014781323,0.079984775
0.06936632,0.146843124,0.014780455,0.0799904
0.069331762,0.146912289,0.014779604,0.079996338
0.069297222,0.146981585,0.014778771,0.080002592
0.0692627,0.14705101,0.014777954,0.080009162
0.069228197,0.147120562,0.014777155,0.08001605
0.069193712,0.147190237,0.014776373,0.080023258
0.069159246,0.147260035,0.014775609,0.080030785
0.069124798,0.147329954,0.014774863,0.080038634
0.06909037,0.147399992,0.014774135,0.080046803
0.069055961,0.147470146,0.014773425,0.080055294
0.069021572,0.147540416,0.014772734,0.080064107
0.068987204,0.147610799,0.014772061,0.080073242
0.068952857,0.147681294,0.014771406,0.080082702
0.068918531,0.147751899,0.014770771,0.080092488
0.068884228,0.147822613,0.014770154,0.080102605
0.068849948,0.147893434,0.014769556,0.080113055
0.068815693,0.147964362,0.014768976,0.080123842
0.068781465,0.148035395,0.014768416,0.08013497
0.068747265,0.148106535,0.014767876,0.080146442
0.068713096,0.148177783,0.014767354,0.080158263
0.068678962,0.148249138,0.014766852,0.080170435
0.068644867,0.148320602,0.014766369,0.080182962
0.068610815,0.148392175,0.014765906,0.080195849
0.06857681,0.148463858,0.014765463,0.080209099
0.068542857,0.148535652,0.01476504,0.080222714
0.06850896,0.148607558,0.014764637,0.080236698
0.068475123,0.148679576,0.014764255,0.080251053
0.068441352,0.148751708,0.014763893,0.080265782
0.068407649,0.148823954,0.014763551,0.080280888
0.068374021,0.148896315,0.014763229,0.080296373
0.068340471,0.148968792,0.014762929,0.08031224
0.068307004,0.149041385,0.014762648,0.080328493
0.068273623,0.149114095,0.014762389,0.080345133
0.068240333,0.149186922,0.01476215,0.080362164
0.068207139,0.149259866,0.014761931,0.080379588
0.068174043,0.149332927,0.014761734,0.08039741
0.068141049,0.149406104,0.014761557,0.080415631
0.068108161,0.149479399,0.0147614,0.080434256
0.068075382,0.149552812,0.014761264,0.080453286
0.068042715,0.149626342,0.014761149,0.080472725
0.068010163,0.149699991,0.014761055,0.080492575
0.06797773,0.149773759,0.014760982,0.080512838
0.067945418,0.149847646,0.014760931,0.080533519
0.06791323,0.149921652,0.014760902,0.08055462
0.067881169,0.149995778,0.014760896,0.080576145
0.067849238,0.150070023,0.014760913,0.080598097
0.067817439,0.150144388,0.014760954,0.08062048
0.067785776,0.150218871,0.014761021,0.080643298
0.067754251,0.150293474,0.014761113,0.080666555
0.067722868,0.150368194,0.014761231,0.080690255
0.06769163,0.150443032,0.014761375,0.080714404
0.06766054,0.150517986,0.014761547,0.080739004
0.067629602,0.150593057,0.014761748,0.080764059
0.067598818,0.150668243,0.014761977,0.080789574
0.067568192,0.150743542,0.014762235,0.080815553
0.067537727,0.150818954,0.014762523,0.080841997
0.067507425,0.150894477,0.014762842,0.080868912
0.067477291,0.150970112,0.014763193,0.080896299
0.067447325,0.151045856,0.014763575,0.080924161
0.067417532,0.15112171,0.014763991,0.080952501
0.067387914,0.151197671,0.01476444,0.08098132
0.067358473,0.151273739,0.014764924,0.081010622
0.067329213,0.151349912,0.014765443,0.081040411
0.067300135,0.15142619,0.014765997,0.081070688
0.067271243,0.15150257,0.014766588,0.081101458
0.067242539,0.151579053,0.014767215,0.081132723
0.067214026,0.151655637,0.014767879,0.081164486
0.067185707,0.151732322,0.014768581,0.081196752
0.067157584,0.151809106,0.014769321,0.081229523
0.067129661,0.15188599,0.014770099,0.081262802
0.06710194,0.151962975,0.014770917,0.081296594
0.067074425,0.152040062,0.014771774,0.081330901
0.067047118,0.152117254,0.014772671,0.081365727
0.067020023,0.152194552,0.01477361,0.081401074
0.066993141,0.152271962,0.014774589,0.081436946
0.066966477,0.15234949,0.014775609,0.081473343
0.066940034,0.152427141,0.014776672,0.08151027
0.066913814,0.152504922,0.014777777,0.081547727
0.066887821,0.152582841,0.014778925,0.081585716
0.066862057,0.152660903,0.014780115,0.081624239
0.066836525,0.152739116,0.014781348,0.081663297
0.066811229,0.152817485,0.014782625,0.081702892
0.06678617,0.152896018,0.014783944,0.081743024
0.066761352,0.15297472,0.014785308,0.081783694
0.066736775,0.1530536,0.014786714,0.081824905
0.066712444,0.153132663,0.014788164,0.081866656
0.066688359,0.153211915,0.014789658,0.081908949
0.066664523,0.153291362,0.014791195,0.081951785
0.066640938,0.15337101,0.014792776,0.081995164
0.066617607,0.153450864,0.014794401,0.082039087
0.066594531,0.15353093,0.01479607,0.082083555
0.066571712,0.153611213,0.014797784,0.082128568
0.066549152,0.153691718,0.014799542,0.082174128
0.066526853,0.15377245,0.014801345,0.082220237
0.066504817,0.153853414,0.014803193,0.082266896
0.066483045,0.153934615,0.014805086,0.082314107
0.06646154,0.154016057,0.014807024,0.082361872
0.066440302,0.154097745,0.014809007,0.082410191
0.066419335,0.154179683,0.014811035,0.082459068
0.066398638,0.154261875,0.014813109,0.082508502
0.066378215,0.154344323,0.014815228,0.082558495
0.066358066,0.15442703,0.014817393,0.082609051
0.066338193,0.154509999,0.014819603,0.08266017
0.066318599,0.154593232,0.01482186,0.082711855
0.066299285,0.15467673,0.014824163,0.082764108
0.066280252,0.154760496,0.014826512,0.082816931
0.066261501,0.154844529,0.014828908,0.082870325
0.066243036,0.154928831,0.014831351,0.082924292
0.066224857,0.155013403,0.014833841,0.082978834
0.066206965,0.155098245,0.014836377,0.083033953
0.066189363,0.155183357,0.01483896,0.08308965
0.066172052,0.15526874,0.014841591,0.083145929
0.066155035,0.155354394,0.014844268,0.083202792
0.066138312,0.15544032,0.014846992,0.08326024
0.066121886,0.155526516,0.014849763,0.083318276
0.066105758,0.155612984,0.014852581,0.083376901
0.06608993,0.155699721,0.014855446,0.083436116
0.066074402,0.155786727,0.014858359,0.083495922
0.066059175,0.155874001,0.014861318,0.08355632
0.066044251,0.155961541,0.014864325,0.08361731
0.066029631,0.156049347,0.014867379,0.083678894
0.066015314,0.156137417,0.01487048,0.083741071
0.066001301,0.156225749,0.014873628,0.083803841
0.065987593,0.156314342,0.014876823,0.083867204
0.06597419,0.156403195,0.014880064,0.08393116
0.065961093,0.156492306,0.014883352,0.083995709
0.0659483,0.156581676,0.014886686,0.08406085
0.065935813,0.156671306,0.014890065,0.084126583
0.065923631,0.156761196,0.014893491,0.084192906
0.065911754,0.156851346,0.014896961,0.08425982
0.065900182,0.156941757,0.014900477,0.084327322
0.065888913,0.15703243,0.014904037,0.084395413
0.065877949,0.157123363,0.014907642,0.084464093
0.065867287,0.157214557,0.01491129,0.084533361
0.065856928,0.157306012,0.014914981,0.084603218
0.065846872,0.157397726,0.014918716,0.084673662
0.065837119,0.157489699,0.014922495,0.084744695
0.065827667,0.157581931,0.014926317,0.084816315
0.065818517,0.157674421,0.014930181,0.084888522
0.065809667,0.157767169,0.014934089,0.084961315
0.065801117,0.157860177,0.014938039,0.085034693
0.065792867,0.157953444,0.014942032,0.085108656
0.065784916,0.158046972,0.014946068,0.085183203
0.065777262,0.158140764,0.014950146,0.085258333
0.065769905,0.15823482,0.014954266,0.085334045
0.065762843,0.158329143,0.014958428,0.085410339
0.065756077,0.158423734,0.014962632,0.085487212
0.065749604,0.158518596,0.014966878,0.085564663
0.065743425,0.158613728,0.014971165,0.085642691
0.065737538,0.158709134,0.014975492,0.085721293
0.065731943,0.158804813,0.014979861,0.085800468
0.065726639,0.158900767,0.014984269,0.085880211
0.065721627,0.158996997,0.014988717,0.085960522
0.065716905,0.159093504,0.014993205,0.086041396
0.065712475,0.159190288,0.014997732,0.086122831
0.065708336,0.15928735,0.015002297,0.086204825
0.065704488,0.15938469,0.0150069,0.086287375
0.06570093,0.159482308,0.015011541,0.086370478
0.065697664,0.159580206,0.01501622,0.086454132
0.065694687,0.159678381,0.015020935,0.086538334
0.065692001,0.159776835,0.015025688,0.086623081
0.065689605,0.159875567,0.015030478,0.086708368
0.065687499,0.159974574,0.015035304,0.086794193
0.065685682,0.160073857,0.015040167,0.08688055
0.065684154,0.160173413,0.015045066,0.086967436
0.065682914,0.160273243,0.015050001,0.087054846
0.065681963,0.160373343,0.015054971,0.087142775
0.065681302,0.160473713,0.015059977,0.08723122
0.06568093,0.160574352,0.015065017,0.087320174
0.065680849,0.160675258,0.015070091,0.087409634
0.065681059,0.160776431,0.015075199,0.087499594
0.065681561,0.160877869,0.01508034,0.087590049
0.065682356,0.160979573,0.015085513,0.087680994
0.065683444,0.161081541,0.015090719,0.087772426
0.065684827,0.161183773,0.015095956,0.087864342
0.065686505,0.161286269,0.015101226,0.087956737
0.065688478,0.161389028,0.015106526,0.088049609
0.06569075,0.161492051,0.015111859,0.088142956
0.06569332,0.161595339,0.015117222,0.088236774
0.065696191,0.16169889,0.015122616,0.088331063
0.065699364,0.161802706,0.015128041,0.088425821
0.065702843,0.161906788,0.015133496,0.088521046
0.065706628,0.162011135,0.015138981,0.088616738
0.065710722,0.162115748,0.015144495,0.088712895
0.065715126,0.162220628,0.015150039,0.088809516
0.065719844,0.162325775,0.015155612,0.088906599
0.065724876,0.162431189,0.015161214,0.089004141
0.065730224,0.16253687,0.015166844,0.089102142
0.06573589,0.162642817,0.015172502,0.089200599
0.065741875,0.162749031,0.015178189,0.08929951
0.06574818,0.162855512,0.015183902,0.089398873
0.065754807,0.162962257,0.015189643,0.089498687
0.065761755,0.163069268,0.015195411,0.089598949
0.065769027,0.163176545,0.015201204,0.089699658
0.065776622,0.163284086,0.015207024,0.089800809
0.065784541,0.163391891,0.015212869,0.089902401
0.065792786,0.163499961,0.015218739,0.090004431
0.065801355,0.163608294,0.015224634,0.090106894
0.065810251,0.163716891,0.015230554,0.090209787
0.065819472,0.163825751,0.015236497,0.090313108
0.065829019,0.163934873,0.015242465,0.090416854
0.065838893,0.164044256,0.015248456,0.090521023
0.065849092,0.1641539,0.015254471,0.090625613
0.065859618,0.164263803,0.015260509,0.090730623
0.065870469,0.164373963,0.01526657,0.090836049
0.065881645,0.164484378,0.015272653,0.090941889
0.065893145,0.164595047,0.015278759,0.091048141
0.065904969,0.164705966,0.015284886,0.091154803
0.065917116,0.164817134,0.015291034,0.091261871
0.065929585,0.164928548,0.015297203,0.091369343
0.065942375,0.165040205,0.015303393,0.091477216
0.065955485,0.165152101,0.015309603,0.091585488
0.065968914,0.165264234,0.015315834,0.091694156
0.065982662,0.165376599,0.015322085,0.091803216
0.065996727,0.165489192,0.015328355,0.091912665
0.066011108,0.16560201,0.015334645,0.092022498
0.066025804,0.165715047,0.015340954,0.092132712
0.066040815,0.165828299,0.015347281,0.092243303
0.066056137,0.165941761,0.015353627,0.092354268
0.066071771,0.166055428,0.01535999,0.092465602
0.066087715,0.166169296,0.01536637,0.092577305
0.066103968,0.166283361,0.015372767,0.092689374
0.066120531,0.166397616,0.01537918,0.092801808
0.066137402,0.166512056,0.015385608,0.092914605
0.066154581,0.166626676,0.015392052,0.093027764
0.06617207,0.166741472,0.015398511,0.093141284
0.066189866,0.166856436,0.015404983,0.093255164
0.06620797,0.166971564,0.01541147,0.093369404
0.066226383,0.16708685,0.01541797,0.093484003
0.066245103,0.167202288,0.015424484,0.093598962
0.066264131,0.167317872,0.01543101,0.093714281
0.066283466,0.167433596,0.015437548,0.093829962
0.066303109,0.167549455,0.015444099,0.093946007
0.066323059,0.167665442,0.015450662,0.094062419
0.066343317,0.167781551,0.015457236,0.094179199
0.066363884,0.167897776,0.015463822,0.094296351
0.06638476,0.168014112,0.015470419,0.094413875
0.066405947,0.16813055,0.015477026,0.094531773
0.066427445,0.168247085,0.015483644,0.094650048
0.066449256,0.168363711,0.015490271,0.0947687
0.066471381,0.16848042,0.015496908,0.09488773
0.066493821,0.168597209,0.015503553,0.095007139
0.066516578,0.16871407,0.015510208,0.095126928
0.066539654,0.168831001,0.01551687,0.095247097
0.066563051,0.168947997,0.015523541,0.095367648
0.066586772,0.169065055,0.015530219,0.095488579
0.066610818,0.169182173,0.015536905,0.095609892
0.066635193,0.169299348,0.015543599,0.095731588
0.066659898,0.169416579,0.0155503,0.095853667
0.066684936,0.169533865,0.015557008,0.095976131
0.066710309,0.169651208,0.015563723,0.096098979
0.066736019,0.169768606,0.015570445,0.096222212
0.066762071,0.169886063,0.015577173,0.09634583
0.066788465,0.17000358,0.015583906,0.096469834
0.066815205,0.17012116,0.015590645,0.096594223
0.066842295,0.170238807,0.01559739,0.096718996
0.066869736,0.170356524,0.015604139,0.096844154
0.066897532,0.170474314,0.015610893,0.096969697
0.066925684,0.170592179,0.015617652,0.097095623
0.066954197,0.170710122,0.015624415,0.097221934
0.06698307,0.170828146,0.015631183,0.097348628
0.067012308,0.170946255,0.015637956,0.097475706
0.067041912,0.171064449,0.015644734,0.097603168
0.067071883,0.171182732,0.015651516,0.097731014
0.067102224,0.171301105,0.015658304,0.097859243
0.067132935,0.171419571,0.015665096,0.097987857
0.067164019,0.171538133,0.015671894,0.098116853
0.067195476,0.17165679,0.015678695,0.098246232
0.067227307,0.171775546,0.015685501,0.098375995
0.067259513,0.171894402,0.015692311,0.098506142
0.067292096,0.172013358,0.015699125,0.098636674
0.067325055,0.172132416,0.015705943,0.098767594
0.067358391,0.172251576,0.015712764,0.098898902
0.067392107,0.172370839,0.01571959,0.099030602
0.067426201,0.172490206,0.01572642,0.099162697
0.067460677,0.172609677,0.015733255,0.099295189
0.067495533,0.172729255,0.015740094,0.099428082
0.067530772,0.172848942,0.015746937,0.099561377
0.067566395,0.172968743,0.015753786,0.099695079
0.067602401,0.173088661,0.015760639,0.099829188
0.067638792,0.1732087,0.015767497,0.099963708
0.067675568,0.173328864,0.015774361,0.100098639
0.067712728,0.173449157,0.015781229,0.100233985
0.067750275,0.173569583,0.015788103,0.100369745
0.067788207,0.173690146,0.015794983,0.100505921
0.067826525,0.173810849,0.015801868,0.100642515
0.06786523,0.173931697,0.015808759,0.100779526
0.067904321,0.174052692,0.015815657,0.100916954
0.067943799,0.174173837,0.01582256,0.1010548
0.067983664,0.174295134,0.01582947,0.101193064
0.068023916,0.174416585,0.015836386,0.101331746
0.068064555,0.174538192,0.015843308,0.101470845
0.068105581,0.174659956,0.015850237,0.101610362
0.068146993,0.174781879,0.015857172,0.101750298
0.068188791,0.174903962,0.015864114,0.101890652
0.068230973,0.175026204,0.015871061,0.102031424
0.06827354,0.175148606,0.015878015,0.102172613
0.06831649,0.175271167,0.015884974,0.102314218
0.068359821,0.175393887,0.015891939,0.102456238
0.068403533,0.175516765,0.015898909,0.102598672
0.068447624,0.175639799,0.015905884,0.102741517
0.068492093,0.175762988,0.015912865,0.102884772
0.068536938,0.175886331,0.015919851,0.103028436
0.068582158,0.176009826,0.015926842,0.103172506
0.06862775,0.176133472,0.015933839,0.10331698
0.068673712,0.176257266,0.01594084,0.103461855
0.068720043,0.176381205,0.015947847,0.103607128
0.06876674,0.176505288,0.015954858,0.103752797
0.0688138,0.176629512,0.015961874,0.10389886
0.068861222,0.176753873,0.015968895,0.104045313
0.068909003,0.176878369,0.015975919,0.104192155
0.06895714,0.177002995,0.015982947,0.104339383
0.06900563,0.177127748,0.015989979,0.104486993
0.069054472,0.177252624,0.015997015,0.104634982
0.069103663,0.177377619,0.016004053,0.104783346
0.0691532,0.177502726,0.016011095,0.104932081
0.069203083,0.177627943,0.016018139,0.105081182
0.069253309,0.177753262,0.016025185,0.105230645
0.069303877,0.17787868,0.016032232,0.105380464
0.069354787,0.17800419,0.016039282,0.105530635
0.069406036,0.178129787,0.016046332,0.105681153
0.069457625,0.178255464,0.016053383,0.10583201
0.069509553,0.178381216,0.016060435,0.105983203
0.06956182,0.178507037,0.016067486,0.106134724
0.069614423,0.17863292,0.016074538,0.106286569
0.069667364,0.178758861,0.016081589,0.106438729
0.069720641,0.178884855,0.01608864,0.106591201
0.069774254,0.179010897,0.016095689,0.106743977
0.069828203,0.179136981,0.016102736,0.106897052
0.069882486,0.179263104,0.016109782,0.107050418
0.069937104,0.17938926,0.016116825,0.10720407
0.069992055,0.179515445,0.016123864,0.107358
0.070047339,0.179641656,0.0161309,0.107512203
0.070102954,0.179767888,0.016137931,0.107666672
0.0701589,0.179894136,0.016144958,0.107821402
0.070215176,0.180020398,0.016151979,0.107976387
0.070271781,0.180146671,0.016158994,0.10813162
0.070328713,0.180272952,0.016166002,0.108287094
0.070385972,0.180399239,0.016173003,0.108442803
0.070443557,0.180525532,0.016179995,0.10859874
0.070501466,0.180651832,0.016186978,0.108754897
0.070559698,0.18077814,0.016193952,0.108911266
0.070618254,0.180904458,0.016200915,0.109067841
0.070677133,0.181030788,0.016207867,0.109224612
0.070736333,0.181157132,0.016214807,0.109381572
0.070795855,0.181283494,0.016221735,0.109538711
0.070855698,0.181409875,0.016228651,0.109696022
0.07091586,0.181536278,0.016235552,0.109853497
0.070976342,0.181662707,0.01624244,0.110011125
0.071037142,0.181789165,0.016249314,0.110168901
0.071098258,0.181915653,0.016256172,0.110326814
0.071159691,0.182042175,0.016263015,0.110484858
0.071221438,0.182168732,0.016269843,0.110643024
0.071283499,0.182295326,0.016276654,0.110801304
0.071345871,0.18242196,0.016283448,0.11095969
0.071408555,0.182548636,0.016290226,0.111118175
0.071471547,0.182675354,0.016296985,0.111276749
0.071534847,0.182802116,0.016303727,0.111435406
0.071598452,0.182928924,0.016310451,0.111594138
0.071662359,0.183055779,0.016317157,0.111752936
0.071726568,0.183182681,0.016323845,0.111911793
0.071791075,0.183309632,0.016330514,0.1120707
0.071855878,0.183436632,0.016337165,0.11222965
0.071920975,0.183563683,0.016343797,0.112388634
0.071986363,0.183690783,0.016350411,0.112547645
0.07205204,0.183817935,0.016357005,0.112706673
0.072118003,0.183945137,0.01636358,0.112865714
0.072184249,0.184072389,0.016370136,0.113024759
0.072250775,0.184199691,0.016376673,0.113183804
0.072317579,0.184327043,0.016383191,0.113342843
0.072384658,0.184454445,0.016389691,0.113501873
0.07245201,0.184581898,0.016396171,0.113660888
0.072519631,0.184709402,0.016402634,0.113819884
0.072587519,0.184836956,0.016409078,0.113978857
0.072655672,0.184964561,0.016415504,0.114137803
0.072724087,0.185092215,0.016421913,0.114296719
0.072792761,0.185219917,0.016428303,0.114455601
0.072861694,0.185347666,0.016434676,0.114614447
0.072930881,0.18547546,0.016441032,0.114773253
0.073000323,0.185603298,0.016447371,0.114932016
0.073070015,0.185731179,0.016453692,0.115090732
0.073139957,0.1858591,0.016459995,0.115249397
0.073210146,0.185987059,0.016466281,0.115408008
0.07328058,0.186115055,0.01647255,0.115566561
0.073351256,0.186243087,0.016478801,0.115725053
0.073422174,0.186371152,0.016485034,0.115883479
0.07349333,0.18649925,0.01649125,0.116041835
0.073564724,0.186627379,0.016497448,0.11620012
0.073636354,0.186755539,0.016503629,0.116358328
0.07370822,0.186883728,0.016509793,0.116516457
0.07378032,0.187011946,0.016515939,0.116674504
0.073852654,0.187140193,0.016522068,0.116832465
0.073925221,0.187268467,0.016528179,0.116990336
0.073998021,0.187396768,0.016534272,0.117148114
0.074071052,0.187525093,0.016540347,0.117305794
0.074144314,0.187653441,0.016546404,0.117463374
0.074217806,0.18778181,0.016552443,0.11762085
0.074291529,0.187910196,0.016558464,0.117778219
0.074365481,0.188038597,0.016564467,0.117935478
0.074439662,0.188167009,0.016570452,0.118092626
0.074514073,0.18829543,0.016576419,0.118249659
0.074588711,0.188423855,0.016582367,0.118406575
0.074663577,0.188552282,0.016588298,0.118563371
0.074738669,0.188680705,0.01659421,0.118720042
0.074813986,0.18880912,0.016600103,0.118876584
0.074889528,0.188937524,0.016605978,0.119032995
0.074965292,0.189065911,0.016611833,0.119189268
0.075041277,0.189194278,0.016617668,0.119345401
0.075117483,0.189322619,0.016623483,0.119501389
0.075193906,0.189450931,0.016629278,0.119657229
0.075270546,0.18957921,0.016635053,0.119812917
0.0753474,0.189707452,0.016640807,0.119968449
0.075424467,0.189835655,0.01664654,0.120123824
0.075501744,0.189963812,0.016652253,0.120279037
0.07557923,0.190091921,0.016657945,0.120434085
0.075656924,0.190219978,0.016663617,0.120588965
0.075734823,0.190347977,0.016669267,0.120743676
0.075812927,0.190475916,0.016674897,0.120898213
0.075891233,0.190603788,0.016680505,0.121052574
0.075969741,0.19073159,0.016686092,0.121206754
0.076048447,0.190859316,0.016691658,0.12136075
0.07612735,0.190986961,0.016697203,0.121514558
0.076206448,0.191114519,0.016702727,0.121668173
0.07628574,0.191241986,0.01670823,0.12182159
0.076365222,0.191369355,0.016713711,0.121974804
0.076444892,0.19149662,0.016719172,0.122127811
0.076524748,0.191623774,0.016724611,0.122280607
0.076604788,0.191750812,0.01673003,0.122433186
0.076685009,0.191877728,0.016735427,0.122585544
0.07676541,0.192004516,0.016740802,0.122737676
0.076845986,0.192131173,0.016746156,0.122889576
0.076926737,0.192257692,0.016751489,0.123041239
0.07700766,0.192384072,0.0167568,0.123192659
0.077088753,0.192510307,0.016762088,0.123343832
0.077170014,0.192636395,0.016767355,0.123494751
0.07725144,0.192762333,0.0167726,0.123645411
0.077333031,0.19288812,0.016777823,0.123795807
0.077414784,0.193013752,0.016783024,0.123945933
0.077496698,0.193139227,0.016788202,0.124095784
0.077578771,0.193264541,0.016793359,0.124245352
0.077661002,0.193389694,0.016798494,0.124394633
0.077743389,0.193514682,0.016803607,0.12454362
0.077825932,0.193639502,0.016808697,0.124692306
0.07790863,0.193764153,0.016813766,0.124840686
0.077991481,0.193888633,0.016818812,0.124988754
0.078074486,0.194012938,0.016823836,0.125136504
0.078157642,0.194137067,0.016828837,0.125283931
0.078240948,0.194261018,0.016833816,0.12543103
0.078324405,0.194384788,0.016838771,0.125577795
0.07840801,0.194508376,0.016843704,0.125724222
0.078491762,0.19463178,0.016848613,0.125870305
0.07857566,0.194754997,0.0168535,0.126016039
0.078659703,0.194878025,0.016858363,0.126161418
0.078743888,0.195000863,0.016863203,0.126306437
0.078828215,0.195123508,0.01686802,0.126451091
0.078912681,0.195245958,0.016872814,0.126595375
0.078997286,0.195368212,0.016877585,0.126739286
0.079082026,0.195490267,0.016882334,0.126882818
0.079166901,0.195612124,0.01688706,0.127025968
0.079251907,0.19573378,0.016891764,0.12716873
0.079337043,0.195855235,0.016896446,0.1273111
0.079422307,0.195976489,0.016901106,0.127453072
0.079507695,0.196097539,0.016905744,0.127594641
0.079593206,0.196218384,0.016910361,0.127735802
0.079678836,0.196339024,0.016914956,0.127876548
0.079764583,0.196459457,0.016919529,0.128016875
0.079850443,0.19657968,0.01692408,0.128156776
0.079936413,0.196699692,0.016928609,0.128296247
0.080022492,0.196819489,0.016933117,0.128435282
0.080108674,0.196939071,0.016937602,0.128573878
0.080194958,0.197058433,0.016942065,0.128712031
0.08028134,0.197177574,0.016946506,0.128849736
0.080367819,0.197296492,0.016950924,0.12898699
0.08045439,0.197415182,0.016955319,0.129123788
0.080541051,0.197533643,0.016959692,0.129260126
0.0806278,0.197651869,0.016964041,0.129396
0.080714635,0.197769859,0.016968367,0.129531404
0.080801553,0.197887607,0.01697267,0.129666333
0.080888552,0.198005111,0.01697695,0.129800783
0.080975631,0.198122366,0.016981206,0.129934747
0.081062785,0.19823937,0.016985438,0.130068219
0.081150014,0.198356118,0.016989646,0.130201195
0.081237314,0.198472608,0.016993831,0.130333669
0.081324683,0.198588835,0.016997992,0.130465635
0.081412118,0.198704797,0.017002129,0.130597089
0.081499616,0.198820491,0.017006242,0.130728025
0.081587175,0.198935913,0.017010332,0.130858438
0.08167479,0.199051059,0.017014398,0.130988324
0.081762459,0.199165927,0.017018439,0.131117678
0.08185018,0.199280512,0.017022456,0.131246494
0.081937947,0.199394812,0.017026449,0.131374767
0.082025759,0.199508823,0.017030417,0.131502493
0.082113611,0.199622542,0.01703436,0.131629667
0.0822015,0.199735965,0.017038278,0.131756284
0.082289422,0.19984909,0.017042171,0.131882338
0.082377374,0.199961912,0.017046038,0.132007824
0.082465353,0.200074429,0.01704988,0.132132737
0.082553354,0.200186636,0.017053696,0.132257073
0.082641374,0.200298529,0.017057486,0.132380825
0.08272941,0.200410104,0.017061249,0.132503989
0.082817456,0.200521356,0.017064986,0.13262656
0.082905511,0.200632281,0.017068696,0.132748535
0.082993569,0.200742874,0.017072379,0.13286991
0.083081627,0.200853128,0.017076034,0.13299068
0.083169681,0.20096304,0.017079662,0.133110842
0.083257728,0.201072605,0.017083262,0.133230393
0.083345763,0.201181818,0.017086834,0.133349328
0.083433782,0.201290673,0.017090378,0.133467645
0.083521782,0.201399165,0.017093893,0.133585338
0.083609757,0.201507291,0.017097381,0.133702404
0.083697704,0.201615045,0.01710084,0.13381884
0.083785619,0.201722422,0.01710427,0.133934642
0.083873497,0.201829418,0.017107672,0.134049806
0.083961333,0.201936029,0.017111046,0.134164328
0.084049124,0.202042251,0.017114391,0.134278206
0.084136864,0.202148081,0.017117708,0.134391437
0.084224551,0.202253515,0.017120998,0.134504017
0.084312181,0.202358551,0.017124259,0.134615944
0.084399749,0.202463185,0.017127492,0.134727213
0.084487253,0.202567416,0.017130698,0.13483782
0.084574691,0.202671242,0.017133876,0.134947762
0.08466206,0.202774662,0.017137026,0.135057035
0.084749358,0.202877676,0.017140149,0.135165634
0.084836581,0.202980285,0.017143245,0.135273556
0.084923728,0.203082487,0.017146314,0.135380796
0.085010795,0.203184282,0.017149357,0.135487352
0.085097779,0.203285672,0.017152373,0.135593218
0.085184678,0.203386654,0.017155363,0.135698391
0.085271489,0.203487231,0.017158327,0.135802867
0.085358208,0.203587402,0.017161265,0.135906642
0.085444832,0.203687169,0.017164178,0.136009711
0.085531359,0.203786533,0.017167065,0.136112071
0.085617786,0.203885497,0.017169927,0.136213716
0.08570411,0.20398406,0.017172765,0.136314644
0.085790328,0.204082226,0.017175576,0.13641485
0.085876437,0.204179996,0.017178363,0.13651433
0.085962434,0.204277372,0.017181125,0.136613079
0.086048317,0.204374356,0.017183861,0.136711095
0.086134081,0.204470951,0.017186572,0.136808372
0.086219725,0.204567159,0.017189257,0.136904905
0.086305245,0.204662985,0.017191916,0.137000691
0.086390638,0.204758433,0.017194549,0.137095724
0.086475901,0.204853507,0.017197156,0.13719
0.086561032,0.204948211,0.017199737,0.137283516
0.086646027,0.205042552,0.017202291,0.137376266
0.086730883,0.205136532,0.01720482,0.137468248
0.086815597,0.205230156,0.017207322,0.137559457
0.086900166,0.205323429,0.017209799,0.137649891
0.086984585,0.205416353,0.01721225,0.137739546
0.087068853,0.205508934,0.017214675,0.137828419
0.087152964,0.205601172,0.017217075,0.13791651
0.087236917,0.205693073,0.017219449,0.138003815
0.087320706,0.205784637,0.017221798,0.138090334
0.08740433,0.20587587,0.017224121,0.138176064
0.087487783,0.205966771,0.017226419,0.138261005
0.087571063,0.206057345,0.017228692,0.138345156
0.087654167,0.206147593,0.017230939,0.138428515
0.08773709,0.206237517,0.01723316,0.138511081
0.087819829,0.20632712,0.017235356,0.138592854
0.087902381,0.206416402,0.017237527,0.138673831
0.087984743,0.206505365,0.017239671,0.138754012
0.088066911,0.206594011,0.01724179,0.138833395
0.088148882,0.206682339,0.017243882,0.138911979
0.088230652,0.206770352,0.017245949,0.138989764
0.088312219,0.20685805,0.01724799,0.139066749
0.088393581,0.206945435,0.017250005,0.139142933
0.088474735,0.207032506,0.017251994,0.139218316
0.08855568,0.207119266,0.017253957,0.139292899
0.088636415,0.207205715,0.017255893,0.139366682
0.088716938,0.207291852,0.017257802,0.139439667
0.088797248,0.20737768,0.017259685,0.139511856
0.088877344,0.207463197,0.01726154,0.13958325
0.088957225,0.207548405,0.017263368,0.139653849
0.089036889,0.207633303,0.017265169,0.139723655
0.089116335,0.207717892,0.017266942,0.13979267
0.089195562,0.20780217,0.017268688,0.139860894
0.089274568,0.207886139,0.017270406,0.13992833
0.089353352,0.207969797,0.017272096,0.13999498
0.089431912,0.208053143,0.017273758,0.140060845
0.089510247,0.208136177,0.017275392,0.140125929
0.089588355,0.208218897,0.017276998,0.140190233
0.089666233,0.208301302,0.017278576,0.140253759
0.089743881,0.208383391,0.017280126,0.140316511
0.089821296,0.208465162,0.017281648,0.14037849
0.089898477,0.208546615,0.017283141,0.140439698
0.089975421,0.208627748,0.017284605,0.140500137
0.090052127,0.208708558,0.017286041,0.140559811
0.090128593,0.208789044,0.017287448,0.140618721
0.090204816,0.208869203,0.017288826,0.140676872
0.090280795,0.208949033,0.017290174,0.140734267
0.090356526,0.209028532,0.017291493,0.140790909
0.09043201,0.209107695,0.017292782,0.1408468
0.090507242,0.209186521,0.017294041,0.140901945
0.090582222,0.209265007,0.017295271,0.140956345
0.090656947,0.209343149,0.017296471,0.141010005
0.090731417,0.209420945,0.01729764,0.141062927
0.090805628,0.209498392,0.017298779,0.141115114
0.090879581,0.209575487,0.017299887,0.141166571
0.090953272,0.209652227,0.017300964,0.1412173
0.0910267,0.209728611,0.017302009,0.141267306
0.091099864,0.209804636,0.017303022,0.141316591
0.09117276,0.2098803,0.017304003,0.141365161
0.091245388,0.209955603,0.017304951,0.141413019
0.091317745,0.210030545,0.017305867,0.14146017
0.09138983,0.210105125,0.017306749,0.141506619
0.091461641,0.210179346,0.017307599,0.141552371
0.091533177,0.210253207,0.017308414,0.141597431
0.091604437,0.210326711,0.017309197,0.141641803
0.091675419,0.210399857,0.017309946,0.141685492
0.091746124,0.210472649,0.01731066,0.141728501
0.091816549,0.210545087,0.017311341,0.141770836
0.091886695,0.210617174,0.017311988,0.141812501
0.09195656,0.210688911,0.0173126,0.1418535
0.092026143,0.210760302,0.017313179,0.141893839
0.092095443,0.210831347,0.017313722,0.141933522
0.092164458,0.210902049,0.017314231,0.141972553
0.092233188,0.21097241,0.017314705,0.142010937
0.092301631,0.211042432,0.017315144,0.142048679
0.092369785,0.211112118,0.017315548,0.142085783
0.092437649,0.211181469,0.017315916,0.142122252
0.092505222,0.211250487,0.017316249,0.142158091
0.092572503,0.211319173,0.017316546,0.142193302
0.092639491,0.21138753,0.017316808,0.142227891
0.092706185,0.211455559,0.017317035,0.142261859
0.092772585,0.211523261,0.017317226,0.142295212
0.092838691,0.211590638,0.017317383,0.142327953
0.092904503,0.211657691,0.017317505,0.142360088
0.092970021,0.211724421,0.017317594,0.142391619
0.093035247,0.211790829,0.017317649,0.142422553
0.09310018,0.211856916,0.017317671,0.142452893
0.09316482,0.211922682,0.017317662,0.142482643
0.093229169,0.211988129,0.01731762,0.142511807
0.093293225,0.212053256,0.017317547,0.142540389
0.09335699,0.212118064,0.017317444,0.142568392
0.093420463,0.212182553,0.017317309,0.142595819
0.093483645,0.212246723,0.017317145,0.142622673
0.093546536,0.212310574,0.01731695,0.142648958
0.093609134,0.212374106,0.017316726,0.142674674
0.093671441,0.212437319,0.017316472,0.142699825
0.093733456,0.212500212,0.017316188,0.142724414
0.093795178,0.212562785,0.017315875,0.142748442
0.093856609,0.212625039,0.017315533,0.142771911
0.093917748,0.212686974,0.017315162,0.142794823
0.093978596,0.212748589,0.017314763,0.14281718
0.094039154,0.212809884,0.017314336,0.142838983
0.094099423,0.21287086,0.01731388,0.142860233
0.094159402,0.212931515,0.017313397,0.142880933
0.094219092,0.212991851,0.017312887,0.142901084
0.094278494,0.213051867,0.017312348,0.142920689
0.094337608,0.213111562,0.017311783,0.14293975
0.094396435,0.213170936,0.01731119,0.142958269
0.094454975,0.21322999,0.01731057,0.142976249
0.09451323,0.213288723,0.017309923,0.142993691
0.094571201,0.213347137,0.017309247,0.143010598
0.094628889,0.213405233,0.017308545,0.14302697
0.094686297,0.213463012,0.017307814,0.143042809
0.094743426,0.213520476,0.017307055,0.143058116
0.094800278,0.213577627,0.017306268,0.143072892
0.094856855,0.213634465,0.017305451,0.143087138
0.094913158,0.213690993,0.017304606,0.143100854
0.09496919,0.213747211,0.017303731,0.14311404
0.095024952,0.213803123,0.017302827,0.143126698
0.095080445,0.21385873,0.017301892,0.14313883
0.095135671,0.213914035,0.017300927,0.143150437
0.095190632,0.213969039,0.017299932,0.143161522
0.095245328,0.214023747,0.017298906,0.143172088
0.095299762,0.21407816,0.017297849,0.143182135
0.095353935,0.214132282,0.017296761,0.143191668
0.095407849,0.214186116,0.017295641,0.143200686
0.095461506,0.214239665,0.017294489,0.143209194
0.095514907,0.214292932,0.017293304,0.143217191
0.095568055,0.214345921,0.017292087,0.143224682
0.095620951,0.214398631,0.017290837,0.143231668
0.095673597,0.214451067,0.017289554,0.143238153
0.095725995,0.214503229,0.017288238,0.143244139
0.095778149,0.214555118,0.017286888,0.143249629
0.09583006,0.214606737,0.017285504,0.143254625
0.095881731,0.214658085,0.017284087,0.143259132
0.095933165,0.214709165,0.017282636,0.14326315
0.095984365,0.214759977,0.017281152,0.143266682
0.096035333,0.214810521,0.017279633,0.14326973
0.096086072,0.214860798,0.017278082,0.143272296
0.096136584,0.214910809,0.017276496,0.143274382
0.096186873,0.214960553,0.017274877,0.143275989
0.09623694,0.21501003,0.017273224,0.143277118
0.096286788,0.215059242,0.017271538,0.143277769
0.096336419,0.215108189,0.017269817,0.143277945
0.096385835,0.215156874,0.017268063,0.143277644
0.096435038,0.215205298,0.017266276,0.143276868
0.09648403,0.215253465,0.017264454,0.143275616
0.096532813,0.215301379,0.017262599,0.143273889
0.09658139,0.215349044,0.017260709,0.143271685
0.096629762,0.215396465,0.017258786,0.143269006
0.096677931,0.215443648,0.017256829,0.14326585
0.0967259,0.215490595,0.017254839,0.143262217
0.096773669,0.215537312,0.017252815,0.143258108
0.096821241,0.215583803,0.017250758,0.14325352
0.096868618,0.215630072,0.017248668,0.143248454
0.096915799,0.215676123,0.017246545,0.143242908
0.096962788,0.215721959,0.017244388,0.143236881
0.097009584,0.215767584,0.017242198,0.14323037
0.097056188,0.215813001,0.017239975,0.143223376
0.097102602,0.215858212,0.017237719,0.143215895
0.097148826,0.21590322,0.017235429,0.143207926
0.097194861,0.215948028,0.017233106,0.143199467
0.097240708,0.215992638,0.01723075,0.143190519
0.097286366,0.216037053,0.017228361,0.143181079
0.097331835,0.216081274,0.017225938,0.143171147
0.097377117,0.216125305,0.017223482,0.143160722
0.097422212,0.216169146,0.017220992,0.143149804
0.097467119,0.216212801,0.017218469,0.143138393
0.097511841,0.21625627,0.017215911,0.143126487
0.097556377,0.216299555,0.01721332,0.143114086
0.097600729,0.216342656,0.017210695,0.143101189
0.097644897,0.216385575,0.017208036,0.143087796
0.097688881,0.216428312,0.017205343,0.143073906
0.097732683,0.216470869,0.017202614,0.143059519
0.097776302,0.216513247,0.017199852,0.143044633
0.097819739,0.21655545,0.017197054,0.143029249
0.097862996,0.21659748,0.017194222,0.143013366
0.097906072,0.21663934,0.017191354,0.142996984
0.097948969,0.216681032,0.017188451,0.142980103
0.097991687,0.216722559,0.017185513,0.142962723
0.098034228,0.216763924,0.017182539,0.142944844
0.09807659,0.216805129,0.017179529,0.142926466
0.098118777,0.216846176,0.017176482,0.142907589
0.098160787,0.216887065,0.017173399,0.142888215
0.098202623,0.2169278,0.01717028,0.142868342
0.098244284,0.21696838,0.017167123,0.142847972
0.098285773,0.217008807,0.017163928,0.142827103
0.098327088,0.217049083,0.017160696,0.142805735
0.098368232,0.217089207,0.017157426,0.142783868
0.098409205,0.217129181,0.017154118,0.142761501
0.098450006,0.217169005,0.017150773,0.142738634
0.098490638,0.21720868,0.01714739,0.142715267
0.098531099,0.217248206,0.01714397,0.1426914
0.098571391,0.217287585,0.017140513,0.142667033
0.098611513,0.217326816,0.01713702,0.142642166
0.098651466,0.217365899,0.017133491,0.142616798
0.098691251,0.217404836,0.017129927,0.142590929
0.098730866,0.217443627,0.017126328,0.142564558
0.098770315,0.217482272,0.017122694,0.142537686
0.098809596,0.217520772,0.017119026,0.142510311
0.098848711,0.217559128,0.017115324,0.142482433
0.098887661,0.21759734,0.017111588,0.142454053
0.098926445,0.217635408,0.017107818,0.14242517
0.098965066,0.217673333,0.017104015,0.142395787
0.099003524,0.217711114,0.01710018,0.142365904
0.099041818,0.217748752,0.017096312,0.142335524
0.099079951,0.217786246,0.017092412,0.142304646
0.099117923,0.217823598,0.01708848,0.142273274
0.099155734,0.217860808,0.017084516,0.142241409
0.099193387,0.217897877,0.017080522,0.142209054
0.099230881,0.217934807,0.017076496,0.14217621
0.099268219,0.217971601,0.01707244,0.14214288
0.099305401,0.218008265,0.017068353,0.142109066
0.099342428,0.218044801,0.017064237,0.14207477
0.099379303,0.218081215,0.017060091,0.142039995
0.099416025,0.218117512,0.017055917,0.142004744
0.099452595,0.218153697,0.017051714,0.14196902
0.099489016,0.218189773,0.017047482,0.141932827
0.099525287,0.218225747,0.017043222,0.14189617
0.099561409,0.218261623,0.017038935,0.141859053
0.099597384,0.218297406,0.017034619,0.14182148
0.099633213,0.218333102,0.017030276,0.141783456
0.099668896,0.218368715,0.017025905,0.141744983
0.099704434,0.218404249,0.017021507,0.141706066
0.099739829,0.218439709,0.017017081,0.141666709
0.09977508,0.218475098,0.017012628,0.141626914
0.099810188,0.21851042,0.017008148,0.141586685
0.099845155,0.218545679,0.01700364,0.141546026
0.09987998,0.218580877,0.016999106,0.141504941
0.099914665,0.218616018,0.016994544,0.141463433
0.099949209,0.218651104,0.016989955,0.141421505
0.099983613,0.218686138,0.01698534,0.141379162
0.100017877,0.218721122,0.016980698,0.141336407
0.100052002,0.218756057,0.016976029,0.141293243
0.100085987,0.218790946,0.016971334,0.141249672
0.100119834,0.218825788,0.016966612,0.141205698
0.100153542,0.218860586,0.016961863,0.141161323
0.100187112,0.21889534,0.016957088,0.141116551
0.100220543,0.218930049,0.016952286,0.141071385
0.100253836,0.218964716,0.016947458,0.141025826
0.10028699,0.218999339,0.016942603,0.140979878
0.100320006,0.219033918,0.016937722,0.140933542
0.100352884,0.219068454,0.016932816,0.140886821
0.100385624,0.219102944,0.016927883,0.140839715
0.100418227,0.219137388,0.016922924,0.140792228
0.100450691,0.219171785,0.01691794,0.140744361
0.100483018,0.219206133,0.016912929,0.140696117
0.100515206,0.219240429,0.016907892,0.140647499
0.100547256,0.219274671,0.016902828,0.140598511
0.100579166,0.219308858,0.016897739,0.140549155
0.100610937,0.219342985,0.016892623,0.140499436
0.100642568,0.219377051,0.01688748,0.140449356
0.100674058,0.219411052,0.016882311,0.140398917
0.100705407,0.219444986,0.016877115,0.140348121
0.100736615,0.219478848,0.016871892,0.140296972
0.100767682,0.219512635,0.016866642,0.140245473
0.100798606,0.219546344,0.016861366,0.140193624
0.100829387,0.219579971,0.016856063,0.14014143
0.100860026,0.219613515,0.016850732,0.140088891
0.100890521,0.219646973,0.016845375,0.140036011
0.100920872,0.219680342,0.016839991,0.13998279
0.10095108,0.219713621,0.016834579,0.139929231
0.100981143,0.219746808,0.01682914,0.139875335
0.101011062,0.219779902,0.016823673,0.139821107
0.101040838,0.219812901,0.016818178,0.139766546
0.10107047,0.219845804,0.016812656,0.139711657
0.101099959,0.21987861,0.016807106,0.139656441
0.101129304,0.219911321,0.016801528,0.1396009
0.101158505,0.219943935,0.016795922,0.139545038
0.101187562,0.219976455,0.016790289,0.139488856
0.101216476,0.220008882,0.016784627,0.139432359
0.101245246,0.220041216,0.016778938,0.139375548
0.101273872,0.220073459,0.016773221,0.139318429
0.101302353,0.220105612,0.016767476,0.139261004
0.10133069,0.220137675,0.016761704,0.139203277
0.101358882,0.22016965,0.016755904,0.139145253
0.101386928,0.220201536,0.016750077,0.139086936
0.101414828,0.220233336,0.016744223,0.13902833
0.10144258,0.22026505,0.016738342,0.13896944
0.101470183,0.220296681,0.016732434,0.13891027
0.101497637,0.22032823,0.016726498,0.138850825
0.101524941,0.220359698,0.016720536,0.138791108
0.101552094,0.220391087,0.016714547,0.138731124
0.101579096,0.220422398,0.016708532,0.138670878
0.101605947,0.220453632,0.016702491,0.138610371
0.101632645,0.220484791,0.016696424,0.13854961
0.10165919,0.220515875,0.016690331,0.138488596
0.101685581,0.220546885,0.016684212,0.138427334
0.101711818,0.220577821,0.016678069,0.138365826
0.101737898,0.220608683,0.016671901,0.138304076
0.101763822,0.220639472,0.016665708,0.138242087
0.101789587,0.220670186,0.016659491,0.138179862
0.101815193,0.220700827,0.016653251,0.138117405
0.101840639,0.220731393,0.016646988,0.138054721
0.101865924,0.220761883,0.016640702,0.137991815
0.101891046,0.220792298,0.016634394,0.137928694
0.101916005,0.220822637,0.016628064,0.137865362
0.101940798,0.220852898,0.016621712,0.137801826
0.101965425,0.220883082,0.016615338,0.137738091
0.101989884,0.220913188,0.016608943,0.137674161
0.102014174,0.220943215,0.016602527,0.137610041
0.102038294,0.220973164,0.01659609,0.137545738
0.102062241,0.221003035,0.016589631,0.137481254
0.102086014,0.221032828,0.016583152,0.137416595
0.102109613,0.221062544,0.016576651,0.137351765
0.102133036,0.221092183,0.01657013,0.137286767
0.102156283,0.221121746,0.016563588,0.137221607
0.102179353,0.221151233,0.016557025,0.137156287
0.102202244,0.221180643,0.016550442,0.137090813
0.102224956,0.221209977,0.016543838,0.137025189
0.102247487,0.221239234,0.016537214,0.136959417
0.102269836,0.221268415,0.01653057,0.136893502
0.102292003,0.221297521,0.016523906,0.136827446
0.102313984,0.221326551,0.016517223,0.136761254
0.102335779,0.221355507,0.016510521,0.136694927
0.102357387,0.221384388,0.016503801,0.13662847
0.102378805,0.221413194,0.016497062,0.136561885
0.102400031,0.221441924,0.016490306,0.136495177
0.102421064,0.221470578,0.016483534,0.136428348
0.102441901,0.221499155,0.016476745,0.136361402
0.102462541,0.221527654,0.01646994,0.136294343
0.102482982,0.221556074,0.01646312,0.136227173
0.102503222,0.221584414,0.016456285,0.136159894
0.102523258,0.221612672,0.016449436,0.136092509
0.102543089,0.221640848,0.016442573,0.136025021
0.102562713,0.22166894,0.016435696,0.135957432
0.102582126,0.221696947,0.016428806,0.135889744
0.102601326,0.221724868,0.016421902,0.13582196
0.102620312,0.221752701,0.016414987,0.135754083
0.10263908,0.221780444,0.016408059,0.135686117
0.102657628,0.221808096,0.016401119,0.135618064
0.102675953,0.221835653,0.016394167,0.135549927
0.102694053,0.221863113,0.016387204,0.13548171
0.102711927,0.221890473,0.01638023,0.135413415
0.102729571,0.221917731,0.016373244,0.135345046
0.102746984,0.221944884,0.016366247,0.135276606
0.102764164,0.22197193,0.01635924,0.135208099
0.102781108,0.221998867,0.016352221,0.135139529
0.102797816,0.222025691,0.016345191,0.1350709
0.102814285,0.222052401,0.016338151,0.135002217
0.102830514,0.222078993,0.016331101,0.134933485
0.102846503,0.222105464,0.01632404,0.134864707
0.102862248,0.222131811,0.01631697,0.134795887
0.10287775,0.222158034,0.016309891,0.134727031
0.102893007,0.222184129,0.016302803,0.134658144
0.102908019,0.222210094,0.016295707,0.13458923
0.102922785,0.222235929,0.016288603,0.134520296
0.102937303,0.222261633,0.016281491,0.134451348
0.102951575,0.222287205,0.016274373,0.134382392
0.102965599,0.222312645,0.016267248,0.134313435
0.102979376,0.222337953,0.016260118,0.134244487
0.102992904,0.222363127,0.016252982,0.134175554
0.103006184,0.222388166,0.016245841,0.134106645
0.103019214,0.22241307,0.016238695,0.134037767
0.103031995,0.222437836,0.016231545,0.133968929
0.103044526,0.222462464,0.016224391,0.133900138
0.103056807,0.222486953,0.016217234,0.1338314
0.103068838,0.2225113,0.016210074,0.133762724
0.103080619,0.222535504,0.016202911,0.133694118
0.103092151,0.222559562,0.016195745,0.133625588
0.103103432,0.222583473,0.016188578,0.133557142
0.103114464,0.222607233,0.01618141,0.133488786
0.103125246,0.222630842,0.016174241,0.133420528
0.103135778,0.222654296,0.016167071,0.133352373
0.103146061,0.222677594,0.016159902,0.133284326
0.103156095,0.222700734,0.016152734,0.133216394
0.10316588,0.222723716,0.016145567,0.133148581
0.103175417,0.222746537,0.016138402,0.133080894
0.103184708,0.222769199,0.016131242,0.133013337
0.103193754,0.222791699,0.016124085,0.132945918
0.103202556,0.222814038,0.016116934,0.132878642
0.103211117,0.222836214,0.016109788,0.132811517
0.103219438,0.222858227,0.01610265,0.132744547
0.103227521,0.222880076,0.016095518,0.132677739
0.103235367,0.222901759,0.016088394,0.1326111
0.10324298,0.222923277,0.016081278,0.132544634
0.10325036,0.222944629,0.016074172,0.132478348
0.103257511,0.222965813,0.016067074,0.132412247
0.103264434,0.222986831,0.016059987,0.132346336
0.103271132,0.22300768,0.016052909,0.132280619
0.103277606,0.22302836,0.016045843,0.132215103
0.103283859,0.223048871,0.016038788,0.132149791
0.103289893,0.223069212,0.016031745,0.13208469
0.103295708,0.22308938,0.016024715,0.132019804
0.103301307,0.223109373,0.016017697,0.131955139
0.103306692,0.223129191,0.016010694,0.131890701
0.103311862,0.223148831,0.016003705,0.131826495
0.103316821,0.22316829,0.01599673,0.131762526
0.103321569,0.223187566,0.015989772,0.131698798
0.103326108,0.223206657,0.015982829,0.131635316
0.103330438,0.223225559,0.015975903,0.131572084
0.103334562,0.22324427,0.015968993,0.131509107
0.103338479,0.223262788,0.015962102,0.131446388
0.103342192,0.223281109,0.015955229,0.131383931
0.1033457,0.22329923,0.015948375,0.131321742
0.103349004,0.223317151,0.01594154,0.131259826
0.103352106,0.223334867,0.015934725,0.131198186
0.103355005,0.223352378,0.015927931,0.131136827
0.103357702,0.223369679,0.015921157,0.131075752
0.103360197,0.223386769,0.015914404,0.131014967
0.103362492,0.223403645,0.015907673,0.130954473
0.103364586,0.223420305,0.015900963,0.130894275
0.103366478,0.223436743,0.015894276,0.130834374
0.10336817,0.223452959,0.015887611,0.130774773
0.10336966,0.223468947,0.015880969,0.130715477
0.103370949,0.223484703,0.015874351,0.130656486
0.103372036,0.223500225,0.015867757,0.130597805
0.103372922,0.223515509,0.015861187,0.130539437
0.103373604,0.22353055,0.015854642,0.130481387
0.103374084,0.223545346,0.015848122,0.130423657
0.10337436,0.223559892,0.015841627,0.130366253
0.103374433,0.223574186,0.015835158,0.130309178
0.1033743,0.223588222,0.015828715,0.130252436
0.103373963,0.223601999,0.015822298,0.130196031
0.103373419,0.223615511,0.015815906,0.130139968
0.10337267,0.223628755,0.015809541,0.130084251
0.103371714,0.223641727,0.015803203,0.130028884
0.103370551,0.223654423,0.015796892,0.129973871
0.103369181,0.223666838,0.015790609,0.129919217
0.103367603,0.223678967,0.015784354,0.129864926
0.103365818,0.223690807,0.015778127,0.129811
0.103363824,0.223702351,0.01577193,0.129757444
0.103361621,0.223713595,0.015765762,0.129704262
0.103359208,0.223724534,0.015759624,0.129651457
0.103356585,0.223735161,0.015753517,0.129599033
0.10335375,0.223745473,0.01574744,0.129546996
0.103350703,0.223755463,0.015741394,0.129495351
0.103347442,0.223765128,0.01573538,0.129444101
0.103343968,0.223774463,0.015729399,0.129393251
0.103340278,0.223783464,0.015723451,0.129342807
0.103336371,0.223792126,0.015717536,0.129292773
0.103332246,0.223800445,0.015711655,0.129243154
0.103327902,0.223808416,0.01570581,0.129193953
0.103323337,0.223816035,0.015699999,0.129145175
0.10331855,0.223823296,0.015694225,0.129096825
0.103313538,0.223830196,0.015688487,0.12904891
0.103308301,0.223836729,0.015682786,0.129001434
0.103302836,0.22384289,0.015677122,0.128954405
0.103297142,0.223848674,0.015671497,0.128907827
0.103291217,0.223854076,0.01566591,0.128861706
0.103285058,0.223859091,0.015660362,0.128816047
0.103278665,0.223863712,0.015654854,0.128770854
0.103272034,0.223867934,0.015649385,0.128726134
0.103265165,0.223871753,0.015643956,0.12868189
0.103258056,0.223875162,0.015638568,0.128638128
0.103250705,0.223878157,0.015633221,0.12859485
0.103243108,0.223880732,0.015627915,0.128552062
0.103235266,0.223882885,0.015622652,0.128509766
0.103227174,0.223884611,0.015617431,0.128467966
0.103218831,0.223885907,0.015612253,0.128426664
0.103210234,0.223886769,0.015607119,0.128385864
0.103201381,0.223887194,0.015602029,0.128345568
0.10319227,0.223887181,0.015596984,0.128305778
0.103182897,0.223886727,0.015591984,0.128266496
0.103173262,0.223885829,0.01558703,0.128227726
0.103163361,0.223884486,0.015582123,0.128189469
0.103153192,0.223882697,0.015577261,0.128151727
0.103142753,0.223880458,0.015572446,0.128114501
0.103132041,0.22387777,0.015567678,0.128077792
0.103121055,0.223874631,0.015562957,0.1280416
0.103109792,0.223871038,0.015558282,0.128005926
0.103098251,0.223866991,0.015553654,0.12797077
0.103086429,0.223862488,0.015549073,0.127936131
0.103074324,0.223857527,0.015544538,0.127902009
0.103061937,0.223852105,0.015540049,0.127868403
0.103049264,0.223846221,0.015535607,0.127835314
0.103036305,0.223839872,0.015531212,0.127802741
0.103023059,0.223833057,0.015526863,0.127770682
0.103009524,0.223825774,0.015522561,0.127739139
0.102995699,0.223818021,0.015518306,0.12770811
0.102981582,0.223809798,0.015514097,0.127677594
0.102967171,0.223801103,0.015509936,0.127647591
0.102952466,0.223791936,0.015505821,0.127618099
0.102937464,0.223782296,0.015501753,0.127589118
0.102922163,0.223772183,0.015497732,0.127560645
0.102906563,0.223761596,0.015493757,0.127532682
0.102890661,0.223750537,0.015489828,0.127505225
0.102874457,0.223739007,0.015485947,0.127478276
0.102857948,0.223727008,0.015482111,0.12745183
0.102841133,0.223714541,0.015478322,0.127425888
0.102824012,0.223701609,0.015474579,0.127400447
0.102806582,0.223688214,0.015470881,0.127375505
0.102788841,0.223674358,0.01546723,0.127351059
0.102770789,0.223660042,0.015463624,0.127327106
0.102752423,0.223645269,0.015460064,0.127303643
0.102733742,0.22363004,0.01545655,0.127280667
0.102714746,0.223614358,0.01545308,0.127258175
0.102695432,0.223598225,0.015449655,0.127236164
0.1026758,0.223581643,0.015446274,0.127214631
0.10265585,0.223564613,0.015442937,0.127193572
0.102635581,0.223547139,0.015439644,0.127172984
0.102614991,0.223529221,0.015436395,0.127152862
0.10259408,0.223510861,0.015433189,0.127133202
0.102572848,0.223492062,0.015430026,0.127114
0.102551292,0.223472824,0.015426905,0.127095252
0.102529413,0.223453149,0.015423826,0.127076954
0.102507209,0.223433039,0.01542079,0.127059102
0.102484679,0.223412495,0.015417795,0.127041695
0.102461822,0.223391518,0.015414843,0.12702473
0.102438639,0.223370109,0.015411932,0.127008202
0.102415127,0.223348271,0.015409064,0.12699211
0.102391287,0.223326004,0.015406237,0.126976449
0.102367118,0.22330331,0.015403451,0.126961216
0.102342619,0.223280189,0.015400707,0.126946406
0.102317789,0.223256642,0.015398004,0.126932014
0.102292627,0.22323267,0.015395343,0.126918037
0.102267132,0.223208272,0.015392722,0.12690447
0.102241304,0.22318345,0.015390143,0.126891308
0.102215142,0.223158201,0.015387604,0.126878547
0.102188644,0.223132527,0.015385106,0.126866182
0.102161811,0.223106426,0.015382648,0.126854207
0.10213464,0.223079899,0.015380231,0.126842618
0.102107132,0.223052942,0.015377853,0.126831408
0.102079285,0.223025556,0.015375515,0.126820573
0.102051098,0.222997738,0.015373216,0.126810108
0.10202257,0.222969487,0.015370956,0.126800006
0.101993699,0.222940801,0.015368736,0.126790265
0.101964486,0.222911678,0.015366554,0.126780878
0.101934928,0.222882116,0.015364413,0.126771843
0.101905024,0.222852112,0.015362311,0.126763155
0.101874775,0.222821665,0.015360248,0.126754809
0.101844178,0.222790772,0.015358226,0.126746802
0.101813234,0.22275943,0.015356243,0.126739131
0.101781942,0.222727637,0.015354301,0.126731791
0.101750302,0.22269539,0.015352398,0.126724778
0.101718312,0.222662687,0.015350536,0.12671809
0.101685974,0.222629526,0.015348713,0.126711722
0.101653285,0.222595905,0.01534693,0.126705669
0.101620245,0.222561821,0.015345186,0.126699928
0.101586854,0.222527273,0.015343482,0.126694494
0.101553111,0.222492257,0.015341816,0.126689362
0.101519015,0.222456772,0.01534019,0.126684528
0.101484566,0.222420816,0.015338603,0.126679986
0.101449762,0.222384384,0.015337055,0.126675734
0.101414604,0.222347475,0.015335545,0.126671766
0.10137909,0.222310086,0.015334075,0.126668078
0.101343221,0.222272215,0.015332643,0.126664667
0.101306995,0.222233859,0.015331249,0.126661529
0.101270413,0.222195017,0.015329893,0.126658659
0.101233474,0.22215569,0.015328576,0.126656054
0.101196178,0.222115875,0.015327296,0.126653709
0.101158526,0.22207557,0.015326054,0.126651619
0.101120517,0.222034776,0.015324849,0.126649779
0.10108215,0.221993489,0.015323681,0.126648186
0.101043428,0.221951708,0.015322551,0.126646835
0.101004348,0.221909432,0.015321457,0.126645722
0.100964913,0.221866657,0.0153204,0.126644841
0.100925122,0.221823382,0.015319378,0.126644187
0.100884975,0.221779605,0.015318392,0.126643757
0.100844473,0.221735322,0.015317441,0.126643545
0.100803616,0.221690533,0.015316524,0.126643546
0.100762403,0.221645235,0.015315642,0.126643755
0.100720836,0.221599426,0.015314793,0.126644168
0.100678913,0.221553105,0.015313977,0.126644781
0.100636634,0.221506268,0.015313194,0.126645588
0.100594001,0.221458915,0.015312444,0.126646584
0.100551011,0.221411044,0.015311726,0.126647765
0.100507667,0.221362653,0.015311039,0.126649126
0.100463967,0.221313741,0.015310385,0.126650662
0.100419911,0.221264307,0.015309762,0.126652368
0.1003755,0.221214351,0.01530917,0.12665424
0.100330732,0.221163871,0.015308609,0.126656272
0.100285608,0.221112868,0.015308079,0.126658461
0.100240128,0.221061341,0.015307578,0.126660801
0.100194291,0.221009291,0.015307108,0.126663288
0.100148097,0.220956718,0.015306667,0.126665917
0.100101545,0.220903624,0.015306255,0.126668682
0.100054637,0.220850011,0.015305871,0.126671582
0.100007372,0.220795881,0.015305515,0.12667461
0.099959752,0.220741236,0.015305187,0.126677764
0.099911776,0.22068608,0.015304886,0.126681039
0.099863446,0.220630416,0.015304611,0.126684433
0.099814763,0.220574248,0.015304361,0.126687941
0.099765728,0.220517579,0.015304137,0.12669156
0.099716344,0.220460413,0.015303938,0.126695288
0.099666611,0.220402752,0.015303762,0.12669912
0.099616531,0.220344599,0.01530361,0.126703055
0.099566107,0.220285958,0.015303481,0.126707087
0.099515342,0.220226831,0.015303374,0.126711215
0.099464236,0.220167219,0.015303289,0.126715434
0.099412792,0.220107126,0.015303225,0.126719742
0.099361013,0.220046552,0.015303182,0.126724136
0.099308901,0.219985499,0.01530316,0.126728613
0.099256458,0.219923969,0.015303157,0.126733169
0.099203687,0.219861961,0.015303174,0.126737801
0.099150589,0.219799478,0.01530321,0.126742505
0.099097167,0.219736518,0.015303264,0.126747279
0.099043424,0.219673084,0.015303336,0.12675212
0.098989361,0.219609174,0.015303425,0.126757022
0.09893498,0.21954479,0.015303532,0.126761984
0.098880283,0.21947993,0.015303655,0.126767001
0.098825273,0.219414596,0.015303795,0.126772071
0.09876995,0.219348786,0.015303951,0.126777189
0.098714317,0.219282501,0.015304123,0.126782353
0.098658376,0.219215742,0.01530431,0.12678756
0.098602127,0.219148508,0.015304511,0.126792807
0.098545573,0.219080803,0.015304727,0.126798092
0.098488715,0.219012626,0.015304956,0.126803412
0.098431554,0.218943982,0.015305199,0.126808763
0.098374092,0.218874872,0.015305454,0.126814144
0.098316331,0.218805299,0.015305722,0.126819552
0.098258271,0.218735267,0.015306002,0.126824985
0.098199914,0.218664778,0.015306294,0.126830441
0.098141261,0.218593837,0.015306597,0.126835919
0.098082314,0.218522446,0.015306911,0.126841417
0.098023074,0.21845061,0.015307235,0.126846935
0.097963541,0.218378332,0.015307569,0.126852469
0.097903718,0.218305616,0.015307914,0.126858019
0.097843605,0.218232465,0.015308268,0.126863582
0.097783203,0.218158881,0.015308631,0.126869158
0.097722514,0.218084869,0.015309004,0.126874743
0.097661538,0.218010431,0.015309385,0.126880335
0.097600276,0.217935571,0.015309775,0.126885932
0.097538729,0.217860291,0.015310173,0.126891531
0.097476898,0.217784595,0.015310581,0.12689713
0.097414784,0.217708486,0.015310996,0.126902728
0.097352388,0.217631967,0.01531142,0.126908322
0.097289712,0.217555041,0.015311852,0.126913911
0.097226758,0.217477709,0.015312293,0.126919493
0.097163527,0.217399975,0.015312741,0.126925066
0.097100021,0.217321839,0.015313198,0.126930627
0.097036241,0.217243306,0.015313661,0.126936175
0.09697219,0.217164375,0.015314133,0.126941709
0.09690787,0.21708505,0.015314612,0.126947226
0.096843281,0.217005333,0.015315097,0.126952726
0.096778428,0.216925226,0.01531559,0.126958205
0.09671331,0.216844732,0.01531609,0.126963663
0.096647931,0.216763853,0.015316595,0.126969097
0.096582293,0.216682591,0.015317107,0.126974507
0.096516397,0.216600948,0.015317624,0.126979889
0.096450247,0.216518927,0.015318146,0.126985243
0.096383842,0.21643653,0.015318672,0.126990566
0.096317186,0.216353759,0.015319202,0.126995858
0.09625028,0.216270615,0.015319736,0.127001116
0.096183125,0.216187103,0.015320272,0.127006341
0.096115723,0.216103226,0.015320811,0.127011532
0.096048076,0.216018986,0.015321352,0.127016691
0.095980185,0.215934388,0.015321894,0.127021818
0.095912053,0.215849433,0.015322437,0.127026914
0.095843681,0.215764126,0.015322981,0.127031979
0.095775071,0.215678468,0.015323524,0.127037013
0.095706226,0.215592462,0.015324067,0.127042017
0.095637148,0.215506112,0.01532461,0.127046991
0.095567839,0.215419421,0.015325151,0.127051936
0.095498301,0.215332394,0.015325691,0.127056851
0.095428536,0.215245034,0.015326229,0.127061737
0.095358547,0.215157348,0.015326765,0.127066593
0.095288336,0.21506934,0.015327298,0.127071418
0.095217905,0.214981017,0.015327829,0.127076214
0.095147256,0.214892384,0.015328356,0.127080979
0.095076393,0.21480345,0.015328881,0.127085713
0.095005318,0.214714221,0.015329403,0.127090416
0.094934034,0.214624705,0.015329922,0.127095087
0.094862543,0.214534909,0.015330438,0.127099725
0.094790849,0.21444484,0.015330951,0.127104329
0.094718952,0.214354507,0.015331461,0.127108897
0.094646857,0.214263914,0.015331968,0.127113429
0.094574564,0.21417307,0.015332472,0.12711792
0.094502078,0.214081981,0.015332973,0.127122371
0.0944294,0.213990653,0.015333471,0.127126777
0.094356532,0.213899093,0.015333966,0.127131138
0.094283479,0.213807309,0.015334457,0.127135449
0.094210241,0.213715309,0.015334946,0.127139708
0.094136822,0.2136231,0.015335432,0.127143912
0.094063225,0.213530692,0.015335915,0.127148061
0.093989451,0.213438092,0.015336394,0.12715215
0.093915504,0.213345308,0.01533687,0.127156178
0.093841386,0.213252349,0.015337343,0.127160142
0.093767099,0.213159223,0.015337812,0.127164039
0.093692646,0.213065938,0.015338277,0.127167867
0.09361803,0.212972502,0.015338738,0.127171622
0.093543253,0.212878922,0.015339196,0.1271753
0.093468317,0.212785208,0.01533965,0.127178899
0.093393226,0.212691365,0.0153401,0.127182414
0.093317983,0.212597403,0.015340545,0.127185844
0.09324259,0.212503328,0.015340986,0.127189185
0.09316705,0.212409148,0.015341422,0.127192433
0.093091365,0.212314871,0.015341853,0.127195586
0.093015539,0.212220505,0.015342278,0.127198638
0.092939574,0.212126058,0.015342696,0.127201587
0.092863471,0.212031536,0.015343109,0.127204429
0.092787234,0.211936949,0.015343515,0.12720716
0.092710866,0.211842304,0.015343914,0.127209777
0.092634367,0.211747608,0.015344305,0.127212276
0.09255774,0.211652868,0.01534469,0.127214653
0.092480988,0.211558093,0.015345067,0.127216906
0.092404112,0.211463288,0.015345437,0.12721903
0.092327115,0.211368462,0.0153458,0.127221022
0.092249998,0.211273622,0.015346156,0.127222878
0.092172765,0.211178775,0.015346505,0.127224594
0.092095417,0.211083929,0.015346848,0.127226167
0.092017958,0.21098909,0.015347184,0.127227592
0.09194039,0.210894268,0.015347513,0.127228866
0.091862719,0.210799468,0.015347836,0.127229984
0.091784947,0.210704701,0.015348153,0.127230942
0.091707081,0.210609973,0.015348463,0.127231737
0.091629125,0.210515294,0.015348766,0.127232363
0.091551084,0.21042067,0.015349064,0.127232817
0.091472963,0.21032611,0.015349354,0.127233095
0.09139477,0.210231621,0.015349638,0.127233192
0.091316509,0.210137213,0.015349914,0.127233103
0.091238187,0.21004289,0.015350183,0.127232824
0.09115981,0.209948662,0.015350445,0.127232351
0.091081385,0.209854534,0.015350698,0.12723168
0.091002919,0.209760513,0.015350943,0.127230807
0.090924419,0.209666606,0.015351179,0.127229729
0.090845891,0.209572818,0.015351406,0.127228444
0.090767344,0.209479156,0.015351623,0.127226947
0.090688782,0.209385626,0.015351831,0.127225237
0.090610214,0.209292234,0.01535203,0.12722331
0.090531644,0.209198987,0.015352218,0.127221163
0.090453079,0.209105892,0.015352397,0.127218792
0.090374524,0.209012953,0.015352567,0.127216193
0.090295987,0.208920178,0.015352728,0.127213363
0.090217471,0.208827572,0.015352879,0.127210299
0.090138983,0.208735142,0.015353022,0.127206995
0.090060527,0.208642894,0.015353156,0.127203449
0.08998211,0.208550834,0.01535328,0.127199658
0.089903735,0.208458969,0.015353396,0.127195617
0.089825408,0.208367304,0.015353503,0.127191326
0.089747134,0.208275846,0.0153536,0.127186779
0.089668917,0.2081846,0.015353688,0.127181977
0.089590762,0.208093573,0.015353767,0.127176916
0.089512673,0.208002768,0.015353836,0.127171595
0.089434655,0.207912193,0.015353896,0.127166012
0.089356712,0.207821851,0.015353945,0.127160169
0.089278847,0.207731748,0.015353985,0.127154065
0.089201066,0.207641888,0.015354015,0.127147702
0.08912337,0.207552275,0.015354036,0.12714108
0.089045765,0.207462914,0.015354046,0.1271342
0.088968253,0.207373808,0.015354047,0.127127064
0.088890837,0.207284961,0.015354038,0.127119673
0.088813522,0.207196376,0.01535402,0.127112029
0.088736309,0.207108057,0.015353992,0.127104132
0.088659203,0.207020007,0.015353953,0.127095985
0.088582206,0.20693223,0.015353905,0.127087589
0.088505322,0.206844727,0.015353847,0.127078946
0.088428553,0.206757505,0.015353778,0.127070056
0.088351903,0.206670566,0.015353698,0.127060922
0.088275374,0.206583916,0.015353608,0.127051543
0.088198971,0.206497558,0.015353508,0.12704192
0.088122696,0.206411497,0.015353396,0.127032056
0.088046553,0.206325737,0.015353273,0.12702195
0.087970545,0.206240283,0.015353139,0.127011605
0.087894676,0.206155137,0.015352993,0.127001022
0.087818947,0.206070304,0.015352836,0.126990203
0.087743363,0.205985787,0.015352667,0.126979147
0.087667927,0.205901591,0.015352488,0.126967856
0.087592641,0.205817719,0.015352296,0.12695633
0.087517508,0.205734174,0.015352093,0.12694457
0.08744253,0.205650961,0.015351878,0.126932575
0.087367712,0.205568082,0.015351651,0.126920346
0.087293055,0.205485541,0.015351412,0.126907882
0.087218562,0.205403341,0.015351161,0.126895183
0.087144237,0.205321487,0.015350897,0.126882249
0.087070082,0.205239982,0.015350619,0.126869079
0.0869961,0.205158832,0.015350329,0.126855672
0.086922294,0.20507804,0.015350025,0.126842027
0.086848667,0.204997613,0.015349707,0.126828143
0.086775224,0.204917554,0.015349374,0.126814021
0.086701967,0.20483787,0.015349027,0.126799659
0.086628901,0.204758563,0.015348665,0.126785057
0.086556031,0.204679638,0.015348289,0.126770214
0.086483359,0.204601098,0.015347897,0.126755129
0.08641089,0.204522945,0.015347489,0.1267398
0.086338628,0.204445182,0.015347066,0.126724226
0.086266577,0.204367813,0.015346627,0.126708407
0.086194739,0.20429084,0.015346172,0.12669234
0.086123121,0.204214267,0.0153457,0.126676024
0.086051723,0.204138094,0.015345212,0.126659458
0.085980552,0.204062327,0.015344707,0.126642639
0.085909609,0.203986965,0.015344184,0.126625566
0.085838898,0.203912013,0.015343644,0.126608238
0.085768423,0.203837471,0.015343087,0.126590652
0.085698187,0.203763342,0.015342511,0.126572809
0.085628193,0.203689628,0.015341916,0.126554708
0.085558446,0.20361633,0.015341303,0.126536347
0.085488947,0.20354345,0.01534067,0.126517726
0.085419701,0.203470989,0.015340018,0.126498842
0.085350711,0.203398948,0.015339345,0.126479694
0.085281979,0.203327328,0.015338652,0.126460281
0.085213508,0.20325613,0.015337938,0.126440602
0.0851453,0.203185355,0.015337204,0.126420656
0.085077358,0.203115002,0.015336447,0.126400441
0.085009685,0.203045073,0.01533567,0.126379956
0.084942282,0.202975568,0.015334871,0.1263592
0.084875151,0.202906489,0.01533405,0.126338173
0.084808295,0.202837837,0.015333208,0.126316873
0.084741715,0.202769613,0.015332345,0.126295301
0.084675413,0.202701819,0.01533146,0.126273455
0.084609391,0.202634456,0.015330553,0.126251334
0.084543651,0.202567526,0.015329625,0.126228938
0.084478193,0.20250103,0.015328676,0.126206266
0.084413019,0.202434968,0.015327705,0.126183316
0.08434813,0.202369344,0.015326712,0.126160088
0.084283527,0.202304158,0.015325698,0.126136584
0.08421921,0.202239411,0.015324662,0.126112804
0.084155181,0.202175106,0.015323604,0.126088749
0.084091439,0.202111242,0.015322525,0.126064421
0.084027986,0.202047821,0.015321424,0.126039821
0.083964821,0.201984844,0.015320302,0.12601495
0.083901944,0.20192231,0.015319159,0.125989811
0.083839356,0.20186022,0.015317994,0.125964404
0.083777057,0.201798575,0.015316808,0.12593873
0.083715046,0.201737375,0.0153156,0.12591279
0.083653323,0.201676622,0.015314372,0.125886584
0.083591888,0.201616315,0.015313122,0.125860115
0.083530742,0.201556457,0.015311851,0.125833382
0.083469883,0.201497046,0.01531056,0.125806387
0.083409312,0.201438085,0.015309248,0.12577913
0.083349029,0.201379572,0.015307917,0.125751612
0.083289033,0.201321508,0.015306565,0.125723835
0.083229323,0.201263892,0.015305194,0.125695801
0.083169899,0.201206724,0.015303804,0.12566751
0.08311076,0.201150004,0.015302395,0.125638964
0.083051906,0.201093731,0.015300967,0.125610164
0.082993336,0.201037905,0.01529952,0.125581109
0.082935049,0.200982526,0.015298055,0.125551803
0.082877047,0.200927592,0.015296572,0.125522244
0.082819328,0.200873104,0.015295071,0.125492436
0.082761894,0.20081906,0.015293552,0.125462377
0.082704745,0.200765459,0.015292015,0.125432069
0.082647882,0.2007123,0.015290462,0.125401513
0.082591305,0.200659582,0.015288892,0.125370709
0.082535016,0.200607303,0.015287305,0.125339656
0.082479015,0.200555463,0.015285702,0.125308355
0.082423304,0.200504059,0.015284082,0.125276806
0.082367882,0.20045309,0.015282447,0.125245009
0.082312753,0.200402555,0.015280796,0.125212963
0.082257916,0.200352453,0.01527913,0.125180669
0.082203373,0.20030278,0.015277448,0.125148125
0.082149126,0.200253536,0.015275751,0.125115331
0.082095175,0.200204717,0.015274039,0.125082287
0.082041521,0.200156322,0.015272312,0.125048992
0.081988165,0.200108348,0.015270571,0.125015446
0.081935107,0.200060791,0.015268814,0.124981648
0.081882349,0.200013649,0.015267042,0.124947599
0.081829892,0.199966919,0.015265256,0.124913298
0.081777735,0.1999206,0.015263454,0.124878745
0.08172588,0.199874689,0.015261637,0.12484394
0.081674328,0.199829184,0.015259806,0.124808882
0.081623079,0.199784082,0.01525796,0.124773573
0.081572136,0.19973938,0.015256099,0.124738013
0.081521499,0.199695076,0.015254224,0.124702201
0.081471173,0.199651166,0.015252334,0.124666138
0.081421157,0.199607649,0.01525043,0.124629822
0.081371455,0.199564523,0.015248511,0.124593253
0.081322069,0.199521785,0.015246579,0.124556431
0.081273,0.199479435,0.015244632,0.124519355
0.08122425,0.199437473,0.01524267,0.124482024
0.081175822,0.199395899,0.015240695,0.124444437
0.081127718,0.199354712,0.015238707,0.124406594
0.081079939,0.199313913,0.015236704,0.124368493
0.081032488,0.199273501,0.015234689,0.124330135
0.080985366,0.199233475,0.015232661,0.124291517
0.080938576,0.199193834,0.01523062,0.12425264
0.080892118,0.199154577,0.015228566,0.124213504
0.080845995,0.199115703,0.0152265,0.124174107
0.080800208,0.19907721,0.015224421,0.124134449
0.080754759,0.199039097,0.01522233,0.124094529
0.080709648,0.199001361,0.015220226,0.124054348
0.080664876,0.198964003,0.01521811,0.124013904
0.080620446,0.19892702,0.01521598,0.123973197
0.080576358,0.198890412,0.015213838,0.123932226
0.080532612,0.198854176,0.015211682,0.123890993
0.080489211,0.198818312,0.015209513,0.123849495
0.080446154,0.198782819,0.015207331,0.123807734
0.080403444,0.198747693,0.015205136,0.123765709
0.080361079,0.198712934,0.015202927,0.12372342
0.080319062,0.19867854,0.015200704,0.123680867
0.080277392,0.198644509,0.015198467,0.12363805
0.08023607,0.198610838,0.015196216,0.123594969
0.080195097,0.198577524,0.01519395,0.123551623
0.080154473,0.198544564,0.015191669,0.123508012
0.080114197,0.198511955,0.015189374,0.123464136
0.080074272,0.198479693,0.015187062,0.123419992
0.080034695,0.198447774,0.015184736,0.123375581
0.079995469,0.198416195,0.015182393,0.123330901
0.079956593,0.198384952,0.015180034,0.123285951
0.079918068,0.198354041,0.015177658,0.123240729
0.079879895,0.198323458,0.015175265,0.123195233
0.079842074,0.198293199,0.015172856,0.123149464
0.079804606,0.198263262,0.015170429,0.123103418
0.079767492,0.198233645,0.015167985,0.123057094
0.079730731,0.198204346,0.015165523,0.123010493
0.079694325,0.198175365,0.015163044,0.122963612
0.079658274,0.198146699,0.015160548,0.122916451
0.079622579,0.198118347,0.015158034,0.122869009
0.07958724,0.198090309,0.015155503,0.122821287
0.079552258,0.198062583,0.015152956,0.122773284
0.079517634,0.198035167,0.015150391,0.122724999
0.07948337,0.198008062,0.01514781,0.122676432
0.079449466,0.197981266,0.015145213,0.122627581
0.079415924,0.197954777,0.015142599,0.122578446
0.079382744,0.197928593,0.015139969,0.122529025
0.079349927,0.197902712,0.015137323,0.122479316
0.079317473,0.197877132,0.015134661,0.122429318
0.079285384,0.19785185,0.015131983,0.122379029
0.079253659,0.197826863,0.01512929,0.122328447
0.079222298,0.197802168,0.015126581,0.122277571
0.079191303,0.197777762,0.015123856,0.122226399
0.079160673,0.197753641,0.015121115,0.12217493
0.079130407,0.197729803,0.015118359,0.122123163
0.079100506,0.197706244,0.015115588,0.122071099
0.07907097,0.197682962,0.015112802,0.122018734
0.079041798,0.197659953,0.015110001,0.121966069
0.079012989,0.197637215,0.015107185,0.121913102
0.078984545,0.197614747,0.015104354,0.121859833
0.078956463,0.197592548,0.01510151,0.121806262
0.078928745,0.197570617,0.01509865,0.121752391
0.078901388,0.197548953,0.015095777,0.12169822
0.078874394,0.197527558,0.01509289,0.121643749
0.07884776,0.19750643,0.015089988,0.121588981
0.078821487,0.197485569,0.015087073,0.121533915
0.078795573,0.197464977,0.015084143,0.121478552
0.078770019,0.197444651,0.015081201,0.121422893
0.078744824,0.197424593,0.015078244,0.121366939
0.078719986,0.1974048,0.015075275,0.121310688
0.078695507,0.197385274,0.015072292,0.121254142
0.078671385,0.197366012,0.015069296,0.121197301
0.07864762,0.197347016,0.015066288,0.121140163
0.078624212,0.197328285,0.015063266,0.12108273
0.07860116,0.197309822,0.015060232,0.121025001
0.078578462,0.197291626,0.015057186,0.120966976
0.07855612,0.197273699,0.015054127,0.120908655
0.078534131,0.197256042,0.015051055,0.120850039
0.078512495,0.197238657,0.015047971,0.120791129
0.078491211,0.197221544,0.015044875,0.120731925
0.078470278,0.197204706,0.015041766,0.120672427
0.078449694,0.197188142,0.015038646,0.120612637
0.078429458,0.197171855,0.015035514,0.120552554
0.078409569,0.197155847,0.015032369,0.120492179
0.078390026,0.197140117,0.015029214,0.120431514
0.078370826,0.197124667,0.015026047,0.120370557
0.078351969,0.197109499,0.015022869,0.12030931
0.078333454,0.197094612,0.01501968,0.120247774
0.078315279,0.197080008,0.01501648,0.12018595
0.078297443,0.197065688,0.01501327,0.120123838
0.078279945,0.197051654,0.015010049,0.12006144
0.078262784,0.197037907,0.015006819,0.119998755
0.078245959,0.197024448,0.015003579,0.119935785
0.078229468,0.197011279,0.015000329,0.119872532
0.078213311,0.196998402,0.014997071,0.119808999
0.078197486,0.196985819,0.014993804,0.119745188
0.078181992,0.196973534,0.014990529,0.119681102
0.078166827,0.196961547,0.014987246,0.119616743
0.07815199,0.196949863,0.014983957,0.119552115
0.078137481,0.196938484,0.014980661,0.11948722
0.078123296,0.196927413,0.014977359,0.119422061
0.078109436,0.196916652,0.014974052,0.119356642
0.078095899,0.196906204,0.01497074,0.119290965
0.078082684,0.196896073,0.014967423,0.119225033
0.078069789,0.19688626,0.014964102,0.119158848
0.078057213,0.196876769,0.014960777,0.119092413
0.078044953,0.196867601,0.014957448,0.119025731
0.078033009,0.196858758,0.014954117,0.118958807
0.078021378,0.196850241,0.014950782,0.118891644
0.078010058,0.196842051,0.014947446,0.118824246
0.077999048,0.19683419,0.014944109,0.118756616
0.077988346,0.196826656,0.01494077,0.11868876
0.077977949,0.196819451,0.014937431,0.118620681
0.077967855,0.196812575,0.014934092,0.118552384
0.077958062,0.196806027,0.014930753,0.118483872
0.077948568,0.196799808,0.014927416,0.118415149
0.07793937,0.196793918,0.014924079,0.118346219
0.077930465,0.196788356,0.014920745,0.118277084
0.077921851,0.196783122,0.014917413,0.118207748
0.077913525,0.196778216,0.014914084,0.118138214
0.077905484,0.196773638,0.014910759,0.118068483
0.077897726,0.196769388,0.014907438,0.117998559
0.077890248,0.196765466,0.014904122,0.117928444
0.077883048,0.196761873,0.014900812,0.117858141
0.077876124,0.196758609,0.014897507,0.117787652
0.077869471,0.196755673,0.014894208,0.117716981
0.077863088,0.196753064,0.014890915,0.11764613
0.077856973,0.196750784,0.014887629,0.117575103
0.077851122,0.196748832,0.01488435,0.117503902
0.077845532,0.196747206,0.014881078,0.11743253
0.077840201,0.196745907,0.014877813,0.117360989
0.077835126,0.196744935,0.014874556,0.117289284
0.077830305,0.196744287,0.014871307,0.117217416
0.077825734,0.196743965,0.014868066,0.117145387
0.077821411,0.196743967,0.014864833,0.117073202
0.077817334,0.196744294,0.01486161,0.117000864
0.077813502,0.196744944,0.014858395,0.116928378
0.077809911,0.196745917,0.01485519,0.116855749
0.077806559,0.196747211,0.014851995,0.116782982
0.077803445,0.196748825,0.01484881,0.116710082
0.077800565,0.196750757,0.014845636,0.116637053
0.077797918,0.196753004,0.014842472,0.1165639
0.0777955,0.196755565,0.014839319,0.116490627
0.07779331,0.196758436,0.014836177,0.116417238
0.077791343,0.196761616,0.014833047,0.116343735
0.077789599,0.196765101,0.014829928,0.116270122
0.077788074,0.19676889,0.014826821,0.116196401
0.077786765,0.196772979,0.014823725,0.116122576
0.07778567,0.196777367,0.014820642,0.116048649
0.077784786,0.196782052,0.014817572,0.115974624
0.077784109,0.196787033,0.014814513,0.115900505
0.077783639,0.196792309,0.014811468,0.115826296
0.07778337,0.196797879,0.014808434,0.115752
0.077783301,0.196803741,0.014805413,0.115677621
0.077783427,0.196809894,0.014802405,0.115603163
0.077783747,0.196816336,0.014799409,0.115528628
0.077784257,0.196823065,0.014796426,0.115454021
0.077784953,0.19683008,0.014793455,0.115379343
0.077785832,0.19683738,0.014790497,0.115304597
0.077786892,0.196844963,0.014787552,0.115229787
0.077788129,0.196852828,0.01478462,0.115154915
0.077789541,0.196860974,0.014781701,0.115079985
0.077791124,0.196869401,0.014778795,0.115004998
0.077792875,0.196878109,0.014775901,0.114929959
0.077794791,0.196887095,0.01477302,0.11485487
0.07779687,0.196896361,0.014770152,0.114779734
0.077799107,0.196905905,0.014767297,0.114704553
0.0778015,0.196915726,0.014764454,0.114629331
0.077804046,0.196925824,0.014761624,0.114554069
0.07780674,0.196936197,0.014758806,0.11447877
0.077809581,0.196946842,0.014756002,0.114403437
0.077812563,0.196957759,0.014753209,0.11432807
0.077815684,0.196968945,0.014750429,0.114252672
0.077818941,0.196980399,0.014747662,0.114177243
0.07782233,0.196992118,0.014744907,0.114101785
0.077825848,0.1970041,0.014742164,0.114026299
0.077829493,0.197016344,0.014739434,0.113950786
0.07783326,0.19702885,0.014736716,0.113875247
0.077837148,0.197041619,0.014734012,0.113799681
0.077841152,0.19705465,0.014731319,0.11372409
0.077845271,0.197067944,0.01472864,0.113648472
0.077849499,0.197081502,0.014725973,0.113572829
0.077853836,0.197095324,0.014723318,0.11349716
0.077858278,0.19710941,0.014720677,0.113421464
0.077862821,0.197123762,0.014718048,0.113345741
0.077867465,0.197138379,0.014715432,0.113269991
0.077872206,0.197153263,0.01471283,0.113194214
0.077877042,0.197168414,0.014710242,0.11311841
0.077881971,0.197183832,0.014707667,0.113042579
0.077886989,0.197199516,0.014705106,0.112966723
0.077892096,0.197215466,0.01470256,0.112890842
0.077897288,0.197231682,0.014700027,0.112814936
0.077902563,0.197248161,0.014697508,0.112739004
0.077907919,0.197264902,0.014695003,0.112663049
0.077913353,0.197281904,0.014692513,0.112587068
0.077918864,0.197299164,0.014690036,0.112511062
0.077924447,0.197316682,0.014687573,0.11243503
0.077930103,0.197334454,0.014685125,0.112358974
0.077935827,0.197352479,0.01468269,0.112282893
0.077941619,0.197370755,0.01468027,0.112206787
0.077947478,0.19738928,0.014677864,0.112130656
0.077953401,0.197408051,0.014675474,0.112054499
0.077959388,0.197427068,0.014673099,0.111978317
0.077965436,0.197446327,0.01467074,0.111902111
0.077971545,0.197465827,0.014668399,0.111825879
0.077977714,0.197485564,0.014666075,0.111749625
0.077983942,0.197505536,0.014663769,0.11167335
0.077990227,0.197525739,0.014661482,0.111597057
0.077996569,0.19754617,0.014659215,0.111520748
0.078002966,0.197566825,0.014656969,0.111444427
0.078009419,0.197587701,0.014654744,0.111368095
0.078015924,0.197608794,0.014652542,0.111291755
0.078022482,0.197630097,0.014650363,0.111215411
0.07802909,0.197651608,0.014648207,0.111139065
0.078035748,0.197673322,0.014646076,0.111062721
0.078042454,0.197695232,0.01464397,0.110986381
0.078049205,0.197717335,0.014641889,0.110910048
0.078056002,0.197739625,0.014639835,0.110833725
0.078062842,0.197762097,0.014637808,0.110757417
0.078069724,0.197784744,0.01463581,0.110681125
0.078076648,0.197807562,0.01463384,0.110604854
0.078083612,0.197830544,0.014631899,0.110528605
0.078090614,0.197853683,0.01462999,0.110452382
0.078097655,0.197876974,0.014628111,0.110376186
0.078104732,0.197900409,0.014626263,0.110300021
0.078111844,0.197923984,0.014624449,0.110223889
0.078118991,0.197947692,0.014622666,0.110147791
0.078126171,0.197971527,0.014620917,0.110071729
0.078133382,0.197995482,0.014619201,0.109995706
0.078140624,0.198019552,0.01461752,0.109919724
0.078147895,0.198043731,0.014615872,0.109843783
0.078155193,0.198068014,0.014614259,0.109767887
0.078162518,0.198092394,0.014612681,0.109692037
0.078169869,0.198116864,0.014611139,0.109616237
0.078177243,0.19814142,0.014609633,0.109540488
0.078184642,0.198166056,0.014608164,0.109464794
0.078192063,0.198190765,0.014606732,0.109389157
0.078199505,0.198215543,0.014605337,0.109313581
0.078206969,0.198240382,0.014603981,0.109238067
0.078214453,0.198265278,0.014602662,0.109162619
0.078221957,0.198290224,0.014601383,0.109087241
0.07822948,0.198315214,0.014600142,0.109011934
0.078237021,0.198340242,0.01459894,0.108936701
0.07824458,0.198365302,0.014597779,0.108861547
0.078252155,0.198390389,0.014596657,0.108786471
0.078259746,0.198415495,0.014595576,0.108711477
0.078267352,0.198440616,0.014594536,0.108636567
0.07827497,0.198465746,0.014593537,0.108561743
0.078282601,0.198490883,0.01459258,0.108487006
0.078290243,0.198516022,0.014591664,0.108412358
0.078297895,0.198541158,0.014590791,0.108337802
0.078305556,0.198566288,0.014589961,0.10826334
0.078313225,0.198591406,0.014589174,0.108188975
0.078320902,0.198616508,0.014588431,0.10811471
0.078328585,0.198641592,0.014587731,0.108040546
0.078336275,0.198666653,0.014587076,0.107966486
0.07834397,0.198691686,0.014586465,0.107892532
0.078351669,0.198716688,0.014585899,0.107818686
0.078359371,0.198741656,0.014585378,0.107744949
0.078367077,0.198766585,0.014584902,0.107671323
0.078374784,0.198791472,0.01458447,0.107597809
0.078382492,0.198816315,0.014584084,0.107524409
0.0783902,0.19884111,0.014583743,0.107451123
0.078397907,0.198865854,0.014583447,0.107377952
0.078405611,0.198890546,0.014583196,0.107304898
0.078413313,0.198915183,0.01458299,0.10723196
0.078421011,0.198939763,0.01458283,0.107159138
0.078428705,0.198964283,0.014582715,0.107086434
0.078436393,0.198988743,0.014582646,0.107013848
0.078444077,0.199013138,0.014582621,0.106941381
0.078451754,0.199037468,0.014582642,0.106869035
0.078459426,0.199061731,0.014582708,0.106796811
0.078467093,0.199085923,0.014582818,0.106724711
0.078474754,0.199110042,0.014582974,0.106652735
0.078482409,0.199134087,0.014583175,0.106580886
0.07849006,0.199158054,0.014583421,0.106509165
0.078497705,0.199181941,0.014583712,0.106437576
0.078505345,0.199205745,0.01458405,0.106366121
0.078512979,0.199229463,0.014584433,0.106294805
0.078520609,0.199253093,0.014584863,0.106223631
0.078528233,0.199276631,0.014585339,0.106152601
0.078535851,0.199300076,0.014585863,0.106081721
0.078543464,0.199323423,0.014586434,0.106010992
0.078551072,0.199346671,0.014587054,0.10594042
0.078558673,0.199369816,0.014587723,0.105870007
0.078566268,0.199392856,0.01458844,0.105799756
0.078573857,0.199415788,0.014589208,0.10572967
0.078581439,0.199438609,0.014590025,0.105659752
0.078589014,0.199461317,0.014590892,0.105590003
0.078596582,0.199483909,0.01459181,0.105520427
0.078604142,0.199506383,0.014592779,0.105451024
0.078611694,0.199528737,0.014593799,0.105381799
0.078619237,0.199550968,0.014594871,0.105312752
0.078626771,0.199573074,0.014595995,0.105243887
0.078634294,0.199595054,0.014597172,0.105175205
0.078641806,0.199616909,0.014598403,0.10510671
0.078649306,0.199638641,0.014599687,0.105038404
0.078656794,0.19966025,0.014601026,0.104970291
0.07866427,0.199681739,0.01460242,0.104902374
0.078671733,0.19970311,0.01460387,0.104834655
0.078679184,0.199724365,0.014605376,0.104767138
0.078686621,0.199745506,0.014606938,0.104699828
0.078694046,0.199766535,0.014608557,0.104632727
0.078701458,0.199787453,0.014610234,0.10456584
0.078708857,0.199808264,0.014611968,0.104499169
0.078716242,0.199828968,0.01461376,0.104432719
0.078723614,0.199849566,0.014615611,0.104366492
0.078730971,0.19987006,0.014617521,0.104300491
0.078738315,0.19989045,0.01461949,0.10423472
0.078745642,0.199910736,0.014621518,0.104169183
0.078752955,0.199930917,0.014623606,0.104103883
0.07876025,0.199950994,0.014625754,0.104038825
0.078767529,0.199970966,0.014627961,0.103974012
0.07877479,0.199990831,0.014630229,0.103909447
0.078782032,0.200010589,0.014632557,0.103845133
0.078789255,0.200030238,0.014634945,0.103781073
0.078796458,0.200049777,0.014637393,0.103717268
0.078803641,0.200069206,0.014639902,0.103653723
0.078810803,0.200088524,0.014642471,0.103590438
0.078817943,0.20010773,0.0146451,0.103527417
0.078825062,0.200126822,0.014647788,0.103464662
0.078832159,0.200145799,0.014650537,0.103402175
0.078839234,0.200164659,0.014653346,0.103339959
0.078846287,0.2001834,0.014656215,0.103278017
0.078853318,0.200202021,0.014659143,0.103216351
0.078860327,0.200220519,0.014662131,0.103154962
0.078867312,0.200238894,0.014665179,0.103093853
0.078874273,0.200257144,0.014668286,0.103033025
0.078881211,0.200275266,0.014671454,0.10297248
0.078888124,0.200293261,0.01467468,0.10291222
0.078895012,0.200311124,0.014677967,0.102852246
0.078901875,0.200328855,0.014681313,0.10279256
0.078908712,0.200346452,0.014684718,0.102733164
0.078915522,0.200363911,0.014688182,0.102674059
0.078922305,0.200381232,0.014691706,0.102615246
0.078929058,0.200398411,0.01469529,0.102556726
0.078935782,0.200415445,0.014698932,0.1024985
0.078942475,0.200432335,0.014702633,0.102440571
0.078949136,0.200449077,0.014706394,0.102382939
0.078955764,0.20046567,0.014710214,0.102325605
0.078962356,0.200482113,0.014714092,0.102268571
0.078968912,0.200498405,0.014718028,0.102211835
0.078975429,0.200514544,0.014722023,0.102155401
0.078981906,0.20053053,0.014726075,0.102099267
0.078988341,0.200546363,0.014730185,0.102043435
0.078994733,0.200562043,0.014734352,0.101987907
0.07900108,0.200577569,0.014738575,0.101932681
0.07900738,0.200592943,0.014742855,0.10187776
0.079013632,0.200608163,0.014747191,0.101823143
0.079019834,0.200623232,0.014751582,0.101768831
0.079025985,0.200638152,0.014756028,0.101714823
0.079032083,0.200652924,0.014760529,0.101661121
0.079038126,0.200667551,0.014765084,0.101607724
0.079044112,0.200682037,0.014769693,0.101554633
0.079050041,0.200696382,0.014774356,0.101501848
0.079055908,0.20071059,0.014779072,0.101449368
0.079061714,0.200724663,0.01478384,0.101397194
0.079067456,0.200738603,0.014788661,0.101345325
0.079073131,0.200752413,0.014793533,0.101293759
0.079078739,0.200766093,0.014798455,0.101242498
0.079084276,0.200779646,0.014803429,0.101191538
0.079089741,0.200793073,0.014808452,0.101140881
0.079095131,0.200806376,0.014813524,0.101090525
0.079100444,0.200819555,0.014818646,0.101040468
0.079105677,0.200832613,0.014823816,0.100990709
0.07911083,0.200845548,0.014829034,0.100941247
0.079115899,0.200858362,0.014834299,0.100892081
0.079120882,0.200871055,0.014839611,0.100843208
0.079125778,0.200883627,0.014844968,0.100794626
0.079130585,0.200896078,0.014850371,0.100746335
0.0791353,0.200908407,0.014855818,0.100698332
0.079139923,0.200920615,0.01486131,0.100650616
0.07914445,0.200932702,0.014866844,0.100603183
0.079148879,0.200944672,0.014872422,0.100556032
0.079153209,0.200956527,0.014878041,0.100509161
0.079157438,0.200968269,0.014883701,0.100462567
0.079161565,0.200979901,0.014889401,0.100416248
0.079165587,0.200991427,0.014895142,0.1003702
0.079169503,0.201002848,0.014900921,0.100324422
0.079173312,0.201014168,0.014906738,0.10027891
0.079177012,0.20102539,0.014912592,0.100233661
0.079180602,0.201036515,0.014918483,0.100188673
0.079184079,0.201047547,0.01492441,0.100143943
0.079187443,0.201058486,0.014930372,0.100099469
0.079190691,0.201069336,0.014936368,0.100055249
0.079193821,0.201080098,0.014942397,0.100011281
0.079196831,0.201090774,0.01494846,0.099967562
0.079199721,0.201101365,0.014954555,0.099924089
0.079202487,0.201111872,0.014960681,0.09988086
0.079205129,0.201122296,0.014966838,0.099837872
0.079207645,0.201132639,0.014973024,0.09979512
0.079210033,0.201142901,0.014979239,0.099752603
0.079212292,0.201153083,0.014985483,0.099710316
0.079214421,0.201163183,0.014991753,0.099668255
0.079216417,0.201173204,0.01499805,0.099626418
0.07921828,0.201183143,0.015004371,0.099584801
0.079220008,0.201193003,0.015010717,0.099543401
0.079221599,0.201202782,0.015017086,0.099502215
0.079223054,0.201212482,0.015023477,0.099461239
0.079224369,0.201222103,0.01502989,0.09942047
0.079225543,0.201231644,0.015036323,0.099379906
0.079226576,0.201241107,0.015042775,0.099339543
0.079227465,0.201250491,0.015049247,0.099299376
0.07922821,0.201259795,0.015055736,0.099259403
0.079228808,0.201269019,0.015062241,0.099219621
0.079229259,0.201278162,0.015068763,0.099180024
0.079229561,0.201287225,0.015075301,0.09914061
0.079229713,0.201296205,0.015081853,0.099101375
0.079229713,0.201305102,0.015088418,0.099062315
0.07922956,0.201313914,0.015094996,0.099023427
0.079229252,0.201322639,0.015101586,0.098984705
0.079228789,0.201331277,0.015108187,0.098946147
0.079228169,0.201339826,0.015114799,0.098907747
0.079227391,0.201348282,0.01512142,0.098869503
0.079226455,0.201356646,0.015128051,0.098831413
0.079225361,0.201364916,0.015134691,0.098793472
0.079224108,0.20137309,0.015141338,0.098755679
0.079222696,0.201381167,0.015147993,0.098718031
0.079221127,0.201389147,0.015154655,0.098680526
0.0792194,0.201397027,0.015161324,0.098643162
0.079217516,0.201404807,0.015167998,0.098605935
0.079215475,0.201412485,0.015174676,0.098568844
0.079213278,0.201420059,0.015181359,0.098531885
0.079210924,0.201427527,0.015188045,0.098495057
0.079208414,0.201434886,0.015194734,0.098458357
0.079205749,0.201442135,0.015201425,0.098421782
0.079202928,0.201449271,0.015208116,0.098385329
0.079199952,0.201456292,0.015214808,0.098348999
0.079196822,0.201463195,0.0152215,0.098312789
0.079193538,0.201469977,0.01522819,0.098276698
0.079190099,0.201476636,0.015234877,0.098240726
0.079186508,0.20148317,0.015241562,0.098204873
0.079182763,0.201489578,0.015248242,0.098169138
0.079178866,0.20149586,0.015254918,0.098133522
0.079174818,0.201502014,0.015261587,0.098098023
0.07917062,0.201508041,0.01526825,0.098062641
0.079166273,0.201513939,0.015274905,0.098027376
0.079161777,0.201519709,0.015281551,0.097992227
0.079157134,0.201525352,0.015288188,0.097957193
0.079152345,0.201530869,0.015294815,0.097922274
0.079147409,0.201536261,0.015301432,0.09788747
0.079142329,0.201541529,0.015308037,0.097852781
0.079137105,0.201546676,0.015314631,0.097818206
0.079131739,0.201551704,0.015321212,0.097783747
0.079126232,0.201556615,0.015327779,0.097749404
0.079120586,0.201561412,0.015334334,0.097715178
0.079114802,0.201566096,0.015340873,0.097681068
0.079108883,0.201570671,0.015347398,0.097647075
0.079102829,0.20157514,0.015353906,0.097613198
0.079096643,0.201579504,0.015360399,0.097579437
0.079090327,0.201583768,0.015366873,0.097545791
0.079083882,0.201587933,0.01537333,0.097512261
0.07907731,0.201592001,0.015379768,0.097478844
0.079070612,0.201595975,0.015386187,0.097445541
0.07906379,0.201599857,0.015392586,0.09741235
0.079056846,0.201603649,0.015398964,0.097379271
0.079049782,0.201607353,0.015405322,0.0973463
0.079042598,0.201610973,0.015411657,0.097313438
0.079035296,0.20161451,0.015417971,0.097280683
0.079027877,0.201617968,0.015424262,0.097248033
0.079020343,0.201621349,0.01543053,0.097215489
0.079012694,0.201624655,0.015436774,0.09718305
0.079004931,0.20162789,0.015442994,0.097150714
0.078997056,0.201631054,0.015449189,0.097118481
0.078989068,0.20163415,0.015455359,0.09708635
0.07898097,0.20163718,0.015461502,0.09705432
0.078972761,0.201640145,0.015467618,0.09702239
0.078964442,0.201643047,0.015473708,0.096990558
0.078956014,0.201645887,0.015479769,0.096958824
0.078947477,0.201648667,0.015485801,0.096927187
0.078938833,0.201651387,0.015491804,0.096895646
0.078930082,0.201654051,0.015497776,0.096864201
0.078921225,0.201656658,0.015503718,0.09683285
0.078912262,0.20165921,0.015509629,0.096801594
0.078903194,0.201661708,0.015515507,0.096770433
0.078894022,0.201664154,0.015521354,0.096739368
0.078884745,0.201666548,0.015527169,0.096708398
0.078875365,0.201668891,0.015532951,0.096677525
0.078865881,0.201671184,0.015538699,0.096646748
0.078856293,0.201673427,0.015544414,0.096616068
0.078846602,0.20167562,0.015550095,0.096585486
0.078836808,0.201677764,0.015555742,0.096555001
0.07882691,0.201679859,0.015561355,0.096524616
0.07881691,0.201681904,0.015566932,0.096494329
0.078806807,0.2016839,0.015572474,0.096464143
0.078796602,0.201685845,0.01557798,0.096434058
0.078786295,0.201687739,0.015583449,0.096404075
0.078775886,0.201689581,0.015588882,0.096374196
0.078765375,0.201691371,0.015594278,0.09634442
0.078754762,0.201693106,0.015599636,0.09631475
0.078744048,0.201694789,0.015604957,0.096285186
0.078733233,0.201696419,0.01561024,0.096255727
0.078722319,0.201697996,0.015615484,0.096226375
0.078711305,0.201699521,0.01562069,0.096197131
0.078700193,0.201700993,0.015625857,0.096167994
0.078688984,0.201702414,0.015630985,0.096138966
0.078677679,0.201703781,0.015636074,0.096110047
0.07866628,0.201705094,0.015641124,0.096081239
0.078654787,0.201706353,0.015646136,0.096052543
0.078643202,0.201707555,0.015651107,0.096023959
0.078631527,0.2017087,0.01565604,0.095995488
0.078619764,0.201709785,0.015660932,0.095967131
0.078607914,0.20171081,0.015665784,0.095938887
0.07859598,0.201711772,0.015670596,0.095910757
0.078583962,0.20171267,0.015675367,0.09588274
0.078571861,0.201713502,0.015680097,0.095854837
0.07855968,0.201714264,0.015684785,0.095827048
0.07854742,0.201714956,0.015689432,0.095799371
0.078535082,0.201715574,0.015694036,0.095771807
0.078522667,0.201716117,0.015698599,0.095744354
0.078510177,0.201716581,0.015703118,0.095717013
0.078497612,0.201716964,0.015707594,0.095689781
0.078484973,0.201717264,0.015712027,0.095662658
0.078472263,0.201717479,0.015716416,0.095635644
0.07845948,0.201717605,0.015720761,0.095608738
0.078446627,0.201717641,0.015725061,0.095581938
0.078433703,0.201717583,0.015729317,0.095555245
0.07842071,0.20171743,0.015733529,0.095528657
0.078407647,0.20171718,0.015737697,0.095502173
0.078394515,0.201716828,0.01574182,0.095475792
0.078381315,0.201716373,0.015745899,0.095449512
0.078368049,0.201715812,0.015749934,0.095423332
0.078354716,0.201715143,0.015753924,0.09539725
0.078341317,0.201714362,0.015757869,0.095371264
0.078327852,0.201713467,0.01576177,0.095345371
0.078314323,0.201712455,0.015765626,0.095319571
0.07830073,0.201711323,0.015769437,0.09529386
0.078287073,0.201710067,0.015773202,0.095268236
0.078273352,0.201708686,0.015776921,0.095242699
0.078259569,0.201707175,0.015780594,0.095217246
0.078245724,0.201705535,0.01578422,0.095191876
0.078231817,0.201703763,0.0157878,0.095166587
0.078217851,0.201701859,0.015791334,0.095141378
0.078203826,0.201699822,0.01579482,0.095116247
0.078189743,0.20169765,0.015798259,0.095091192
0.078175603,0.201695344,0.01580165,0.095066214
0.078161408,0.201692903,0.015804994,0.095041309
0.078147158,0.201690326,0.015808289,0.095016478
0.078132855,0.201687613,0.015811536,0.094991716
0.0781185,0.201684762,0.015814734,0.094967024
0.078104094,0.201681774,0.015817884,0.094942398
0.078089639,0.20167865,0.015820983,0.094917836
0.078075136,0.201675389,0.015824034,0.094893335
0.078060587,0.201671992,0.015827034,0.094868894
0.078045993,0.201668461,0.015829984,0.09484451
0.078031358,0.201664795,0.015832885,0.094820179
0.078016682,0.201660996,0.015835735,0.0947959
0.078001967,0.201657063,0.015838534,0.094771669
0.077987217,0.201653,0.015841283,0.094747485
0.077972432,0.201648806,0.015843982,0.094723344
0.077957614,0.201644485,0.015846629,0.094699245
0.077942765,0.201640039,0.015849226,0.094675184
0.077927889,0.20163547,0.015851771,0.094651161
0.077912986,0.201630781,0.015854265,0.094627172
0.077898059,0.201625975,0.015856708,0.094603215
0.077883111,0.201621052,0.015859099,0.094579288
0.077868144,0.201616015,0.015861439,0.094555389
0.07785316,0.201610865,0.015863728,0.094531517
0.077838161,0.201605604,0.015865964,0.09450767
0.07782315,0.201600232,0.015868149,0.094483848
0.077808128,0.20159475,0.015870282,0.094460051
0.077793097,0.201589159,0.015872362,0.094436277
0.077778059,0.201583459,0.015874391,0.094412526
0.077763015,0.201577651,0.015876367,0.094388796
0.077747967,0.201571735,0.01587829,0.094365086
0.077732916,0.201565712,0.015880162,0.094341395
0.077717864,0.20155958,0.01588198,0.094317721
0.077702812,0.201553341,0.015883746,0.094294062
0.077687762,0.201546993,0.015885459,0.094270416
0.077672715,0.201540536,0.015887119,0.094246782
0.077657672,0.20153397,0.015888727,0.094223158
0.077642635,0.201527294,0.015890282,0.094199542
0.077627605,0.201520509,0.015891783,0.094175932
0.077612582,0.201513615,0.015893232,0.094152329
0.077597568,0.201506613,0.015894627,0.09412873
0.077582565,0.201499502,0.015895969,0.094105136
0.077567573,0.201492284,0.015897257,0.094081546
0.077552593,0.201484958,0.015898491,0.094057959
0.077537627,0.201477523,0.015899671,0.094034373
0.077522676,0.201469979,0.015900797,0.09401079
0.077507741,0.201462326,0.015901869,0.09398721
0.077492823,0.201454563,0.015902886,0.093963633
0.077477923,0.201446688,0.015903849,0.093940061
0.077463042,0.2014387,0.015904757,0.093916496
0.077448181,0.201430598,0.01590561,0.09389294
0.07743334,0.201422379,0.015906409,0.093869393
0.077418521,0.201414043,0.015907154,0.093845858
0.077403724,0.201405587,0.015907843,0.093822335
0.07738895,0.201397009,0.015908478,0.093798827
0.077374201,0.201388307,0.015909059,0.093775334
0.077359476,0.20137948,0.015909585,0.093751858
0.077344778,0.201370524,0.015910056,0.0937284
0.077330107,0.201361438,0.015910472,0.093704963
0.077315466,0.20135222,0.015910833,0.093681551
0.077300856,0.201342867,0.015911138,0.093658166
0.077286278,0.201333379,0.015911388,0.093634813
0.077271734,0.201323753,0.015911581,0.093611493
0.077257227,0.201313989,0.015911718,0.09358821
0.07724276,0.201304086,0.015911798,0.093564967
0.077228334,0.201294044,0.01591182,0.093541767
0.077213952,0.201283862,0.015911785,0.093518613
0.077199618,0.201273538,0.015911692,0.093495508
0.077185333,0.201263073,0.01591154,0.093472453
0.077171101,0.201252463,0.01591133,0.093449452
0.077156923,0.201241709,0.01591106,0.093426507
0.077142801,0.201230809,0.015910732,0.093403621
0.077128738,0.201219761,0.015910344,0.093380794
0.077114735,0.201208563,0.015909896,0.093358032
0.077100794,0.201197213,0.015909388,0.093335335
0.077086917,0.201185709,0.015908821,0.093312708
0.077073104,0.201174049,0.015908193,0.093290152
0.077059358,0.20116223,0.015907504,0.09326767
0.07704568,0.201150249,0.015906754,0.093245263
0.077032069,0.201138104,0.015905943,0.093222935
0.077018528,0.201125793,0.015905071,0.093200686
0.077005058,0.201113313,0.015904137,0.09317852
0.076991659,0.201100662,0.015903141,0.093156437
0.076978331,0.201087837,0.015902083,0.09313444
0.076965077,0.201074836,0.015900963,0.09311253
0.076951898,0.201061658,0.015899779,0.09309071
0.076938793,0.201048299,0.015898532,0.09306898
0.076925764,0.201034757,0.015897222,0.093047342
0.076912813,0.201021032,0.015895848,0.093025796
0.076899939,0.201007121,0.015894409,0.093004343
0.076887142,0.200993023,0.015892906,0.092982983
0.076874425,0.200978736,0.015891337,0.092961716
0.076861786,0.200964262,0.015889704,0.092940541
0.076849226,0.200949598,0.015888004,0.09291946
0.076836746,0.200934746,0.015886238,0.09289847
0.076824345,0.200919704,0.015884405,0.092877571
0.076812024,0.200904473,0.015882505,0.092856762
0.076799784,0.200889054,0.015880538,0.092836042
0.076787625,0.200873447,0.015878501,0.092815409
0.076775546,0.200857651,0.015876397,0.092794863
0.07676355,0.200841668,0.015874223,0.092774401
0.076751635,0.200825497,0.01587198,0.092754022
0.076739803,0.200809137,0.015869667,0.092733724
0.076728054,0.200792588,0.015867286,0.092713506
0.076716389,0.20077585,0.015864834,0.092693363
0.076704809,0.200758922,0.015862313,0.092673295
0.076693314,0.200741805,0.015859723,0.092653298
0.076681906,0.200724498,0.015857062,0.092633371
0.076670586,0.200707005,0.01585433,0.092613513
0.076659354,0.200689326,0.015851528,0.092593724
0.076648213,0.200671464,0.015848655,0.092574002
0.076637164,0.200653421,0.01584571,0.092554348
0.076626207,0.2006352,0.015842694,0.09253476
0.076615344,0.200616804,0.015839607,0.092515238
0.076604575,0.200598234,0.015836448,0.09249578
0.076593901,0.200579494,0.015833217,0.092476385
0.076583324,0.200560586,0.015829915,0.092457052
0.076572842,0.200541514,0.015826541,0.092437778
0.076562458,0.20052228,0.015823095,0.092418565
0.076552171,0.200502886,0.015819577,0.09239941
0.076541982,0.200483336,0.015815988,0.092380313
0.076531892,0.200463631,0.015812327,0.092361273
0.076521901,0.200443774,0.015808594,0.092342289
0.076512009,0.200423767,0.015804789,0.09232336
0.076502218,0.200403612,0.015800912,0.092304486
0.076492526,0.200383311,0.015796964,0.092285665
0.076482935,0.200362866,0.015792944,0.092266899
0.076473445,0.200342279,0.015788852,0.092248185
0.076464056,0.20032155,0.015784689,0.092229525
0.076454768,0.200300682,0.015780453,0.092210918
0.076445582,0.200279677,0.015776146,0.092192365
0.076436499,0.200258536,0.015771767,0.092173867
0.076427518,0.200237262,0.015767317,0.092155426
0.07641864,0.200215856,0.015762795,0.092137043
0.076409865,0.20019432,0.015758202,0.092118719
0.076401193,0.200172654,0.015753537,0.092100457
0.076392625,0.20015086,0.015748802,0.092082259
0.07638416,0.200128938,0.015743997,0.092064125
0.076375801,0.200106889,0.015739121,0.092046058
0.076367546,0.200084714,0.015734175,0.092028059
0.076359398,0.200062413,0.015729159,0.092010129
0.076351357,0.200039987,0.015724074,0.091992271
0.076343423,0.200017436,0.015718918,0.091974487
0.076335597,0.199994762,0.015713693,0.091956777
0.07632788,0.199971964,0.015708398,0.091939146
0.076320272,0.199949042,0.015703034,0.091921594
0.076312773,0.199925996,0.015697599,0.091904123
0.076305384,0.199902827,0.015692096,0.091886737
0.076298105,0.199879534,0.015686522,0.091869437
0.076290937,0.199856116,0.015680879,0.091852225
0.076283879,0.199832573,0.015675166,0.091835102
0.076276931,0.199808906,0.015669383,0.091818071
0.076270095,0.199785112,0.015663531,0.091801134
0.076263368,0.199761193,0.015657609,0.091784291
0.076256751,0.199737148,0.015651619,0.091767545
0.076250245,0.199712977,0.015645559,0.091750899
0.076243847,0.199688679,0.01563943,0.091734355
0.076237559,0.199664253,0.015633234,0.091717917
0.076231379,0.199639699,0.015626969,0.091701587
0.076225306,0.199615016,0.015620636,0.091685369
0.076219342,0.199590205,0.015614235,0.091669265
0.076213483,0.199565265,0.015607767,0.091653279
0.076207731,0.199540196,0.015601232,0.091637414
0.076202085,0.199514998,0.015594629,0.091621672
0.076196544,0.199489671,0.015587959,0.091606056
0.076191108,0.199464216,0.015581222,0.091590571
0.076185776,0.199438633,0.015574418,0.09157522
0.076180549,0.199412922,0.015567547,0.091560007
0.076175427,0.199387086,0.01556061,0.091544935
0.076170409,0.199361126,0.015553605,0.091530009
0.076165495,0.199335044,0.015546533,0.091515231
0.076160684,0.199308843,0.015539395,0.091500606
0.076155977,0.199282524,0.01553219,0.091486138
0.076151371,0.199256088,0.015524919,0.091471831
0.076146868,0.199229537,0.015517581,0.09145769
0.076142466,0.199202873,0.015510177,0.091443718
0.076138164,0.199176098,0.015502707,0.091429922
0.076133962,0.199149212,0.015495171,0.091416307
0.076129859,0.199122218,0.01548757,0.091402876
0.076125854,0.199095116,0.015479902,0.091389636
0.076121947,0.199067907,0.015472169,0.09137659
0.076118136,0.199040594,0.01546437,0.091363744
0.076114421,0.199013179,0.015456506,0.091351103
0.076110802,0.198985664,0.015448577,0.091338669
0.076107278,0.198958052,0.015440583,0.091326448
0.076103849,0.198930349,0.015432524,0.091314443
0.076100513,0.198902557,0.0154244,0.091302657
0.076097272,0.198874682,0.015416211,0.091291093
0.076094123,0.198846728,0.015407959,0.091279755
0.076091068,0.198818699,0.015399641,0.091268643
0.076088105,0.198790601,0.01539126,0.091257762
0.076085234,0.198762436,0.015382815,0.091247113
0.076082454,0.198734209,0.015374307,0.0912367
0.076079764,0.198705926,0.015365736,0.091226527
0.076077163,0.198677589,0.015357101,0.091216596
0.076074651,0.198649203,0.015348404,0.09120691
0.076072225,0.198620772,0.015339644,0.091197473
0.076069886,0.198592299,0.015330822,0.091188285
0.076067631,0.198563788,0.015321937,0.091179351
0.076065459,0.198535243,0.015312992,0.091170671
0.076063369,0.198506668,0.015303984,0.091162247
0.07606136,0.198478068,0.015294917,0.091154082
0.076059431,0.198449448,0.015285788,0.091146177
0.07605758,0.198420814,0.0152766,0.091138533
0.076055806,0.198392169,0.015267352,0.091131151
0.076054107,0.198363518,0.015258045,0.091124032
0.076052482,0.198334866,0.015248679,0.091117177
0.07605093,0.198306218,0.015239255,0.091110588
0.076049448,0.198277577,0.015229771,0.091104264
0.076048036,0.198248949,0.01522023,0.091098207
0.07604669,0.198220336,0.01521063,0.091092418
0.076045411,0.198191744,0.015200972,0.091086898
0.076044195,0.198163176,0.015191256,0.091081648
0.07604304,0.198134637,0.015181483,0.091076668
0.076041946,0.19810613,0.015171654,0.09107196
0.076040909,0.198077659,0.015161767,0.091067525
0.076039927,0.198049229,0.015151824,0.091063363
0.076038999,0.198020842,0.015141826,0.091059475
0.076038121,0.197992502,0.015131771,0.09105586
0.076037292,0.19796421,0.015121661,0.091052519
0.076036509,0.19793597,0.015111496,0.091049452
0.07603577,0.197907783,0.015101276,0.091046658
0.076035072,0.197879652,0.015091001,0.091044136
0.076034412,0.197851578,0.01508067,0.091041887
0.076033788,0.197823564,0.015070285,0.091039911
0.076033196,0.197795612,0.015059846,0.091038209
0.076032636,0.197767725,0.015049352,0.091036783
0.076032102,0.197739906,0.015038804,0.091035631
0.076031594,0.197712157,0.015028202,0.091034757
0.076031107,0.19768448,0.015017546,0.09103416
0.076030639,0.197656878,0.015006836,0.091033843
0.076030187,0.19762935,0.014996071,0.091033805
0.076029748,0.1976019,0.014985253,0.091034049
0.076029318,0.197574526,0.014974381,0.091034575
0.076028894,0.197547231,0.014963455,0.091035385
0.076028474,0.197520013,0.014952475,0.091036479
0.076028053,0.197492874,0.014941441,0.091037859
0.07602763,0.197465813,0.014930353,0.091039526
0.0760272,0.197438831,0.014919212,0.091041481
0.07602676,0.197411928,0.014908016,0.091043725
0.076026306,0.197385104,0.014896767,0.09104626
0.076025836,0.197358362,0.014885463,0.091049087
0.076025345,0.197331702,0.014874105,0.091052207
0.07602483,0.197305127,0.014862694,0.091055621
0.076024289,0.197278639,0.014851228,0.09105933
0.076023717,0.19725224,0.014839707,0.091063333
0.076023114,0.197225934,0.014828133,0.091067633
