processed_ch1,processed_ch2,processed_ch3,processed_ch4
0.096596822,0.175460238,0.043268796,0.061791383
0.096585201,0.175519898,0.043274542,0.061743261
0.096573264,0.175579406,0.043280188,0.061695055
0.096561013,0.17563876,0.043285736,0.061646767
0.096548451,0.17569796,0.043291185,0.061598399
0.09653558,0.175757005,0.043296535,0.061549955
0.096522404,0.175815893,0.043301787,0.061501437
0.096508926,0.175874624,0.043306941,0.061452846
0.09649515,0.175933195,0.043311997,0.061404187
0.096481079,0.175991607,0.043316955,0.061355462
0.096466718,0.176049858,0.043321817,0.061306673
0.09645207,0.176107947,0.043326583,0.061257824
0.096437141,0.176165871,0.043331254,0.061208918
0.096421934,0.17622363,0.043335829,0.061159956
0.096406452,0.176281222,0.043340309,0.061110943
0.096390701,0.176338646,0.043344695,0.06106188
0.096374684,0.176395901,0.043348986,0.061012768
0.096358404,0.176452988,0.043353183,0.060963612
0.096341866,0.176509904,0.043357287,0.060914411
0.096325072,0.176566648,0.043361297,0.060865169
0.096308027,0.176623219,0.043365214,0.060815886
0.096290733,0.176679615,0.043369038,0.060766565
0.096273194,0.176735834,0.043372769,0.060717209
0.096255411,0.176791874,0.043376408,0.060667819
0.096237389,0.176847733,0.043379955,0.060618398
0.09621913,0.17690341,0.043383411,0.060568949
0.096200635,0.1769589,0.043386774,0.060519473
0.096181908,0.177014201,0.043390045,0.060469973
0.096162951,0.177069311,0.043393225,0.060420451
0.096143765,0.177124226,0.043396313,0.060370908
0.096124354,0.177178942,0.043399309,0.060321347
0.096104718,0.177233456,0.043402214,0.06027177
0.09608486,0.177287765,0.043405026,0.060222177
0.096064782,0.177341866,0.043407747,0.060172572
0.096044487,0.177395757,0.043410377,0.060122955
0.096023974,0.177449434,0.043412914,0.060073328
0.096003248,0.177502896,0.04341536,0.060023693
0.095982308,0.177556137,0.043417715,0.059974052
0.095961156,0.177609157,0.043419977,0.059924406
0.095939794,0.17766195,0.043422147,0.059874756
0.095918223,0.177714514,0.043424226,0.059825105
0.095896443,0.177766845,0.043426211,0.059775454
0.095874457,0.177818939,0.043428103,0.059725806
0.095852264,0.177870791,0.043429902,0.059676163
0.095829866,0.177922399,0.043431607,0.059626528
0.095807263,0.177973756,0.043433218,0.059576902
0.095784455,0.178024859,0.043434734,0.059527288
0.095761444,0.178075703,0.043436154,0.059477688
0.095738229,0.178126282,0.043437479,0.059428102
0.09571481,0.178176592,0.043438707,0.059378533
0.095691189,0.178226628,0.043439838,0.059328982
0.095667365,0.178276384,0.043440871,0.059279449
0.095643338,0.178325855,0.043441805,0.059229937
0.095619108,0.178375035,0.04344264,0.059180446
0.095594675,0.178423918,0.043443375,0.059130977
0.095570039,0.178472499,0.04344401,0.059081532
0.095545199,0.178520772,0.043444543,0.059032111
0.095520156,0.178568732,0.043444974,0.058982718
0.095494908,0.178616371,0.043445302,0.058933353
0.095469456,0.178663684,0.043445528,0.058884018
0.095443798,0.178710665,0.04344565,0.058834715
0.095417934,0.178757307,0.043445667,0.058785446
0.095391864,0.178803604,0.04344558,0.058736212
0.095365587,0.178849551,0.043445387,0.058687014
0.095339101,0.17889514,0.043445088,0.058637856
0.095312407,0.178940364,0.043444683,0.058588736
0.095285503,0.178985219,0.043444171,0.058539658
0.095258388,0.179029695,0.043443551,0.058490624
0.095231062,0.179073788,0.043442824,0.058441635
0.095203525,0.179117491,0.043441988,0.058392695
0.095175775,0.179160798,0.043441045,0.058343808
0.095147812,0.179203701,0.043439992,0.058294977
0.095119638,0.179246195,0.043438831,0.058246206
0.095091251,0.179288273,0.043437561,0.058197498
0.095062653,0.179329929,0.043436182,0.058148856
0.095033842,0.179371157,0.043434696,0.058100284
0.095004818,0.179411951,0.043433102,0.058051785
0.094975583,0.179452305,0.043431402,0.058003361
0.094946135,0.179492212,0.043429598,0.057955017
0.094916474,0.179531667,0.04342769,0.057906755
0.094886602,0.179570664,0.043425681,0.057858578
0.094856516,0.179609196,0.043423574,0.057810489
0.094826219,0.179647259,0.043421369,0.05776249
0.094795709,0.179684847,0.043419069,0.057714584
0.094764986,0.179721957,0.043416676,0.057666773
0.094734051,0.179758584,0.043414193,0.057619059
0.094702902,0.179794724,0.04341162,0.057571445
0.09467154,0.179830374,0.043408961,0.057523932
0.094639964,0.17986553,0.043406217,0.057476522
0.094608175,0.17990019,0.043403391,0.057429217
0.09457617,0.179934351,0.043400483,0.057382018
0.09454395,0.179968011,0.043397496,0.057334927
0.094511514,0.180001169,0.043394432,0.057287947
0.094478862,0.180033821,0.043391292,0.057241077
0.094445991,0.180065966,0.043388078,0.057194321
0.094412903,0.180097602,0.043384792,0.057147678
0.094379595,0.180128726,0.043381434,0.057101149
0.094346067,0.180159336,0.043378008,0.057054736
0.094312317,0.18018943,0.043374514,0.05700844
0.094278344,0.180219006,0.043370954,0.056962261
0.094244147,0.180248062,0.04336733,0.056916201
0.094209724,0.180276595,0.043363642,0.056870261
0.094175074,0.180304604,0.043359893,0.056824442
0.094140196,0.180332086,0.043356084,0.056778745
0.094105087,0.180359039,0.043352215,0.056733169
0.094069746,0.180385462,0.043348288,0.056687716
0.094034171,0.180411352,0.043344303,0.056642385
0.093998361,0.180436707,0.043340262,0.056597178
0.093962314,0.180461525,0.043336166,0.056552095
0.093926028,0.180485803,0.043332015,0.056507138
0.093889503,0.180509539,0.043327809,0.056462308
0.093852738,0.18053273,0.043323551,0.056417606
0.09381573,0.180555372,0.04331924,0.056373032
0.093778478,0.180577463,0.043314876,0.056328588
0.093740982,0.180598999,0.043310461,0.056284276
0.093703239,0.180619977,0.043305995,0.056240097
0.093665248,0.180640394,0.043301478,0.056196053
0.093627008,0.180660246,0.04329691,0.056152146
0.093588517,0.180679529,0.043292293,0.056108377
0.093549773,0.18069824,0.043287625,0.056064748
0.093510774,0.180716374,0.043282907,0.056021261
0.09347152,0.180733928,0.04327814,0.055977915
0.093432009,0.180750897,0.043273324,0.055934713
0.093392239,0.180767278,0.043268459,0.055891654
0.093352208,0.180783067,0.043263547,0.055848741
0.093311917,0.18079826,0.043258586,0.055805972
0.093271362,0.180812853,0.043253579,0.055763349
0.093230543,0.180826842,0.043248524,0.055720873
0.09318946,0.180840224,0.043243424,0.055678544
0.093148111,0.180852995,0.043238277,0.055636365
0.093106495,0.18086515,0.043233084,0.055594336
0.093064613,0.180876685,0.043227846,0.055552461
0.093022463,0.180887598,0.043222563,0.055510741
0.092980047,0.180897885,0.043217235,0.055469176
0.092937363,0.180907543,0.043211862,0.055427769
0.092894412,0.18091657,0.043206444,0.05538652
0.092851193,0.180924964,0.043200981,0.05534543
0.092807706,0.180932722,0.043195472,0.0553045
0.092763951,0.180939841,0.043189919,0.055263731
0.092719927,0.180946319,0.043184321,0.055223122
0.092675635,0.180952151,0.043178679,0.055182676
0.092631073,0.180957336,0.043172992,0.055142392
0.092586244,0.180961868,0.043167261,0.055102272
0.092541145,0.180965747,0.043161486,0.055062315
0.092495778,0.180968968,0.043155667,0.055022522
0.092450142,0.180971529,0.043149805,0.054982894
0.092404237,0.180973427,0.0431439,0.054943432
0.092358064,0.180974659,0.043137951,0.054904138
0.092311623,0.180975223,0.04313196,0.054865012
0.092264913,0.180975116,0.043125927,0.054826058
0.092217935,0.180974334,0.043119851,0.054787276
0.092170688,0.180972876,0.043113735,0.05474867
0.092123171,0.180970739,0.043107577,0.054710241
0.092075386,0.180967919,0.04310138,0.054671991
0.09202733,0.180964413,0.043095142,0.054633921
0.091979005,0.180960219,0.043088866,0.054596032
0.091930409,0.180955333,0.043082551,0.054558326
0.091881541,0.180949752,0.043076199,0.054520804
0.091832403,0.180943471,0.04306981,0.054483465
0.091782992,0.180936488,0.043063385,0.054446312
0.091733311,0.1809288,0.043056925,0.054409342
0.091683357,0.180920403,0.04305043,0.054372557
0.091633132,0.180911295,0.0430439,0.054335956
0.091582635,0.180901473,0.043037336,0.054299539
0.091531866,0.180890934,0.043030737,0.054263305
0.091480826,0.180879676,0.043024105,0.054227255
0.091429515,0.180867695,0.04301744,0.054191387
0.091377933,0.18085499,0.043010742,0.054155702
0.09132608,0.180841557,0.043004011,0.0541202
0.091273957,0.180827396,0.042997249,0.054084879
0.091221563,0.180812501,0.042990456,0.054049741
0.0911689,0.180796872,0.042983632,0.054014784
0.091115969,0.180780506,0.042976779,0.053980007
0.091062769,0.180763402,0.042969896,0.053945412
0.091009304,0.180745556,0.042962985,0.053910997
0.090955574,0.180726968,0.042956046,0.053876763
0.09090158,0.180707637,0.04294908,0.053842711
0.090847324,0.18068756,0.042942087,0.053808841
0.090792809,0.180666738,0.042935069,0.053775155
0.090738035,0.180645169,0.042928025,0.053741652
0.090683005,0.180622852,0.042920956,0.053708334
0.09062772,0.180599788,0.042913864,0.053675203
0.090572183,0.180575975,0.042906748,0.05364226
0.090516396,0.180551415,0.042899609,0.053609505
0.090460361,0.180526108,0.042892448,0.053576941
0.090404078,0.180500057,0.042885266,0.053544568
0.090347551,0.180473264,0.042878064,0.053512388
0.090290781,0.180445734,0.042870841,0.053480402
0.090233771,0.18041747,0.0428636,0.053448612
0.090176522,0.180388476,0.04285634,0.053417021
0.090119038,0.180358756,0.042849062,0.05338563
0.090061322,0.180328314,0.042841768,0.053354443
0.090003376,0.180297154,0.042834457,0.053323462
0.089945202,0.180265277,0.042827132,0.053292691
0.089886806,0.180232689,0.042819793,0.053262129
0.089828189,0.180199392,0.042812441,0.053231781
0.089769356,0.180165389,0.042805077,0.053201647
0.089710311,0.180130684,0.042797703,0.053171729
0.089651058,0.180095279,0.042790319,0.053142029
0.0895916,0.180059179,0.042782926,0.053112548
0.089531942,0.180022387,0.042775526,0.053083287
0.089472086,0.179984907,0.042768118,0.053054247
0.089412037,0.179946743,0.042760704,0.053025429
0.089351799,0.179907898,0.042753285,0.052996833
0.089291376,0.179868377,0.042745862,0.05296846
0.089230771,0.179828183,0.042738435,0.052940311
0.089169988,0.179787318,0.042731005,0.052912386
0.089109031,0.179745787,0.042723573,0.052884687
0.089047905,0.179703593,0.04271614,0.052857213
0.088986611,0.179660739,0.042708706,0.052829965
0.088925155,0.17961723,0.042701271,0.052802943
0.08886354,0.17957307,0.042693836,0.052776147
0.088801768,0.179528261,0.042686402,0.052749577
0.088739844,0.179482809,0.042678968,0.052723232
0.08867777,0.179436717,0.042671536,0.052697113
0.088615549,0.179389988,0.042664105,0.05267122
0.088553185,0.179342626,0.042656675,0.052645552
0.088490681,0.179294635,0.042649248,0.05262011
0.088428039,0.179246019,0.042641822,0.052594893
0.088365262,0.179196779,0.042634399,0.0525699
0.088302354,0.179146921,0.042626977,0.052545132
0.088239317,0.179096446,0.042619558,0.052520587
0.088176154,0.179045358,0.042612141,0.052496265
0.088112869,0.17899366,0.042604726,0.052472166
0.088049465,0.178941355,0.042597313,0.05244829
0.087985946,0.178888446,0.042589901,0.052424635
0.087922314,0.178834936,0.042582492,0.052401203
0.087858574,0.178780827,0.042575085,0.052377995
0.08779473,0.178726122,0.042567681,0.052355011
0.087730787,0.178670825,0.04256028,0.052332252
0.087666748,0.17861494,0.042552882,0.052309719
0.087602618,0.17855847,0.042545488,0.052287414
0.087538402,0.17850142,0.042538099,0.052265337
0.087474106,0.178443795,0.042530715,0.052243488
0.087409735,0.178385597,0.042523336,0.05222187
0.087345293,0.178326832,0.042515962,0.052200483
0.087280786,0.178267502,0.042508595,0.052179331
0.087216218,0.178207613,0.042501235,0.052158414
0.087151595,0.178147167,0.042493882,0.052137737
0.087086922,0.178086168,0.042486536,0.052117299
0.087022202,0.178024621,0.042479198,0.052097103
0.086957442,0.177962528,0.042471868,0.052077151
0.086892646,0.177899893,0.042464545,0.052057442
0.086827818,0.177836721,0.04245723,0.052037979
0.086762965,0.177773015,0.042449924,0.052018761
0.08669809,0.17770878,0.042442626,0.05199979
0.086633197,0.177644019,0.042435336,0.051981065
0.086568293,0.177578737,0.042428055,0.051962586
0.08650338,0.177512938,0.042420781,0.051944353
0.086438463,0.177446625,0.042413516,0.051926367
0.086373547,0.177379804,0.042406259,0.051908626
0.086308636,0.177312478,0.04239901,0.051891131
0.086243732,0.177244654,0.042391768,0.05187388
0.086178842,0.177176336,0.042384534,0.051856874
0.086113968,0.177107532,0.042377308,0.051840113
0.086049115,0.177038246,0.042370088,0.051823595
0.085984287,0.176968484,0.042362875,0.05180732
0.085919488,0.176898254,0.042355668,0.051791289
0.08585472,0.17682756,0.042348466,0.0517755
0.08578999,0.176756408,0.04234127,0.051759954
0.085725299,0.176684805,0.042334079,0.051744652
0.085660653,0.176612756,0.042326893,0.051729595
0.085596055,0.176540265,0.04231971,0.051714785
0.085531509,0.176467339,0.042312531,0.051700223
0.08546702,0.176393981,0.042305355,0.051685911
0.08540259,0.176320196,0.042298181,0.051671851
0.085338224,0.176245987,0.042291009,0.051658043
0.085273924,0.17617136,0.042283838,0.051644489
0.085209694,0.176096319,0.042276667,0.051631189
0.085145538,0.176020865,0.042269495,0.051618145
0.085081458,0.175945005,0.042262322,0.051605357
0.085017457,0.17586874,0.042255147,0.051592824
0.084953538,0.175792076,0.042247969,0.051580546
0.084889704,0.175715016,0.042240787,0.051568524
0.084825957,0.175637564,0.0422336,0.051556757
0.0847623,0.175559724,0.042226409,0.051545244
0.084698734,0.1754815,0.042219211,0.051533985
0.084635263,0.175402899,0.042212007,0.051522979
0.084571889,0.175323926,0.042204796,0.051512224
0.084508615,0.175244586,0.042197577,0.05150172
0.084445442,0.175164887,0.042190349,0.051491465
0.084382375,0.175084835,0.042183113,0.051481457
0.084319414,0.175004435,0.042175866,0.051471695
0.084256564,0.174923694,0.042168609,0.051462177
0.084193827,0.174842618,0.04216134,0.051452901
0.084131204,0.174761214,0.042154059,0.051443865
0.084068698,0.174679486,0.042146764,0.051435067
0.084006311,0.174597441,0.042139456,0.051426505
0.083944045,0.174515083,0.042132132,0.051418178
0.083881903,0.174432417,0.042124793,0.051410082
0.083819886,0.174349449,0.042117437,0.051402217
0.083757996,0.174266182,0.042110063,0.05139458
0.083696234,0.174182621,0.04210267,0.05138717
0.083634603,0.174098772,0.042095256,0.051379984
0.083573104,0.174014638,0.042087821,0.051373021
0.083511739,0.173930225,0.042080364,0.051366279
0.083450509,0.173845537,0.042072883,0.051359755
0.083389417,0.173760578,0.042065378,0.051353448
0.083328463,0.173675355,0.042057847,0.051347355
0.083267651,0.173589871,0.04205029,0.051341476
0.083206981,0.17350413,0.042042706,0.051335809
0.083146457,0.173418136,0.042035094,0.051330352
0.083086081,0.173331895,0.042027455,0.051325105
0.083025854,0.173245408,0.042019787,0.051320065
0.082965778,0.173158682,0.04201209,0.051315233
0.082905856,0.173071719,0.042004363,0.051310608
0.08284609,0.172984525,0.041996606,0.05130619
0.08278648,0.172897103,0.041988818,0.05130198
0.08272703,0.172809459,0.041980998,0.051297981
0.08266774,0.172721598,0.041973146,0.051294194
0.082608614,0.172633524,0.041965261,0.051290622
0.082549652,0.17254524,0.041957341,0.051287268
0.082490856,0.172456753,0.041949387,0.051284134
0.08243223,0.172368064,0.041941398,0.051281222
0.082373775,0.172279178,0.041933372,0.051278534
0.082315494,0.172190098,0.04192531,0.051276072
0.08225739,0.172100828,0.04191721,0.051273838
0.082199465,0.172011371,0.041909072,0.051271833
0.082141725,0.17192173,0.041900894,0.051270058
0.082084172,0.171831909,0.041892677,0.051268515
0.08202681,0.171741911,0.041884419,0.051267205
0.081969644,0.17165174,0.041876121,0.051266128
0.081912678,0.171561399,0.041867782,0.051265285
0.081855916,0.171470893,0.041859401,0.051264675
0.081799361,0.171380225,0.041850978,0.051264298
0.081743016,0.171289399,0.041842512,0.051264155
0.081686887,0.171198419,0.041834002,0.051264246
0.081630977,0.171107287,0.041825449,0.051264572
0.08157529,0.171016008,0.04181685,0.051265134
0.08151983,0.170924584,0.041808206,0.051265931
0.0814646,0.17083302,0.041799515,0.051266965
0.081409604,0.170741317,0.041790777,0.051268236
0.081354847,0.17064948,0.041781992,0.051269744
0.081300331,0.17055751,0.041773159,0.05127149
0.081246061,0.170465412,0.041764277,0.051273472
0.08119204,0.170373188,0.041755347,0.051275692
0.081138272,0.17028084,0.041746369,0.051278149
0.08108476,0.170188373,0.041737341,0.051280843
0.081031508,0.170095788,0.041728266,0.051283776
0.080978518,0.17000309,0.041719141,0.051286945
0.080925795,0.16991028,0.041709968,0.051290352
0.080873341,0.169817363,0.041700747,0.051293996
0.080821159,0.169724343,0.041691478,0.051297877
0.080769251,0.169631223,0.041682161,0.051301994
0.080717622,0.169538009,0.041672796,0.051306346
0.080666274,0.169444703,0.041663383,0.051310933
0.080615209,0.169351309,0.041653922,0.051315756
0.08056443,0.169257832,0.041644413,0.051320814
0.08051394,0.169164275,0.041634857,0.051326107
0.080463742,0.169070642,0.041625252,0.051331636
0.080413836,0.168976937,0.0416156,0.051337401
0.080364225,0.168883167,0.0416059,0.051343402
0.080314912,0.168789337,0.041596151,0.051349639
0.080265898,0.168695453,0.041586354,0.051356113
0.080217185,0.168601521,0.041576508,0.051362824
0.080168774,0.168507547,0.041566614,0.05136977
0.080120666,0.168413535,0.041556669,0.05137695
0.080072865,0.168319492,0.041546676,0.051384365
0.08002537,0.168225423,0.041536632,0.051392013
0.079978183,0.168131332,0.041526537,0.051399893
0.079931306,0.168037225,0.041516392,0.051408004
0.079884741,0.167943107,0.041506196,0.051416344
0.079838489,0.167848983,0.041495947,0.051424912
0.079792551,0.167754859,0.041485646,0.051433706
0.07974693,0.167660741,0.041475292,0.051442725
0.079701628,0.167566632,0.041464885,0.051451965
0.079656648,0.167472539,0.041454425,0.051461426
0.079611991,0.167378466,0.04144391,0.051471104
0.07956766,0.167284418,0.041433342,0.051480998
0.079523658,0.167190399,0.041422719,0.051491106
0.079479986,0.167096413,0.041412042,0.051501425
0.079436648,0.167002464,0.041401309,0.051511954
0.079393645,0.166908556,0.041390521,0.051522691
0.079350979,0.166814693,0.041379678,0.051533635
0.079308654,0.166720877,0.041368778,0.051544783
0.07926667,0.166627113,0.041357822,0.051556134
0.079225031,0.166533403,0.04134681,0.051567685
0.079183737,0.166439753,0.041335742,0.051579436
0.079142791,0.166346164,0.041324618,0.051591384
0.079102195,0.166252641,0.041313436,0.051603527
0.079061951,0.166159187,0.041302198,0.051615862
0.079022059,0.166065809,0.041290903,0.051628389
0.078982521,0.16597251,0.041279551,0.051641105
0.078943339,0.165879296,0.041268141,0.051654008
0.078904513,0.165786171,0.041256673,0.051667095
0.078866045,0.16569314,0.041245146,0.051680366
0.078827935,0.165600206,0.041233561,0.051693818
0.078790183,0.165507375,0.041221917,0.05170745
0.078752791,0.165414649,0.041210214,0.051721261
0.078715759,0.165322032,0.041198451,0.05173525
0.078679087,0.16522953,0.041186628,0.051749415
0.078642776,0.165137146,0.041174745,0.051763755
0.078606825,0.165044885,0.041162801,0.051778268
0.078571236,0.164952751,0.041150797,0.051792955
0.078536008,0.164860749,0.041138732,0.051807813
0.078501141,0.164768883,0.041126606,0.051822842
0.078466637,0.164677155,0.041114419,0.051838038
0.078432496,0.164585571,0.041102171,0.051853401
0.078398717,0.164494133,0.041089861,0.051868929
0.078365302,0.164402846,0.04107749,0.051884619
0.078332252,0.164311711,0.041065057,0.05190047
0.078299567,0.164220734,0.041052562,0.05191648
0.078267249,0.164129919,0.041040005,0.051932648
0.078235299,0.164039269,0.041027385,0.051948972
0.078203717,0.163948789,0.041014702,0.051965452
0.078172505,0.163858482,0.041001956,0.051982087
0.078141664,0.163768354,0.040989147,0.051998877
0.078111196,0.163678407,0.040976274,0.05201582
0.078081101,0.163588647,0.040963339,0.052032916
0.078051381,0.163499077,0.04095034,0.052050164
0.078022038,0.1634097,0.040937277,0.052067564
0.077993071,0.163320522,0.040924152,0.052085115
0.077964483,0.163231544,0.040910963,0.052102815
0.077936274,0.163142771,0.04089771,0.052120666
0.077908445,0.163054206,0.040884394,0.052138666
0.077880996,0.16296585,0.040871014,0.052156817
0.07785393,0.162877707,0.04085757,0.052175117
0.077827248,0.162789778,0.040844062,0.052193567
0.07780095,0.162702067,0.040830489,0.052212167
0.077775038,0.162614574,0.040816852,0.052230916
0.077749514,0.162527302,0.04080315,0.052249815
0.07772438,0.162440252,0.040789383,0.052268862
0.077699636,0.162353425,0.040775551,0.052288058
0.077675285,0.162266823,0.040761654,0.052307402
0.077651328,0.162180446,0.04074769,0.052326892
0.077627766,0.162094297,0.04073366,0.052346529
0.077604601,0.162008375,0.040719562,0.052366311
0.077581835,0.161922682,0.040705397,0.052386236
0.077559468,0.161837218,0.040691164,0.052406305
0.077537502,0.161751984,0.040676862,0.052426515
0.07751594,0.16166698,0.040662492,0.052446866
0.077494782,0.161582208,0.040648052,0.052467357
0.077474031,0.161497666,0.040633543,0.052487984
0.077453688,0.161413356,0.040618963,0.052508748
0.077433753,0.161329278,0.040604314,0.052529645
0.077414228,0.161245431,0.040589594,0.052550674
0.077395114,0.161161814,0.040574803,0.052571834
0.077376411,0.161078428,0.040559941,0.052593124
0.077358121,0.160995273,0.040545008,0.052614544
0.077340245,0.160912348,0.040530002,0.052636091
0.077322783,0.160829655,0.040514924,0.052657765
0.077305738,0.160747193,0.040499773,0.052679565
0.07728911,0.160664966,0.040484548,0.05270149
0.077272902,0.160582975,0.040469249,0.052723539
0.077257114,0.160501222,0.040453876,0.052745712
0.077241749,0.160419709,0.04043843,0.052768006
0.077226809,0.16033844,0.040422909,0.052790421
0.077212294,0.160257419,0.040407314,0.052812955
0.077198208,0.160176653,0.040391644,0.052835607
0.07718455,0.160096149,0.0403759,0.052858375
0.077171323,0.160015915,0.040360082,0.052881259
0.077158527,0.159935959,0.040344188,0.052904256
0.077146165,0.159856287,0.040328219,0.052927364
0.077134237,0.159776908,0.040312175,0.052950581
0.077122746,0.159697829,0.040296054,0.052973906
0.077111692,0.159619058,0.040279858,0.052997336
0.077101078,0.1595406,0.040263586,0.053020869
0.077090905,0.159462463,0.040247236,0.053044503
0.077081174,0.159384654,0.040230811,0.053068235
0.077071886,0.159307179,0.040214308,0.053092063
0.077063043,0.159230045,0.040197728,0.053115985
0.077054645,0.159153256,0.040181072,0.053139997
0.077046695,0.159076819,0.040164338,0.053164097
0.077039191,0.159000741,0.040147528,0.053188282
0.077032137,0.158925026,0.04013064,0.053212549
0.077025531,0.158849681,0.040113676,0.053236895
0.077019376,0.158774714,0.040096635,0.053261316
0.07701367,0.15870013,0.040079518,0.053285809
0.077008415,0.158625938,0.040062324,0.05331037
0.077003611,0.158552146,0.040045054,0.053334998
0.076999257,0.158478761,0.040027708,0.053359688
0.076995353,0.158405791,0.040010287,0.05338444
0.076991899,0.158333243,0.03999279,0.053409252
0.076988894,0.158261124,0.039975217,0.053434123
0.076986338,0.158189441,0.03995757,0.053459051
0.076984228,0.1581182,0.039939848,0.053484037
0.076982565,0.158047407,0.039922053,0.053509079
0.076981348,0.157977067,0.039904185,0.053534176
0.076980574,0.157907186,0.039886245,0.053559328
0.076980243,0.157837769,0.039868233,0.053584533
0.076980353,0.157768821,0.03985015,0.053609791
0.076980904,0.157700344,0.039831998,0.053635101
0.076981893,0.157632344,0.039813778,0.053660462
0.07698332,0.157564824,0.03979549,0.053685874
0.076985185,0.157497788,0.039777136,0.053711335
0.076987485,0.157431239,0.039758717,0.053736846
0.07699022,0.157365179,0.039740233,0.053762406
0.07699339,0.157299612,0.039721687,0.053788015
0.076996991,0.157234539,0.039703078,0.053813672
0.077001023,0.157169964,0.039684408,0.053839375
0.077005484,0.157105889,0.039665677,0.053865125
0.077010373,0.157042315,0.039646888,0.05389092
0.077015687,0.156979244,0.039628041,0.05391676
0.077021425,0.156916679,0.039609137,0.053942643
0.077027584,0.156854622,0.039590177,0.05396857
0.077034162,0.156793076,0.039571163,0.053994538
0.077041157,0.156732046,0.039552095,0.054020548
0.077048567,0.156671535,0.039532976,0.054046598
0.077056389,0.156611547,0.039513805,0.054072689
0.07706462,0.156552086,0.039494586,0.054098818
0.077073258,0.156493155,0.039475318,0.054124986
0.077082301,0.156434757,0.039456003,0.05415119
0.077091745,0.156376896,0.039436643,0.054177429
0.077101587,0.156319573,0.039417238,0.054203703
0.077111825,0.156262792,0.039397789,0.05423001
0.077122456,0.156206556,0.039378297,0.05425635
0.077133477,0.156150866,0.039358764,0.054282721
0.077144886,0.156095725,0.03933919,0.054309123
0.07715668,0.156041135,0.039319575,0.054335554
0.077168856,0.155987098,0.039299922,0.054362013
0.077181413,0.155933615,0.03928023,0.054388499
0.077194348,0.155880688,0.039260501,0.05441501
0.077207659,0.155828317,0.039240736,0.054441546
0.077221344,0.155776504,0.039220937,0.054468103
0.077235403,0.155725251,0.039201104,0.05449468
0.077249832,0.155674557,0.039181239,0.054521275
0.077264632,0.155624424,0.039161344,0.054547886
0.077279799,0.155574855,0.039141419,0.054574511
0.077295334,0.155525849,0.039121467,0.054601147
0.077311235,0.155477408,0.03910149,0.054627791
0.077327501,0.155429532,0.039081487,0.054654441
0.077344132,0.155382222,0.039061463,0.054681095
0.077361127,0.155335479,0.039041417,0.054707751
0.077378485,0.155289301,0.039021351,0.054734409
0.077396206,0.155243689,0.039001266,0.054761066
0.077414288,0.155198642,0.038981165,0.054787723
0.07743273,0.15515416,0.038961047,0.05481438
0.077451533,0.155110243,0.038940914,0.054841036
0.077470694,0.155066889,0.038920768,0.05486769
0.077490214,0.1550241,0.03890061,0.05489434
0.07751009,0.154981874,0.038880441,0.054920987
0.077530323,0.154940212,0.038860262,0.054947628
0.077550911,0.154899115,0.038840075,0.054974262
0.077571852,0.154858582,0.03881988,0.055000887
0.077593145,0.154818613,0.038799679,0.055027502
0.077614787,0.154779208,0.038779472,0.055054104
0.077636778,0.154740366,0.038759261,0.055080692
0.077659115,0.154702086,0.038739047,0.055107263
0.077681795,0.154664366,0.03871883,0.055133816
0.077704817,0.154627206,0.038698612,0.055160348
0.077728176,0.154590603,0.038678393,0.055186858
0.077751872,0.154554555,0.038658175,0.055213342
0.077775901,0.154519061,0.038637957,0.055239798
0.077800259,0.154484118,0.038617741,0.055266225
0.077824944,0.154449723,0.038597526,0.055292618
0.077849952,0.154415874,0.038577315,0.055318977
0.07787528,0.154382567,0.038557107,0.055345297
0.077900925,0.1543498,0.038536904,0.055371577
0.077926884,0.15431757,0.038516704,0.055397814
0.077953155,0.154285874,0.03849651,0.055424006
0.077979733,0.154254708,0.038476322,0.055450151
0.078006617,0.154224071,0.03845614,0.055476247
0.078033804,0.154193959,0.038435965,0.055502293
0.078061289,0.154164371,0.038415797,0.05552829
0.078089071,0.154135303,0.038395637,0.055554238
0.078117147,0.154106754,0.038375485,0.055580138
0.078145513,0.15407872,0.038355343,0.055605989
0.078174168,0.154051198,0.038335211,0.055631792
0.078203109,0.154024187,0.03831509,0.055657547
0.078232332,0.153997683,0.038294981,0.055683254
0.078261835,0.153971683,0.038274883,0.055708913
0.078291616,0.153946184,0.038254798,0.055734522
0.07832167,0.153921183,0.038234726,0.055760082
0.078351997,0.153896678,0.038214668,0.055785591
0.078382592,0.153872665,0.038194623,0.055811048
0.078413454,0.153849139,0.038174592,0.055836451
0.07844458,0.153826098,0.038154576,0.055861801
0.078475967,0.153803538,0.038134575,0.055887095
0.078507613,0.153781453,0.038114588,0.055912333
0.078539516,0.15375984,0.038094617,0.055937512
0.078571672,0.153738693,0.038074662,0.055962631
0.07860408,0.153718009,0.038054722,0.055987689
0.078636735,0.153697782,0.038034799,0.056012682
0.078669637,0.153678008,0.038014893,0.056037609
0.078702782,0.153658682,0.037995004,0.056062467
0.078736167,0.1536398,0.037975134,0.056087253
0.078769789,0.153621359,0.037955281,0.056111966
0.078803647,0.153603354,0.037935448,0.056136603
0.078837737,0.153585783,0.037915635,0.056161162
0.078872057,0.153568642,0.037895842,0.05618564
0.078906605,0.153551927,0.037876072,0.056210035
0.078941377,0.153535635,0.037856325,0.056234347
0.07897637,0.153519762,0.037836602,0.056258572
0.079011583,0.153504303,0.037816906,0.056282709
0.079047012,0.153489255,0.037797237,0.056306757
0.079082653,0.153474614,0.037777596,0.056330712
0.079118504,0.153460374,0.037757986,0.056354572
0.079154561,0.153446533,0.037738407,0.056378335
0.079190821,0.153433087,0.037718861,0.056401999
0.079227281,0.153420031,0.037699349,0.056425562
0.079263936,0.153407362,0.037679871,0.056449024
0.079300785,0.153395074,0.037660429,0.056472382
0.079337823,0.153383164,0.037641024,0.056495636
0.079375048,0.153371629,0.037621657,0.056518784
0.079412455,0.153360463,0.037602329,0.056541825
0.079450042,0.153349663,0.037583042,0.056564758
0.079487806,0.153339224,0.037563797,0.056587581
0.079525742,0.153329143,0.037544594,0.056610294
0.079563847,0.153319414,0.037525434,0.056632895
0.079602118,0.153310034,0.03750632,0.056655382
0.07964055,0.153300999,0.037487251,0.056677756
0.079679142,0.153292306,0.037468229,0.056700014
0.079717887,0.153283949,0.037449253,0.056722157
0.079756783,0.153275924,0.037430326,0.056744183
0.079795827,0.153268228,0.037411448,0.056766093
0.079835013,0.153260856,0.037392619,0.056787886
0.079874339,0.153253804,0.03737384,0.056809561
0.0799138,0.153247067,0.037355112,0.056831117
0.079953394,0.153240641,0.037336437,0.056852552
0.079993117,0.15323452,0.037317813,0.056873867
0.080032966,0.1532287,0.037299243,0.056895058
0.080072937,0.153223178,0.037280727,0.056916125
0.080113028,0.153217949,0.037262265,0.056937066
0.080153235,0.153213009,0.037243859,0.056957878
0.080193555,0.153208355,0.037225508,0.05697856
0.080233986,0.153203983,0.037207213,0.056999109
0.080274525,0.153199892,0.037188975,0.057019525
0.08031517,0.153196078,0.037170793,0.057039804
0.080355917,0.153192538,0.037152669,0.057059946
0.080396764,0.153189268,0.037134604,0.057079948
0.080437709,0.153186267,0.037116596,0.057099809
0.080478749,0.15318353,0.037098648,0.057119527
0.080519882,0.153181054,0.037080759,0.057139099
0.080561107,0.153178836,0.03706293,0.057158523
0.080602422,0.153176873,0.03704516,0.057177799
0.080643824,0.153175161,0.03702745,0.057196923
0.080685313,0.153173697,0.0370098,0.057215894
0.080726886,0.153172478,0.03699221,0.057234711
0.080768542,0.153171498,0.03697468,0.05725337
0.080810279,0.153170756,0.036957209,0.057271871
0.080852095,0.153170246,0.036939797,0.057290209
0.080893989,0.153169964,0.036922444,0.057308384
0.080935958,0.153169907,0.036905151,0.057326393
0.080978002,0.15317007,0.036887915,0.057344233
0.081020118,0.153170448,0.036870738,0.057361904
0.081062305,0.153171036,0.036853619,0.057379402
0.081104561,0.153171831,0.036836557,0.057396725
0.081146883,0.153172827,0.036819553,0.057413872
0.08118927,0.15317402,0.036802605,0.05743084
0.08123172,0.153175407,0.036785714,0.057447629
0.081274231,0.153176983,0.036768879,0.057464236
0.0813168,0.153178745,0.0367521,0.057480663
0.081359425,0.15318069,0.036735376,0.057496911
0.081402105,0.153182813,0.036718708,0.057512979
0.081444837,0.153185113,0.036702093,0.057528869
0.08148762,0.153187584,0.036685533,0.057544583
0.08153045,0.153190225,0.036669028,0.057560121
0.081573327,0.153193031,0.036652576,0.057575483
0.081616249,0.153195999,0.036636178,0.057590671
0.081659213,0.153199127,0.036619834,0.057605684
0.081702218,0.153202414,0.036603544,0.057620522
0.081745263,0.153205859,0.036587307,0.057635186
0.081788346,0.153209462,0.036571123,0.057649675
0.081831467,0.153213223,0.036554991,0.05766399
0.081874626,0.153217142,0.036538912,0.057678129
0.081917822,0.153221217,0.036522885,0.057692093
0.081961057,0.153225448,0.03650691,0.057705881
0.082004331,0.153229835,0.036490987,0.057719492
0.082047646,0.153234375,0.036475114,0.057732928
0.082091003,0.153239069,0.036459292,0.057746189
0.082134405,0.153243913,0.036443521,0.057759276
0.082177853,0.153248908,0.0364278,0.05777219
0.082221348,0.15325405,0.036412129,0.057784933
0.082264892,0.153259339,0.036396507,0.057797504
0.082308487,0.153264774,0.036380935,0.057809906
0.082352134,0.153270353,0.03636541,0.057822139
0.082395834,0.153276075,0.036349934,0.057834203
0.082439588,0.153281941,0.036334505,0.0578461
0.082483397,0.15328795,0.036319122,0.05785783
0.082527263,0.153294103,0.036303786,0.057869393
0.082571186,0.153300399,0.036288496,0.057880791
0.082615168,0.15330684,0.036273251,0.057892022
0.082659208,0.153313425,0.036258051,0.057903089
0.082703308,0.153320154,0.036242896,0.05791399
0.082747468,0.153327027,0.036227786,0.057924725
0.082791689,0.153334045,0.03621272,0.057935296
0.082835971,0.153341205,0.036197699,0.057945701
0.082880315,0.153348509,0.036182721,0.05795594
0.082924721,0.153355955,0.036167787,0.057966015
0.082969189,0.153363542,0.036152896,0.057975925
0.083013718,0.153371271,0.036138048,0.05798567
0.08305831,0.153379139,0.036123242,0.057995252
0.083102964,0.153387147,0.036108478,0.058004669
0.083147678,0.153395294,0.036093755,0.058013921
0.083192454,0.153403578,0.036079073,0.05802301
0.083237291,0.153411998,0.036064432,0.058031933
0.083282188,0.153420553,0.03604983,0.058040692
0.083327144,0.153429242,0.036035268,0.058049285
0.083372159,0.153438062,0.036020744,0.058057714
0.083417231,0.153447012,0.036006259,0.058065978
0.08346236,0.153456092,0.035991812,0.058074077
0.083507545,0.153465299,0.035977402,0.058082012
0.083552784,0.153474633,0.035963028,0.058089782
0.083598076,0.153484093,0.035948691,0.058097389
0.08364342,0.153493679,0.035934389,0.058104833
0.083688814,0.153503389,0.035920121,0.058112115
0.083734256,0.153513223,0.035905888,0.058119235
0.083779744,0.15352318,0.035891689,0.058126194
0.083825277,0.15353326,0.035877522,0.058132993
0.083870854,0.153543464,0.035863387,0.058139631
0.083916472,0.153553793,0.035849283,0.058146109
0.083962131,0.153564247,0.035835209,0.058152426
0.084007827,0.153574829,0.035821165,0.058158585
0.08405356,0.153585539,0.03580715,0.058164583
0.084099328,0.153596378,0.035793162,0.058170421
0.084145128,0.153607347,0.035779201,0.058176099
0.08419096,0.153618447,0.035765265,0.058181617
0.084236822,0.153629677,0.035751354,0.058186975
0.084282714,0.153641038,0.035737466,0.058192172
0.084328634,0.153652529,0.0357236,0.058197209
0.084374582,0.153664151,0.035709756,0.058202086
0.084420557,0.153675904,0.035695933,0.058206803
0.084466558,0.153687787,0.035682129,0.058211359
0.084512585,0.153699801,0.035668343,0.058215754
0.084558637,0.153711947,0.035654576,0.058219989
0.084604713,0.153724226,0.035640825,0.058224062
0.084650811,0.153736638,0.035627091,0.058227976
0.084696931,0.153749184,0.035613372,0.05823173
0.084743072,0.153761866,0.035599667,0.058235328
0.084789234,0.153774685,0.035585976,0.058238769
0.084835415,0.153787643,0.035572298,0.058242056
0.084881614,0.15380074,0.035558631,0.058245189
0.084927831,0.15381398,0.035544976,0.058248169
0.084974065,0.153827365,0.03553133,0.058250996
0.085020315,0.153840895,0.035517693,0.058253671
0.085066579,0.153854571,0.035504063,0.058256194
0.085112857,0.153868395,0.035490441,0.058258565
0.085159147,0.153882368,0.035476824,0.058260784
0.085205448,0.15389649,0.035463212,0.058262851
0.085251758,0.15391076,0.035449604,0.058264764
0.085298075,0.15392518,0.035435999,0.058266524
0.085344397,0.153939748,0.035422397,0.05826813
0.085390724,0.153954463,0.035408798,0.058269581
0.085437052,0.153969326,0.0353952,0.058270876
0.085483381,0.153984334,0.035381605,0.058272016
0.085529709,0.153999486,0.035368011,0.058272999
0.085576033,0.154014782,0.035354419,0.058273827
0.085622354,0.154030219,0.035340829,0.058274497
0.085668668,0.154045795,0.035327239,0.05827501
0.085714973,0.154061509,0.03531365,0.058275365
0.085761269,0.154077358,0.035300062,0.058275562
0.085807552,0.154093339,0.035286475,0.058275601
0.08585382,0.154109451,0.035272888,0.058275481
0.085900071,0.15412569,0.0352593,0.058275202
0.085946302,0.154142054,0.035245712,0.058274762
0.08599251,0.154158541,0.035232123,0.058274162
0.086038694,0.154175146,0.035218533,0.058273401
0.08608485,0.154191868,0.035204942,0.058272479
0.086130974,0.154208703,0.03519135,0.058271394
0.086177065,0.154225648,0.035177755,0.058270148
0.086223119,0.154242699,0.035164158,0.058268738
0.086269132,0.154259855,0.035150557,0.058267166
0.086315102,0.154277112,0.035136953,0.058265431
0.086361027,0.154294467,0.035123345,0.058263533
0.086406902,0.154311918,0.035109733,0.058261472
0.086452726,0.154329463,0.035096115,0.058259248
0.086498497,0.154347099,0.035082491,0.05825686
0.086544211,0.154364827,0.035068861,0.058254312
0.086589866,0.154382646,0.035055223,0.058251603
0.086635461,0.154400556,0.035041578,0.058248737
0.086680994,0.154418558,0.035027924,0.058245714
0.086726463,0.154436653,0.035014262,0.058242537
0.086771866,0.15445484,0.035000589,0.058239209
0.086817201,0.154473119,0.034986907,0.05823573
0.086862468,0.154491491,0.034973214,0.058232102
0.086907664,0.154509956,0.034959511,0.058228327
0.086952788,0.154528512,0.034945797,0.058224406
0.086997839,0.154547161,0.034932071,0.058220339
0.087042815,0.154565901,0.034918335,0.058216129
0.087087714,0.154584733,0.034904588,0.058211778
0.087132535,0.154603655,0.03489083,0.058207287
0.087177277,0.154622667,0.034877062,0.058202658
0.087221937,0.15464177,0.034863285,0.058197893
0.087266515,0.154660962,0.034849497,0.058192994
0.087311009,0.154680244,0.034835701,0.058187962
0.087355416,0.154699616,0.034821897,0.058182797
0.087399736,0.154719077,0.034808085,0.058177501
0.087443967,0.154738629,0.034794266,0.058172075
0.087488106,0.15475827,0.03478044,0.05816652
0.087532154,0.154778,0.034766608,0.058160837
0.087576108,0.154797819,0.034752771,0.058155027
0.087619967,0.154817726,0.034738929,0.05814909
0.08766373,0.154837719,0.034725085,0.058143029
0.087707394,0.154857797,0.034711239,0.058136843
0.08775096,0.154877959,0.034697392,0.058130534
0.087794424,0.154898202,0.034683546,0.058124102
0.087837786,0.154918525,0.034669701,0.05811755
0.087881043,0.154938925,0.034655859,0.058110879
0.087924195,0.1549594,0.034642021,0.058104092
0.087967238,0.154979947,0.034628188,0.058097192
0.088010172,0.155000563,0.034614361,0.05809018
0.088052993,0.155021245,0.034600542,0.058083059
0.088095701,0.15504199,0.03458673,0.058075832
0.088138292,0.155062794,0.034572927,0.058068501
0.088180765,0.155083655,0.034559134,0.058061068
0.08822312,0.15510457,0.034545352,0.058053536
0.088265353,0.155125534,0.034531581,0.058045907
0.088307466,0.155146547,0.034517822,0.058038184
0.088349458,0.155167603,0.034504077,0.05803037
0.088391329,0.155188701,0.034490345,0.058022469
0.088433079,0.155209835,0.034476629,0.058014484
0.08847471,0.155231005,0.03446293,0.058006418
0.08851622,0.155252205,0.034449248,0.057998276
0.088557612,0.155273434,0.034435585,0.057990061
0.088598884,0.155294688,0.034421941,0.057981778
0.088640039,0.155315964,0.034408317,0.05797343
0.088681076,0.155337261,0.034394715,0.05796502
0.088721995,0.155358574,0.034381134,0.057956552
0.088762797,0.155379902,0.034367577,0.057948029
0.088803481,0.155401241,0.034354042,0.057939454
0.088844048,0.15542259,0.034340532,0.05793083
0.088884498,0.155443946,0.034327046,0.057922161
0.088924829,0.155465306,0.034313585,0.05791345
0.088965043,0.155486668,0.034300151,0.0579047
0.089005138,0.155508031,0.034286743,0.057895914
0.089045114,0.155529391,0.034273363,0.057887097
0.089084972,0.155550749,0.03426001,0.05787825
0.089124711,0.155572103,0.034246686,0.057869376
0.089164329,0.155593451,0.034233392,0.057860478
0.089203828,0.155614792,0.034220127,0.057851558
0.089243205,0.155636125,0.034206892,0.057842618
0.089282461,0.155657447,0.034193688,0.057833658
0.089321595,0.155678756,0.034180515,0.057824682
0.089360606,0.155700051,0.034167373,0.057815689
0.089399493,0.155721328,0.034154263,0.057806681
0.089438256,0.155742586,0.034141186,0.057797659
0.089476895,0.155763822,0.034128141,0.057788624
0.08951541,0.155785033,0.034115129,0.057779578
0.089553799,0.155806219,0.034102152,0.057770521
0.089592065,0.155827377,0.034089208,0.057761456
0.089630205,0.155848505,0.0340763,0.057752382
0.08966822,0.1558696,0.034063428,0.057743303
0.08970611,0.155890662,0.034050592,0.05773422
0.089743875,0.155911689,0.034037792,0.057725133
0.089781515,0.155932678,0.03402503,0.057716046
0.089819029,0.155953627,0.034012306,0.057706959
0.089856418,0.155974536,0.033999619,0.057697872
0.089893682,0.155995401,0.033986971,0.057688788
0.089930822,0.156016222,0.033974361,0.057679707
0.089967837,0.156036995,0.03396179,0.05767063
0.090004729,0.156057719,0.033949257,0.057661557
0.090041498,0.15607839,0.033936764,0.057652488
0.090078146,0.156099008,0.03392431,0.057643422
0.090114673,0.156119569,0.033911895,0.057634361
0.090151082,0.156140071,0.033899521,0.057625302
0.090187374,0.156160512,0.033887186,0.057616247
0.090223552,0.156180889,0.033874893,0.057607195
0.090259616,0.156201201,0.03386264,0.057598146
0.090295568,0.156221446,0.033850428,0.057589103
0.090331411,0.156241622,0.033838257,0.057580064
0.090367146,0.156261727,0.033826127,0.057571033
0.090402774,0.156281759,0.033814038,0.057562008
0.090438297,0.156301717,0.03380199,0.057552993
0.090473717,0.156321598,0.033789982,0.057543988
0.090509036,0.1563414,0.033778016,0.057534994
0.090544254,0.156361121,0.03376609,0.057526012
0.090579373,0.156380758,0.033754206,0.057517042
0.090614394,0.15640031,0.033742362,0.057508084
0.090649319,0.156419773,0.033730559,0.057499141
0.090684149,0.156439145,0.033718796,0.057490211
0.090718885,0.156458422,0.033707074,0.057481297
0.090753528,0.156477602,0.033695392,0.057472398
0.090788079,0.15649668,0.03368375,0.057463517
0.09082254,0.156515652,0.033672148,0.057454654
0.090856909,0.156534516,0.033660586,0.057445812
0.09089119,0.156553266,0.033649063,0.057436992
0.090925382,0.156571899,0.033637578,0.057428198
0.090959485,0.156590411,0.033626132,0.057419431
0.090993502,0.156608797,0.033614725,0.057410694
0.091027431,0.156627054,0.033603355,0.057401988
0.091061274,0.156645178,0.033592022,0.057393316
0.091095031,0.156663165,0.033580726,0.057384679
0.091128702,0.156681012,0.033569465,0.057376079
0.091162288,0.156698715,0.033558241,0.057367518
0.091195789,0.15671627,0.033547052,0.057358996
0.091229204,0.156733675,0.033535899,0.057350515
0.091262534,0.156750925,0.033524781,0.057342075
0.091295779,0.156768016,0.033513699,0.057333678
0.091328939,0.156784946,0.033502654,0.057325322
0.091362014,0.156801713,0.033491646,0.05731701
0.091395003,0.156818313,0.033480675,0.057308741
0.091427908,0.156834746,0.033469743,0.057300515
0.091460728,0.156851011,0.033458849,0.057292333
0.091493463,0.156867107,0.033447994,0.057284193
0.091526114,0.156883031,0.033437179,0.057276096
0.09155868,0.156898784,0.033426404,0.05726804
0.091591163,0.156914364,0.03341567,0.057260027
0.091623561,0.15692977,0.033404977,0.057252055
0.091655875,0.156945,0.033394327,0.057244123
0.091688106,0.156960054,0.03338372,0.057236231
0.091720253,0.156974931,0.033373156,0.057228378
0.091752316,0.156989629,0.033362638,0.057220563
0.091784295,0.157004147,0.033352165,0.057212787
0.091816191,0.157018483,0.033341738,0.057205047
0.091848002,0.157032636,0.033331359,0.057197343
0.091879729,0.157046604,0.033321028,0.057189675
0.091911372,0.157060384,0.033310745,0.057182043
0.09194293,0.157073976,0.033300512,0.057174447
0.091974403,0.157087375,0.033290329,0.057166886
0.09200579,0.157100581,0.033280196,0.057159361
0.092037092,0.157113591,0.033270114,0.057151871
0.092068306,0.157126404,0.033260084,0.057144417
0.092099434,0.157139017,0.033250106,0.057136998
0.092130473,0.157151428,0.033240181,0.057129617
0.092161422,0.157163635,0.03323031,0.057122274
0.092192282,0.157175635,0.033220492,0.05711497
0.092223051,0.157187427,0.033210728,0.057107706
0.092253727,0.157199008,0.03320102,0.057100484
0.092284309,0.157210376,0.033191367,0.057093305
0.092314796,0.157221527,0.03318177,0.05708617
0.092345186,0.157232461,0.033172229,0.057079082
0.092375478,0.157243174,0.033162744,0.057072041
0.09240567,0.157253666,0.033153317,0.057065048
0.09243576,0.157263933,0.033143946,0.057058104
0.092465747,0.157273974,0.033134633,0.05705121
0.092495629,0.157283786,0.033125378,0.057044367
0.092525404,0.157293368,0.033116182,0.057037575
0.092555071,0.157302716,0.033107044,0.057030834
0.092584628,0.157311828,0.033097966,0.057024146
0.092614074,0.157320702,0.033088947,0.05701751
0.092643405,0.157329334,0.033079988,0.057010926
0.092672621,0.157337721,0.033071089,0.057004395
0.092701719,0.157345861,0.03306225,0.056997916
0.092730699,0.157353749,0.033053472,0.05699149
0.092759557,0.157361383,0.033044754,0.056985117
0.092788293,0.15736876,0.033036096,0.056978795
0.092816906,0.157375878,0.033027499,0.056972524
0.092845392,0.157382734,0.033018964,0.056966305
0.092873751,0.157389326,0.033010489,0.056960135
0.09290198,0.157395653,0.033002076,0.056954015
0.09293008,0.157401714,0.032993725,0.056947945
0.092958047,0.157407508,0.032985436,0.056941923
0.09298588,0.157413033,0.032977209,0.056935951
0.093013579,0.157418288,0.032969044,0.056930028
0.093041141,0.157423272,0.032960941,0.056924158
0.093068567,0.157427983,0.032952901,0.05691834
0.093095855,0.157432418,0.032944924,0.05691258
0.093123005,0.157436577,0.032937008,0.05690688
0.093150016,0.157440458,0.032929156,0.056901246
0.093176888,0.157444058,0.032921365,0.056895685
0.093203622,0.157447378,0.032913638,0.056890203
0.093230216,0.157450417,0.032905973,0.056884807
0.093256673,0.157453176,0.03289837,0.056879504
0.093282991,0.157455654,0.032890831,0.0568743
0.093309171,0.157457851,0.032883354,0.056869202
0.093335212,0.157459767,0.032875939,0.056864216
0.093361116,0.157461402,0.032868588,0.056859348
0.093386882,0.157462756,0.032861298,0.056854605
0.093412511,0.157463828,0.032854072,0.05684999
0.093438001,0.157464616,0.032846908,0.056845511
0.093463353,0.157465121,0.032839806,0.056841171
0.093488567,0.157465341,0.032832767,0.056836976
0.093513643,0.157465275,0.03282579,0.056832929
0.093538581,0.157464922,0.032818876,0.056829035
0.093563381,0.15746428,0.032812023,0.056825298
0.093588045,0.157463348,0.032805231,0.05682172
0.093612571,0.157462123,0.032798501,0.056818306
0.093636961,0.157460605,0.032791832,0.05681506
0.093661215,0.157458791,0.032785223,0.056811983
0.093685333,0.15745668,0.032778676,0.056809079
0.093709316,0.15745427,0.032772189,0.056806351
0.093733164,0.15745156,0.032765762,0.056803801
0.093756876,0.157448548,0.032759394,0.056801433
0.093780453,0.157445233,0.032753086,0.056799248
0.093803895,0.157441612,0.032746838,0.05679725
0.093827201,0.157437685,0.032740648,0.05679544
0.093850371,0.157433448,0.032734517,0.056793821
0.093873405,0.1574289,0.032728444,0.056792394
0.093896303,0.157424039,0.03272243,0.056791162
0.093919065,0.157418863,0.032716475,0.056790127
0.09394169,0.15741337,0.032710579,0.056789292
0.09396418,0.157407557,0.032704741,0.056788659
0.093986535,0.157401422,0.032698962,0.056788229
0.094008754,0.157394963,0.032693242,0.056788006
0.094030838,0.157388178,0.03268758,0.05678799
0.094052788,0.157381065,0.032681977,0.056788182
0.094074604,0.157373621,0.032676431,0.056788585
0.094096285,0.157365845,0.032670944,0.056789199
0.094117833,0.157357736,0.032665514,0.056790026
0.094139247,0.157349293,0.032660141,0.056791066
0.094160527,0.157340516,0.032654826,0.056792322
0.094181672,0.157331403,0.032649567,0.056793793
0.094202684,0.157321954,0.032644365,0.056795481
0.094223561,0.157312169,0.03263922,0.056797387
0.094244303,0.157302049,0.032634132,0.056799511
0.094264911,0.157291594,0.032629101,0.056801854
0.094285384,0.157280805,0.032624128,0.056804417
0.094305724,0.157269684,0.032619211,0.056807201
0.09432593,0.157258233,0.032614352,0.056810207
0.094346005,0.157246452,0.032609551,0.056813436
0.094365948,0.157234345,0.032604808,0.056816889
0.09438576,0.157221913,0.032600123,0.056820569
0.094405443,0.157209159,0.032595496,0.056824477
0.094424997,0.157196083,0.032590928,0.056828613
0.094444423,0.157182688,0.032586419,0.056832979
0.094463723,0.157168975,0.03258197,0.056837577
0.094482897,0.157154945,0.03257758,0.056842407
0.094501945,0.157140599,0.032573251,0.056847471
0.094520869,0.15712594,0.032568982,0.056852769
0.094539669,0.157110967,0.032564774,0.056858303
0.094558345,0.157095683,0.032560628,0.056864073
0.094576898,0.15708009,0.032556545,0.05687008
0.094595328,0.157064191,0.032552525,0.056876325
0.094613636,0.157047988,0.032548569,0.056882809
0.094631821,0.157031483,0.032544679,0.056889532
0.094649884,0.15701468,0.032540855,0.056896496
0.094667824,0.156997581,0.032537099,0.0569037
0.094685642,0.156980188,0.03253341,0.056911145
0.094703337,0.156962503,0.03252979,0.056918832
0.094720909,0.156944529,0.032526239,0.056926761
0.094738357,0.156926266,0.032522759,0.056934931
0.09475568,0.156907718,0.03251935,0.056943344
0.094772879,0.156888886,0.032516012,0.056951999
0.094789953,0.156869772,0.032512745,0.056960897
0.094806903,0.156850379,0.032509551,0.056970038
0.094823728,0.156830709,0.03250643,0.056979421
0.094840428,0.156810763,0.032503382,0.056989047
0.094857005,0.156790544,0.032500409,0.056998916
0.094873458,0.156770054,0.03249751,0.057009027
0.094889787,0.156749296,0.032494687,0.057019378
0.094905994,0.156728273,0.032491939,0.057029971
0.094922077,0.156706988,0.032489268,0.057040803
0.094938039,0.156685446,0.032486673,0.057051874
0.094953878,0.156663649,0.032484155,0.057063182
0.094969596,0.156641603,0.032481715,0.057074726
0.094985191,0.15661931,0.032479351,0.057086505
0.095000664,0.156596775,0.032477065,0.057098517
0.095016014,0.156574,0.032474857,0.057110761
0.095031243,0.15655099,0.032472727,0.057123238
0.095046349,0.156527748,0.032470675,0.057135945
0.095061334,0.156504279,0.032468702,0.057148884
0.095076197,0.156480586,0.032466807,0.057162055
0.095090939,0.156456674,0.032464992,0.057175459
0.09510556,0.156432548,0.032463255,0.057189096
0.095120061,0.156408214,0.032461598,0.057202967
0.095134441,0.156383677,0.032460021,0.057217072
0.095148702,0.156358944,0.032458524,0.057231411
0.095162843,0.156334021,0.032457106,0.057245983
0.095176865,0.156308915,0.032455769,0.057260787
0.095190768,0.156283632,0.032454513,0.057275824
0.095204552,0.156258176,0.032453338,0.057291092
0.095218218,0.156232554,0.032452244,0.05730659
0.095231765,0.15620677,0.032451232,0.057322319
0.095245193,0.156180832,0.032450304,0.057338278
0.095258502,0.156154746,0.032449459,0.057354467
0.095271691,0.156128516,0.032448697,0.057370887
0.095284762,0.156102151,0.032448021,0.057387537
0.095297711,0.156075655,0.032447429,0.057404417
0.09531054,0.156049034,0.032446924,0.057421528
0.095323247,0.156022294,0.032446505,0.057438869
0.095335833,0.15599544,0.032446173,0.05745644
0.095348295,0.155968477,0.032445928,0.05747424
0.095360634,0.155941413,0.032445771,0.057492269
0.095372849,0.155914253,0.032445703,0.057510526
0.09538494,0.155887004,0.032445724,0.05752901
0.095396905,0.155859671,0.032445833,0.05754772
0.095408746,0.155832261,0.032446033,0.057566655
0.095420462,0.155804778,0.032446323,0.057585814
0.095432053,0.155777228,0.032446704,0.057605194
0.09544352,0.155749616,0.032447175,0.057624796
0.095454861,0.155721948,0.032447738,0.057644616
0.095466078,0.155694226,0.032448393,0.057664655
0.09547717,0.155666457,0.032449141,0.05768491
0.095488137,0.155638643,0.03244998,0.057705379
0.095498979,0.155610789,0.032450913,0.057726063
0.095509696,0.155582899,0.032451939,0.057746958
0.095520287,0.155554976,0.032453058,0.057768064
0.095530751,0.155527024,0.032454271,0.057789379
0.095541088,0.155499046,0.032455578,0.057810901
0.095551297,0.155471044,0.032456978,0.057832629
0.095561377,0.155443024,0.032458471,0.057854561
0.095571327,0.155414987,0.032460058,0.057876696
0.095581147,0.155386935,0.032461738,0.057899032
0.095590836,0.155358873,0.03246351,0.057921568
0.095600393,0.155330802,0.032465375,0.057944301
0.095609817,0.155302723,0.032467331,0.05796723
0.095619108,0.155274641,0.032469378,0.057990353
0.095628266,0.155246555,0.032471516,0.058013669
0.09563729,0.155218468,0.032473745,0.058037175
0.095646181,0.155190383,0.032476063,0.05806087
0.095654938,0.155162299,0.032478471,0.058084754
0.095663561,0.155134219,0.032480969,0.058108825
0.09567205,0.155106143,0.032483556,0.058133082
0.095680405,0.155078073,0.032486232,0.058157523
0.095688627,0.155050009,0.032488998,0.058182148
0.095696715,0.155021953,0.032491853,0.058206954
0.095704671,0.154993904,0.032494799,0.05823194
0.095712494,0.154965863,0.032497834,0.058257103
0.095720186,0.154937832,0.03250096,0.058282442
0.095727747,0.154909812,0.032504176,0.058307953
0.095735177,0.154881804,0.032507483,0.058333634
0.095742478,0.15485381,0.032510882,0.058359483
0.095749649,0.154825832,0.032514372,0.058385498
0.095756693,0.154797872,0.032517952,0.058411674
0.095763608,0.15476993,0.032521624,0.058438011
0.095770395,0.15474201,0.032525388,0.058464504
0.095777053,0.154714112,0.032529242,0.058491151
0.095783584,0.15468624,0.032533187,0.058517948
0.095789987,0.154658395,0.032537223,0.058544892
0.095796261,0.154630581,0.03254135,0.058571979
0.095802406,0.154602801,0.032545569,0.058599206
0.095808422,0.154575058,0.032549877,0.058626567
0.095814309,0.154547355,0.032554277,0.058654061
0.095820065,0.154519694,0.032558767,0.058681684
0.095825692,0.15449208,0.032563348,0.058709431
0.095831187,0.154464517,0.032568018,0.058737302
0.095836551,0.154437011,0.032572778,0.058765293
0.095841782,0.154409568,0.032577628,0.058793403
0.09584688,0.154382194,0.032582566,0.05882163
0.095851843,0.154354894,0.032587593,0.058849974
0.095856672,0.154327677,0.032592709,0.058878432
0.095861365,0.154300547,0.032597912,0.058907003
0.095865921,0.15427351,0.032603202,0.058935686
0.095870339,0.154246575,0.03260858,0.058964477
0.09587462,0.154219744,0.032614044,0.058993376
0.09587876,0.154193025,0.032619595,0.059022379
0.095882761,0.154166423,0.032625232,0.059051485
0.095886619,0.154139942,0.032630955,0.059080691
0.095890336,0.154113588,0.032636765,0.059109995
0.095893909,0.154087366,0.032642661,0.059139395
0.095897339,0.154061281,0.032648643,0.059168889
0.095900624,0.154035337,0.032654713,0.059198476
0.095903764,0.154009539,0.03266087,0.059228154
0.095906759,0.153983891,0.032667115,0.059257922
0.095909609,0.153958398,0.032673447,0.059287778
0.095912314,0.153933063,0.032679868,0.059317721
0.095914877,0.153907891,0.032686378,0.05934775
0.095917297,0.153882886,0.032692978,0.059377864
0.095919576,0.15385805,0.032699667,0.059408062
0.095921717,0.153833388,0.032706447,0.059438343
0.09592372,0.153808902,0.032713318,0.059468707
0.095925587,0.153784595,0.032720282,0.059499153
0.09592732,0.153760472,0.032727338,0.059529681
0.095928922,0.153736534,0.032734488,0.059560289
0.095930392,0.153712784,0.032741733,0.059590977
0.095931735,0.153689223,0.032749073,0.059621742
0.09593295,0.153665855,0.032756511,0.059652584
0.095934041,0.153642681,0.032764046,0.059683501
0.095935007,0.153619703,0.032771679,0.059714491
0.095935851,0.153596922,0.032779412,0.059745551
0.095936574,0.15357434,0.032787246,0.05977668
0.095937177,0.153551958,0.03279518,0.059807876
0.095937662,0.15352978,0.032803217,0.059839137
0.095938028,0.153507808,0.032811356,0.059870462
0.095938279,0.153486043,0.032819599,0.059901849
0.095938413,0.153464489,0.032827945,0.059933295
0.095938434,0.153443147,0.032836397,0.0599648
0.095938341,0.153422019,0.032844953,0.05999636
0.095938135,0.153401106,0.032853615,0.060027976
0.095937817,0.153380411,0.032862383,0.060059643
0.095937388,0.153359934,0.032871258,0.06009136
0.095936849,0.153339678,0.03288024,0.060123125
0.095936198,0.153319642,0.03288933,0.060154935
0.095935437,0.153299831,0.032898528,0.060186788
0.095934566,0.153280244,0.032907833,0.060218681
0.095933585,0.153260883,0.032917248,0.060250611
0.095932494,0.153241749,0.032926771,0.060282578
0.095931292,0.153222843,0.032936403,0.06031458
0.09592998,0.153204166,0.032946144,0.060346614
0.095928557,0.153185716,0.032955995,0.06037868
0.095927022,0.153167495,0.032965954,0.060410776
0.095925375,0.153149503,0.032976022,0.0604429
0.095923616,0.153131738,0.032986199,0.060475051
0.095921743,0.1531142,0.032996485,0.060507226
0.095919755,0.153096888,0.033006879,0.060539423
0.095917652,0.153079801,0.03301738,0.06057164
0.095915432,0.153062938,0.033027989,0.060603875
0.095913096,0.153046298,0.033038705,0.060636126
0.095910642,0.153029883,0.033049528,0.060668392
0.095908068,0.15301369,0.033060457,0.060700671
0.095905375,0.15299772,0.033071491,0.060732962
0.095902562,0.152981972,0.03308263,0.060765265
0.095899626,0.152966446,0.033093873,0.060797578
0.095896569,0.152951139,0.033105219,0.060829903
0.095893388,0.152936052,0.033116668,0.060862239
0.095890083,0.152921182,0.033128218,0.060894588
0.095886654,0.152906528,0.033139869,0.06092695
0.095883099,0.15289209,0.03315162,0.060959327
0.095879417,0.152877865,0.033163469,0.060991722
0.095875608,0.152863852,0.033175416,0.061024138
0.09587167,0.152850048,0.03318746,0.061056577
0.095867603,0.152836453,0.033199599,0.061089043
0.095863405,0.152823062,0.033211833,0.061121538
0.095859075,0.152809876,0.033224161,0.061154065
0.095854612,0.152796892,0.033236581,0.061186625
0.095850015,0.152784108,0.033249092,0.06121922
0.095845282,0.152771524,0.033261695,0.061251853
0.095840413,0.152759139,0.033274389,0.061284524
0.095835405,0.152746952,0.033287174,0.061317233
0.095830258,0.152734961,0.03330005,0.061349983
0.09582497,0.152723167,0.033313018,0.061382772
0.095819541,0.152711568,0.033326078,0.061415602
0.095813968,0.152700165,0.033339232,0.061448472
0.095808251,0.152688959,0.033352481,0.061481385
0.095802388,0.15267795,0.033365825,0.06151434
0.095796377,0.152667139,0.033379266,0.061547338
0.095790218,0.152656526,0.033392804,0.06158038
0.09578391,0.152646113,0.033406441,0.061613467
0.095777451,0.152635899,0.033420179,0.061646601
0.09577084,0.152625884,0.033434018,0.061679782
0.095764076,0.15261607,0.03344796,0.061713012
0.09575716,0.152606457,0.033462006,0.061746291
0.095750089,0.152597045,0.033476157,0.06177962
0.095742865,0.152587836,0.033490414,0.061813
0.095735485,0.152578832,0.033504778,0.061846432
0.09572795,0.152570032,0.033519249,0.061879918
0.095720258,0.152561438,0.03353383,0.061913457
0.095712409,0.15255305,0.033548519,0.061947052
0.095704403,0.152544869,0.033563319,0.061980702
0.095696238,0.152536894,0.033578229,0.062014409
0.095687915,0.152529126,0.03359325,0.062048173
0.095679432,0.152521565,0.033608384,0.062081994
0.09567079,0.152514209,0.03362363,0.062115872
0.095661988,0.152507059,0.03363899,0.062149808
0.095653027,0.152500115,0.033654464,0.062183803
0.095643905,0.152493375,0.033670055,0.062217857
0.095634624,0.15248684,0.033685762,0.062251971
0.095625182,0.152480509,0.033701587,0.062286147
0.095615581,0.152474381,0.033717532,0.062320385
0.095605819,0.152468456,0.033733597,0.062354687
0.095595898,0.152462733,0.033749784,0.062389053
0.095585817,0.152457211,0.033766095,0.062423485
0.095575578,0.152451889,0.033782529,0.062457982
0.095565179,0.152446765,0.033799089,0.062492546
0.095554621,0.152441838,0.033815774,0.062527178
0.095543904,0.152437106,0.033832587,0.062561876
0.095533029,0.152432567,0.033849527,0.062596643
0.095521994,0.152428219,0.033866595,0.062631476
0.095510801,0.152424059,0.033883792,0.062666377
0.095499449,0.152420085,0.033901119,0.062701344
0.095487938,0.152416295,0.033918575,0.062736377
0.095476268,0.152412684,0.033936162,0.062771475
0.095464439,0.15240925,0.033953879,0.06280664
0.09545245,0.15240599,0.033971727,0.062841869
0.095440303,0.1524029,0.033989706,0.062877165
0.095427998,0.152399977,0.034007816,0.062912527
0.095415535,0.152397218,0.034026057,0.062947956
0.095402913,0.152394617,0.034044429,0.062983453
0.095390135,0.152392172,0.034062933,0.063019019
0.095377199,0.152389878,0.034081568,0.063054655
0.095364106,0.152387731,0.034100334,0.063090362
0.095350858,0.152385727,0.034119232,0.063126145
0.095337454,0.152383863,0.034138262,0.063162005
0.095323894,0.152382135,0.034157422,0.063197947
0.09531018,0.152380539,0.034176713,0.063233974
0.095296312,0.152379073,0.034196134,0.063270089
0.095282292,0.152377732,0.034215684,0.063306297
0.09526812,0.152376513,0.034235364,0.0633426
0.095253796,0.15237541,0.034255171,0.063379002
0.095239322,0.152374421,0.034275106,0.063415505
0.095224698,0.152373541,0.034295168,0.063452112
0.095209924,0.152372765,0.034315355,0.063488823
0.095195001,0.152372088,0.034335668,0.063525642
0.095179929,0.152371508,0.034356105,0.06356257
0.095164708,0.152371019,0.034376666,0.063599607
0.095149339,0.152370619,0.034397351,0.063636754
0.095133823,0.152370305,0.034418157,0.063674013
0.09511816,0.152370075,0.034439085,0.063711383
0.095102349,0.152369927,0.034460134,0.063748865
0.095086392,0.15236986,0.034481303,0.063786459
0.095070289,0.152369872,0.034502591,0.063824166
0.09505404,0.152369963,0.034523998,0.063861986
0.095037645,0.15237013,0.034545521,0.063899919
0.095021105,0.152370372,0.034567161,0.063937965
0.09500442,0.152370688,0.034588916,0.063976125
0.094987591,0.152371077,0.034610785,0.064014399
0.09497062,0.152371537,0.034632767,0.064052786
0.094953506,0.152372066,0.03465486,0.064091286
0.09493625,0.152372663,0.034677064,0.064129901
0.094918853,0.152373325,0.034699377,0.064168628
0.094901317,0.152374051,0.034721797,0.064207467
0.094883642,0.152374839,0.034744324,0.064246419
0.094865828,0.152375686,0.034766957,0.064285482
0.094847876,0.15237659,0.034789694,0.064324654
0.094829786,0.152377548,0.034812533,0.064363936
0.09481156,0.152378557,0.034835474,0.064403325
0.094793196,0.152379615,0.034858515,0.064442819
0.094774696,0.152380718,0.034881654,0.064482417
0.094756059,0.152381863,0.03490489,0.064522117
0.094737287,0.152383047,0.034928222,0.064561918
0.094718377,0.152384266,0.034951647,0.064601816
0.094699332,0.152385517,0.034975165,0.064641812
0.094680149,0.152386796,0.034998773,0.064681902
0.09466083,0.1523881,0.03502247,0.064722085
0.094641374,0.152389428,0.035046254,0.064762359
0.09462178,0.152390778,0.035070124,0.064802723
0.094602048,0.152392148,0.035094078,0.064843173
0.094582179,0.15239354,0.035118113,0.064883707
0.094562173,0.152394952,0.035142229,0.064924324
0.094542029,0.152396385,0.035166423,0.06496502
0.094521749,0.15239784,0.035190693,0.065005794
0.094501333,0.152399315,0.035215038,0.065046643
0.094480783,0.152400813,0.035239456,0.065087566
0.094460099,0.152402332,0.035263947,0.065128561
0.094439284,0.152403873,0.035288509,0.065169626
0.094418337,0.152405434,0.035313141,0.06521076
0.094397261,0.152407016,0.035337841,0.065251961
0.094376057,0.152408617,0.035362611,0.065293225
0.094354726,0.152410237,0.035387448,0.06533455
0.094333269,0.152411875,0.035412353,0.065375934
0.094311687,0.152413529,0.035437324,0.065417375
0.094289981,0.1524152,0.03546236,0.065458868
0.094268152,0.152416884,0.035487461,0.065500413
0.0942462,0.152418582,0.035512627,0.065542007
0.094224127,0.152420291,0.035537857,0.065583646
0.094201932,0.15242201,0.035563151,0.065625329
0.094179616,0.152423738,0.035588507,0.065667054
0.09415718,0.152425474,0.035613927,0.065708819
0.094134625,0.152427214,0.035639408,0.06575062
0.09411195,0.152428959,0.03566495,0.065792457
0.094089156,0.152430705,0.035690553,0.065834326
0.094066243,0.152432451,0.035716216,0.065876224
0.094043211,0.152434197,0.035741939,0.065918151
0.09402006,0.152435941,0.035767719,0.065960103
0.093996789,0.152437686,0.035793558,0.066002078
0.0939734,0.152439431,0.035819453,0.066044074
0.09394989,0.152441179,0.035845405,0.066086089
0.09392626,0.15244293,0.035871412,0.066128121
0.09390251,0.152444684,0.035897473,0.066170167
0.09387864,0.152446444,0.035923588,0.066212225
0.093854649,0.152448211,0.035949757,0.066254294
0.093830537,0.152449985,0.035975978,0.066296371
0.093806304,0.152451767,0.03600225,0.066338455
0.09378195,0.152453558,0.036028573,0.066380545
0.093757474,0.152455359,0.036054946,0.066422639
0.093732876,0.152457168,0.036081368,0.066464735
0.093708155,0.152458987,0.036107837,0.066506832
0.093683312,0.152460816,0.036134352,0.066548927
0.093658345,0.152462653,0.036160911,0.066591021
0.093633255,0.152464501,0.036187515,0.06663311
0.093608039,0.152466361,0.03621416,0.066675195
0.093582699,0.152468233,0.036240846,0.066717274
0.093557232,0.152470119,0.036267572,0.066759345
0.093531638,0.152472023,0.036294335,0.066801405
0.093505917,0.152473945,0.036321135,0.066843453
0.093480067,0.152475891,0.036347969,0.066885485
0.093454087,0.152477863,0.036374836,0.066927501
0.093427977,0.152479866,0.036401735,0.066969496
0.093401735,0.152481905,0.036428663,0.067011469
0.09337536,0.152483983,0.036455619,0.067053417
0.093348852,0.152486104,0.036482601,0.067095338
0.093322211,0.152488271,0.036509607,0.067137229
0.093295434,0.152490489,0.036536635,0.067179088
0.09326852,0.152492761,0.036563684,0.067220911
0.09324147,0.152495093,0.036590752,0.067262696
0.09321428,0.152497486,0.036617837,0.067304439
0.093186951,0.152499946,0.036644937,0.067346138
0.09315948,0.152502475,0.036672051,0.067387788
0.093131867,0.152505077,0.036699178,0.067429387
0.09310411,0.152507754,0.036726314,0.067470931
0.093076209,0.15251051,0.036753458,0.067512417
0.093048162,0.152513347,0.036780609,0.067553841
0.093019967,0.152516268,0.036807763,0.0675952
0.092991624,0.152519276,0.03683492,0.06763649
0.09296313,0.152522374,0.036862078,0.067677709
0.092934485,0.152525564,0.036889233,0.067718853
0.092905686,0.15252885,0.036916385,0.067759922
0.092876733,0.152532234,0.036943531,0.067800913
0.092847624,0.152535719,0.03697067,0.067841826
0.092818357,0.152539308,0.036997799,0.067882657
0.092788929,0.152543003,0.037024916,0.067923406
0.09275934,0.152546807,0.03705202,0.06796407
0.092729588,0.152550723,0.037079109,0.068004648
0.092699669,0.152554752,0.03710618,0.068045137
0.092669583,0.152558897,0.037133232,0.068085536
0.092639328,0.152563159,0.037160262,0.068125842
0.0926089,0.15256754,0.037187268,0.068166053
0.092578299,0.152572042,0.037214248,0.068206167
0.092547521,0.152576665,0.037241201,0.068246182
0.092516564,0.15258141,0.037268124,0.068286095
0.092485427,0.152586279,0.037295015,0.068325905
0.092454107,0.152591271,0.037321872,0.068365608
0.092422603,0.152596388,0.037348693,0.068405203
0.092390913,0.152601631,0.037375477,0.068444687
0.092359036,0.152607,0.037402221,0.068484058
0.092326971,0.152612495,0.037428923,0.068523312
0.092294717,0.152618119,0.037455581,0.068562448
0.092262274,0.15262387,0.037482194,0.068601464
0.09222964,0.152629752,0.037508759,0.068640357
0.092196816,0.152635765,0.037535277,0.068679123
0.092163801,0.152641913,0.037561745,0.068717762
0.092130594,0.152648198,0.037588162,0.06875627
0.092097196,0.152654625,0.037614529,0.068794645
0.092063605,0.152661196,0.037640844,0.068832885
0.092029822,0.152667914,0.037667108,0.068870987
0.091995847,0.152674782,0.03769332,0.06890895
0.091961678,0.152681804,0.037719479,0.068946771
0.091927317,0.152688981,0.037745585,0.068984448
0.091892763,0.152696315,0.037771638,0.069021977
0.091858015,0.152703808,0.037797637,0.069059358
0.091823073,0.152711463,0.037823581,0.069096586
0.091787937,0.15271928,0.037849471,0.069133659
0.091752607,0.152727262,0.037875305,0.069170575
0.091717081,0.152735412,0.037901082,0.069207332
0.091681361,0.152743731,0.037926803,0.069243926
0.091645445,0.152752223,0.037952465,0.069280356
0.091609334,0.152760888,0.03797807,0.069316619
0.091573026,0.152769731,0.038003615,0.069352714
0.091536522,0.152778753,0.0380291,0.069388638
0.091499822,0.152787956,0.038054526,0.069424389
0.091462923,0.152797345,0.038079891,0.069459966
0.091425827,0.152806921,0.038105195,0.069495367
0.091388534,0.152816689,0.038130436,0.06953059
0.091351043,0.152826651,0.038155616,0.069565636
0.091313355,0.152836809,0.038180732,0.069600504
0.09127547,0.152847166,0.038205784,0.069635194
0.091237389,0.152857724,0.038230771,0.069669705
0.091199112,0.152868484,0.038255693,0.069704038
0.09116064,0.152879448,0.038280548,0.069738195
0.091121975,0.152890618,0.038305335,0.069772174
0.091083118,0.152901994,0.038330054,0.069805977
0.091044068,0.152913577,0.038354702,0.069839604
0.091004827,0.152925368,0.03837928,0.069873054
0.090965397,0.152937369,0.038403786,0.069906327
0.090925777,0.152949579,0.038428218,0.069939423
0.090885968,0.152961999,0.038452576,0.06997234
0.090845972,0.152974629,0.038476857,0.070005078
0.090805791,0.152987471,0.038501061,0.070037636
0.090765427,0.153000524,0.038525187,0.070070013
0.09072488,0.153013789,0.038549232,0.070102206
0.090684154,0.153027267,0.038573197,0.070134215
0.090643251,0.153040958,0.038597078,0.070166039
0.090602174,0.153054863,0.038620874,0.070197675
0.090560926,0.153068981,0.038644585,0.070229124
0.090519508,0.153083314,0.038668209,0.070260384
0.090477924,0.153097861,0.038691743,0.070291454
0.090436176,0.153112623,0.038715188,0.070322334
0.090394266,0.153127599,0.03873854,0.070353022
0.090352196,0.153142789,0.0387618,0.070383517
0.09030997,0.153158193,0.038784965,0.070413818
0.090267588,0.153173811,0.038808034,0.070443925
0.090225053,0.153189643,0.038831007,0.070473837
0.090182367,0.15320569,0.038853881,0.070503552
0.090139532,0.153221953,0.038876655,0.070533072
0.090096549,0.153238431,0.038899328,0.070562395
0.090053422,0.153255125,0.038921899,0.070591522
0.090010151,0.153272037,0.038944366,0.070620452
0.089966738,0.153289168,0.038966728,0.070649184
0.089923185,0.153306518,0.038988984,0.070677719
0.089879494,0.15332409,0.039011132,0.070706055
0.089835666,0.153341884,0.03903317,0.070734192
0.089791702,0.153359901,0.039055099,0.070762128
0.089747604,0.153378141,0.039076915,0.070789862
0.089703373,0.153396605,0.039098619,0.070817394
0.08965901,0.153415293,0.039120208,0.070844722
0.089614516,0.153434206,0.039141682,0.070871846
0.089569893,0.153453343,0.039163037,0.070898764
0.089525141,0.153472703,0.039184274,0.070925475
0.089480261,0.153492285,0.039205391,0.070951978
0.089435256,0.153512088,0.039226385,0.070978272
0.089390125,0.153532111,0.039247257,0.071004356
0.08934487,0.153552353,0.039268003,0.071030227
0.089299493,0.153572812,0.039288624,0.071055883
0.089253996,0.153593486,0.039309116,0.071081324
0.089208379,0.153614373,0.03932948,0.071106547
0.089162643,0.153635471,0.039349713,0.071131549
0.089116791,0.153656778,0.039369815,0.071156329
0.089070822,0.153678293,0.039389783,0.071180884
0.089024739,0.153700011,0.039409616,0.071205213
0.088978541,0.153721931,0.039429314,0.071229315
0.088932231,0.15374405,0.039448874,0.071253189
0.08888581,0.153766364,0.039468296,0.071276832
0.088839278,0.153788869,0.039487578,0.071300245
0.088792637,0.153811562,0.039506719,0.071323425
0.088745889,0.153834441,0.039525717,0.071346371
0.088699033,0.153857501,0.039544573,0.071369082
0.088652071,0.15388074,0.039563283,0.071391556
0.088605005,0.153904154,0.039581849,0.071413792
0.088557834,0.15392774,0.039600268,0.071435789
0.088510562,0.153951494,0.03961854,0.071457546
0.088463187,0.153975414,0.039636663,0.071479061
0.088415713,0.153999495,0.039654637,0.071500333
0.08836814,0.154023734,0.03967246,0.071521361
0.08832047,0.154048129,0.039690132,0.071542143
0.088272703,0.154072676,0.039707652,0.071562677
0.088224841,0.154097372,0.039725019,0.071582963
0.088176884,0.154122215,0.039742233,0.071602998
0.088128835,0.1541472,0.039759291,0.071622784
0.088080694,0.154172326,0.039776194,0.071642318
0.088032462,0.154197587,0.039792941,0.071661603
0.087984141,0.15422298,0.039809531,0.071680639
0.087935732,0.154248502,0.039825964,0.071699429
0.087887236,0.154274147,0.039842239,0.071717973
0.087838656,0.154299911,0.039858355,0.071736275
0.087789992,0.15432579,0.039874313,0.071754334
0.087741246,0.154351779,0.039890111,0.071772153
0.087692419,0.154377874,0.039905749,0.071789734
0.087643514,0.154404071,0.039921227,0.071807076
0.08759453,0.154430365,0.039936544,0.071824181
0.087545471,0.154456754,0.0399517,0.071841051
0.087496336,0.154483233,0.039966695,0.071857685
0.087447128,0.154509798,0.039981528,0.071874085
0.087397847,0.154536447,0.0399962,0.071890252
0.087348495,0.154563174,0.040010709,0.071906186
0.087299072,0.154589976,0.040025057,0.071921886
0.08724958,0.15461685,0.040039243,0.071937354
0.087200019,0.15464379,0.040053267,0.07195259
0.08715039,0.154670793,0.040067128,0.071967593
0.087100695,0.154697856,0.040080827,0.071982364
0.087050934,0.154724973,0.040094364,0.071996903
0.087001108,0.154752142,0.040107739,0.072011209
0.086951217,0.15477936,0.040120951,0.072025281
0.086901263,0.154806624,0.040134001,0.07203912
0.086851247,0.154833933,0.040146888,0.072052725
0.086801168,0.154861285,0.040159613,0.072066094
0.086751029,0.15488868,0.040172175,0.072079228
0.08670083,0.154916114,0.040184575,0.072092125
0.086650573,0.154943586,0.040196812,0.072104786
0.086600257,0.154971095,0.040208886,0.072117209
0.086549884,0.154998638,0.040220797,0.072129395
0.086499456,0.155026215,0.040232545,0.072141343
0.086448973,0.155053822,0.040244131,0.072153054
0.086398438,0.155081457,0.040255554,0.072164526
0.08634785,0.155109118,0.040266814,0.07217576
0.086297213,0.155136804,0.040277912,0.072186755
0.086246527,0.155164512,0.040288848,0.07219751
0.086195795,0.15519224,0.04029962,0.072208026
0.086145017,0.155219988,0.040310231,0.0722183
0.086094198,0.155247753,0.040320678,0.072228334
0.086043337,0.155275534,0.040330963,0.072238127
0.085992439,0.15530333,0.040341086,0.072247678
0.085941505,0.155331139,0.040351046,0.072256988
0.085890537,0.155358959,0.040360844,0.072266055
0.085839539,0.155386789,0.04037048,0.072274881
0.085788513,0.155414627,0.040379953,0.072283465
0.085737461,0.15544247,0.040389264,0.072291808
0.085686386,0.155470316,0.040398413,0.072299909
0.085635291,0.155498164,0.0404074,0.072307769
0.085584177,0.155526012,0.040416226,0.072315388
0.085533048,0.155553858,0.040424891,0.072322769
0.085481905,0.155581699,0.040433395,0.072329911
0.085430752,0.155609534,0.040441739,0.072336815
0.08537959,0.15563736,0.040449923,0.072343484
0.085328423,0.155665175,0.040457949,0.072349916
0.085277253,0.155692978,0.040465816,0.072356114
0.085226084,0.155720766,0.040473526,0.072362079
0.085174918,0.155748538,0.040481078,0.072367809
0.085123758,0.155776292,0.040488474,0.072373308
0.085072607,0.155804028,0.040495713,0.072378574
0.085021468,0.155831744,0.040502797,0.072383609
0.084970344,0.155859441,0.040509726,0.072388414
0.084919238,0.155887121,0.0405165,0.072392989
0.084868152,0.155914784,0.040523121,0.072397335
0.084817089,0.155942431,0.040529588,0.072401454
0.084766051,0.155970064,0.040535903,0.072405346
0.084715041,0.155997683,0.040542066,0.072409011
0.084664061,0.15602529,0.040548076,0.072412451
0.084613113,0.156052884,0.040553936,0.072415666
0.084562199,0.156080467,0.040559645,0.07241866
0.084511321,0.156108037,0.040565203,0.072421433
0.084460482,0.156135596,0.040570612,0.072423988
0.084409683,0.156163143,0.04057587,0.07242633
0.084358927,0.156190677,0.040580978,0.072428464
0.084308216,0.156218201,0.040585937,0.072430396
0.084257552,0.156245713,0.040590747,0.072432133
0.084206939,0.156273216,0.040595408,0.07243368
0.084156379,0.156300709,0.04059992,0.072435046
0.084105874,0.156328192,0.040604284,0.072436237
0.084055427,0.156355668,0.0406085,0.07243726
0.084005043,0.156383137,0.040612569,0.072438119
0.083954724,0.156410601,0.040616492,0.072438822
0.083904473,0.156438059,0.04062027,0.072439374
0.083854294,0.156465514,0.040623902,0.07243978
0.083804191,0.156492965,0.040627391,0.072440044
0.083754166,0.156520413,0.040630737,0.072440173
0.083704224,0.156547856,0.040633942,0.07244017
0.083654367,0.156575296,0.040637005,0.072440039
0.083604598,0.156602732,0.040639928,0.072439785
0.083554922,0.156630163,0.040642712,0.072439411
0.083505341,0.156657589,0.040645358,0.072438921
0.083455859,0.156685009,0.040647865,0.07243832
0.083406478,0.156712423,0.040650235,0.072437609
0.083357203,0.156739831,0.040652469,0.072436792
0.083308036,0.156767232,0.040654567,0.072435871
0.083258981,0.156794629,0.04065653,0.07243485
0.08321004,0.156822023,0.04065836,0.072433731
0.083161216,0.156849416,0.040660057,0.072432517
0.083112513,0.156876809,0.040661622,0.072431209
0.083063934,0.156904206,0.040663057,0.07242981
0.083015481,0.156931607,0.040664362,0.072428323
0.082967157,0.156959014,0.040665538,0.072426749
0.082918966,0.156986428,0.040666586,0.072425093
0.082870911,0.15701385,0.040667508,0.072423355
0.082822995,0.157041281,0.040668304,0.072421539
0.08277522,0.15706872,0.040668976,0.072419646
0.08272759,0.157096168,0.040669524,0.07241768
0.082680107,0.157123626,0.040669949,0.072415641
0.082632773,0.157151093,0.040670252,0.072413533
0.082585592,0.15717857,0.040670435,0.072411357
0.082538566,0.157206056,0.040670498,0.072409115
0.082491697,0.157233553,0.040670442,0.072406809
0.082444988,0.157261061,0.040670268,0.072404441
0.08239844,0.15728858,0.040669977,0.072402011
0.082352057,0.157316112,0.04066957,0.072399522
0.082305841,0.157343656,0.040669047,0.072396974
0.082259793,0.157371213,0.040668409,0.072394369
0.082213916,0.157398784,0.040667657,0.072391707
0.082168213,0.15742637,0.040666792,0.072388991
0.082122686,0.157453972,0.040665814,0.072386222
0.082077337,0.157481591,0.040664724,0.072383402
0.082032171,0.157509227,0.040663524,0.07238053
0.081987188,0.157536885,0.040662214,0.072377609
0.081942393,0.157564565,0.040660796,0.072374638
0.081897788,0.157592272,0.04065927,0.072371619
0.081853377,0.157620009,0.040657637,0.072368552
0.081809163,0.157647781,0.0406559,0.072365437
0.081765149,0.157675589,0.04065406,0.072362276
0.081721338,0.157703437,0.040652119,0.072359069
0.081677736,0.157731327,0.040650078,0.072355816
0.081634344,0.157759262,0.040647938,0.072352518
0.081591166,0.157787244,0.040645703,0.072349173
0.081548205,0.157815275,0.040643372,0.072345783
0.081505465,0.157843356,0.040640948,0.072342348
0.081462949,0.157871489,0.040638433,0.072338866
0.081420662,0.157899674,0.040635828,0.072335338
0.081378606,0.157927912,0.040633135,0.072331763
0.081336785,0.157956204,0.040630357,0.072328141
0.081295202,0.157984549,0.040627496,0.072324471
0.08125386,0.158012948,0.040624552,0.072320753
0.081212763,0.1580414,0.04062153,0.072316985
0.081171912,0.158069904,0.04061843,0.072313167
0.08113131,0.158098461,0.040615256,0.072309298
0.081090961,0.158127068,0.04061201,0.072305376
0.081050866,0.158155725,0.040608695,0.0723014
0.081011027,0.158184432,0.040605313,0.072297371
0.080971448,0.158213187,0.040601868,0.072293288
0.08093213,0.158241989,0.040598361,0.07228915
0.080893075,0.158270837,0.040594796,0.072284958
0.080854285,0.15829973,0.040591174,0.07228071
0.080815762,0.158328667,0.0405875,0.072276406
0.080777507,0.158357647,0.040583775,0.072272046
0.080739521,0.158386667,0.040580003,0.072267628
0.080701806,0.158415728,0.040576185,0.072263151
0.080664364,0.158444826,0.040572325,0.072258614
0.080627194,0.158473961,0.040568425,0.072254014
0.080590298,0.158503133,0.040564488,0.072249351
0.080553678,0.158532339,0.040560515,0.072244624
0.080517333,0.15856158,0.04055651,0.072239831
0.080481266,0.158590855,0.040552475,0.072234971
0.080445476,0.158620163,0.040548411,0.072230043
0.080409967,0.158649504,0.040544321,0.072225045
0.080374737,0.158678877,0.040540208,0.072219977
0.080339788,0.158708283,0.040536073,0.072214835
0.080305121,0.15873772,0.040531918,0.072209618
0.080270737,0.15876719,0.040527745,0.072204325
0.080236637,0.158796691,0.040523555,0.072198953
0.080202821,0.158826223,0.040519352,0.0721935
0.080169289,0.158855788,0.040515135,0.072187965
0.080136044,0.158885386,0.040510908,0.072182346
0.080103085,0.158915018,0.040506671,0.072176641
0.080070415,0.158944684,0.040502427,0.072170848
0.080038034,0.158974386,0.040498176,0.072164965
0.080005947,0.159004127,0.040493919,0.072158991
0.079974154,0.159033908,0.040489659,0.072152924
0.079942661,0.159063734,0.040485397,0.072146764
0.079911472,0.159093608,0.040481133,0.072140509
0.079880591,0.159123536,0.04047687,0.072134161
0.079850023,0.159153522,0.040472608,0.072127718
0.079819772,0.159183571,0.040468349,0.07212118
0.079789844,0.159213688,0.040464095,0.072114549
0.079760243,0.159243879,0.040459847,0.072107825
0.079730973,0.159274147,0.040455605,0.072101006
0.07970204,0.159304499,0.040451373,0.072094095
0.079673448,0.159334938,0.04044715,0.072087091
0.079645202,0.159365469,0.040442937,0.072079993
0.079617306,0.159396098,0.040438736,0.072072803
0.079589766,0.159426827,0.040434547,0.07206552
0.079562584,0.159457663,0.040430371,0.072058143
0.079535765,0.159488609,0.04042621,0.072050673
0.079509312,0.159519669,0.040422063,0.072043109
0.079483229,0.159550846,0.040417931,0.072035451
0.079457519,0.159582144,0.040413815,0.0720277
0.079432186,0.159613567,0.040409715,0.072019855
0.079407231,0.159645116,0.040405633,0.072011915
0.079382658,0.159676796,0.040401568,0.072003881
0.07935847,0.159708607,0.040397521,0.071995751
0.079334667,0.159740553,0.040393493,0.071987525
0.079311254,0.159772636,0.040389483,0.071979202
0.07928823,0.159804856,0.040385493,0.071970781
0.079265599,0.159837216,0.040381522,0.071962259
0.079243362,0.159869716,0.040377571,0.071953636
0.07922152,0.159902358,0.04037364,0.071944911
0.079200073,0.159935141,0.040369729,0.071936081
0.079179023,0.159968065,0.040365838,0.071927146
0.079158372,0.160001131,0.040361967,0.071918104
0.079138119,0.160034337,0.040358117,0.071908953
0.079118266,0.160067682,0.040354288,0.071899691
0.079098812,0.160101166,0.040350479,0.071890318
0.079079759,0.160134786,0.040346691,0.071880833
0.079061106,0.160168542,0.040342924,0.071871235
0.079042854,0.160202431,0.040339177,0.071861524
0.079025004,0.160236453,0.04033545,0.071851698
0.079007555,0.160270604,0.040331744,0.071841756
0.078990507,0.160304883,0.040328058,0.071831699
0.078973861,0.160339288,0.040324392,0.071821527
0.078957615,0.160373817,0.040320745,0.071811239
0.078941771,0.160408469,0.040317118,0.071800836
0.078926326,0.160443242,0.040313511,0.071790319
0.078911282,0.160478133,0.040309924,0.071779688
0.078896637,0.160513144,0.040306356,0.071768943
0.078882393,0.160548271,0.040302808,0.071758083
0.078868547,0.160583514,0.04029928,0.071747109
0.0788551,0.160618872,0.040295771,0.071736019
0.078842051,0.160654343,0.040292281,0.071724812
0.078829399,0.160689927,0.040288811,0.071713487
0.078817144,0.160725622,0.04028536,0.071702043
0.078805285,0.160761426,0.040281927,0.071690478
0.078793821,0.16079734,0.040278513,0.071678791
0.078782751,0.160833362,0.040275116,0.071666979
0.078772074,0.160869491,0.040271737,0.071655042
0.078761791,0.160905725,0.040268376,0.071642977
0.078751901,0.160942065,0.040265032,0.071630783
0.078742403,0.160978509,0.040261704,0.071618457
0.078733297,0.161015055,0.040258393,0.071605997
0.078724582,0.161051703,0.040255099,0.071593403
0.078716259,0.161088451,0.040251822,0.071580671
0.078708326,0.161125297,0.040248561,0.0715678
0.078700783,0.161162242,0.040245316,0.071554789
0.078693629,0.161199283,0.040242087,0.071541637
0.078686864,0.16123642,0.040238874,0.071528342
0.078680486,0.161273651,0.040235677,0.071514903
0.078674494,0.161310974,0.040232494,0.071501318
0.078668887,0.161348389,0.040229327,0.071487585
0.078663664,0.161385893,0.040226174,0.071473703
0.078658823,0.161423487,0.040223036,0.071459668
0.078654363,0.16146117,0.040219912,0.071445478
0.078650282,0.161498938,0.040216802,0.071431133
0.078646579,0.161536792,0.040213705,0.071416631
0.078643252,0.161574729,0.040210621,0.07140197
0.078640299,0.161612747,0.040207549,0.07138715
0.078637719,0.161650844,0.040204488,0.071372171
0.078635509,0.161689018,0.040201439,0.07135703
0.078633667,0.161727266,0.0401984,0.071341729
0.078632192,0.161765586,0.04019537,0.071326265
0.07863108,0.161803975,0.040192349,0.07131064
0.07863033,0.161842431,0.040189336,0.071294853
0.078629938,0.161880952,0.040186329,0.071278903
0.078629903,0.161919533,0.040183329,0.07126279
0.07863022,0.161958174,0.040180335,0.071246516
0.078630888,0.16199687,0.040177345,0.07123008
0.078631903,0.162035619,0.040174358,0.071213482
0.078633262,0.162074421,0.040171373,0.071196723
0.078634961,0.162113273,0.04016839,0.071179803
0.078636998,0.162152172,0.040165407,0.071162721
0.078639367,0.162191117,0.040162423,0.071145478
0.078642067,0.162230105,0.040159436,0.071128073
0.078645092,0.162269133,0.040156446,0.071110506
0.078648439,0.162308198,0.040153452,0.071092776
0.078652105,0.162347295,0.040150451,0.071074883
0.078656085,0.162386421,0.040147443,0.071056828
0.078660376,0.162425572,0.040144427,0.071038609
0.078664973,0.162464743,0.0401414,0.071020226
0.078669872,0.16250393,0.040138361,0.07100168
0.078675069,0.162543128,0.040135309,0.07098297
0.078680558,0.162582333,0.040132243,0.070964095
0.078686337,0.162621538,0.04012916,0.070945055
0.078692399,0.162660739,0.040126059,0.07092585
0.078698741,0.162699931,0.040122938,0.070906479
0.078705357,0.162739108,0.040119796,0.07088694
0.078712243,0.162778264,0.040116631,0.070867234
0.078719394,0.162817395,0.040113441,0.070847359
0.078726805,0.162856494,0.040110225,0.070827315
0.078734471,0.162895557,0.04010698,0.070807099
0.078742387,0.162934578,0.040103706,0.070786712
0.078750549,0.162973551,0.0401004,0.070766153
0.078758951,0.163012471,0.04009706,0.070745419
0.07876759,0.163051332,0.040093684,0.070724511
0.07877646,0.163090128,0.040090271,0.070703426
0.078785556,0.163128854,0.04008682,0.070682164
0.078794873,0.163167504,0.040083328,0.070660723
0.078804407,0.163206073,0.040079793,0.0706391
0.078814153,0.163244556,0.040076216,0.070617295
0.078824104,0.163282948,0.040072593,0.070595307
0.078834257,0.163321243,0.040068924,0.070573133
0.078844606,0.163359436,0.040065207,0.070550771
0.078855146,0.163397523,0.040061442,0.070528221
0.078865872,0.163435499,0.040057626,0.07050548
0.078876779,0.163473361,0.04005376,0.070482547
0.078887862,0.163511105,0.040049841,0.07045942
0.078899115,0.163548728,0.040045869,0.070436098
0.078910535,0.163586226,0.040041844,0.070412578
0.078922115,0.163623597,0.040037763,0.070388859
0.078933852,0.163660837,0.040033628,0.070364939
0.078945739,0.163697943,0.040029436,0.070340816
0.078957774,0.163734911,0.040025187,0.070316489
0.078969952,0.163771738,0.040020882,0.070291954
0.078982267,0.16380842,0.040016518,0.070267211
0.078994715,0.163844955,0.040012097,0.070242257
0.079007291,0.163881338,0.040007616,0.070217089
0.079019992,0.163917565,0.040003076,0.070191706
0.079032811,0.163953632,0.039998475,0.070166106
0.079045745,0.163989536,0.039993814,0.070140285
0.07905879,0.164025273,0.03998909,0.070114241
0.079071941,0.164060839,0.039984304,0.070087973
0.079085194,0.164096232,0.039979454,0.070061478
0.079098546,0.164131448,0.039974541,0.070034753
0.079111992,0.164166484,0.039969563,0.070007798
0.079125528,0.164201339,0.03996452,0.06998061
0.079139151,0.164236009,0.039959411,0.06995319
0.079152856,0.164270493,0.039954236,0.069925538
0.07916664,0.16430479,0.039948994,0.069897653
0.079180498,0.164338898,0.039943686,0.069869539
0.079194428,0.164372817,0.03993831,0.069841197
0.079208424,0.164406548,0.039932866,0.069812633
0.079222485,0.16444009,0.039927354,0.06978385
0.079236605,0.164473444,0.039921775,0.069754855
0.07925078,0.164506611,0.039916127,0.069725651
0.079265007,0.164539593,0.039910411,0.069696244
0.079279282,0.164572391,0.039904626,0.069666641
0.079293601,0.164605009,0.039898774,0.069636845
0.079307959,0.164637448,0.039892852,0.069606863
0.079322353,0.164669713,0.039886862,0.0695767
0.079336779,0.164701804,0.039880803,0.06954636
0.079351232,0.164733724,0.039874674,0.069515848
0.079365708,0.164765477,0.039868476,0.069485169
0.079380205,0.164797062,0.039862209,0.069454326
0.079394717,0.164828484,0.039855872,0.069423323
0.079409241,0.164859743,0.039849465,0.069392165
0.079423773,0.164890841,0.039842988,0.069360853
0.07943831,0.16492178,0.039836441,0.069329392
0.079452847,0.164952561,0.039829824,0.069297784
0.079467382,0.164983185,0.039823135,0.069266032
0.079481911,0.165013656,0.039816375,0.069234139
0.079496429,0.165043972,0.039809544,0.069202109
0.079510934,0.165074136,0.039802641,0.069169942
0.079525421,0.165104149,0.039795665,0.069137643
0.079539888,0.165134012,0.039788617,0.069105213
0.079554332,0.165163726,0.039781495,0.069072657
0.079568748,0.165193292,0.0397743,0.069039978
0.079583135,0.165222713,0.03976703,0.06900718
0.079597488,0.16525199,0.039759687,0.068974264
0.079611804,0.165281126,0.039752269,0.068941236
0.079626081,0.165310125,0.039744776,0.068908098
0.079640314,0.165338991,0.039737209,0.068874852
0.079654501,0.165367726,0.039729567,0.068841501
0.079668638,0.165396335,0.03972185,0.068808049
0.079682722,0.165424819,0.039714059,0.068774496
0.079696749,0.165453184,0.039706194,0.068740846
0.079710716,0.16548143,0.039698254,0.068707101
0.079724619,0.165509561,0.039690241,0.068673263
0.079738455,0.165537579,0.039682153,0.068639336
0.079752221,0.165565487,0.039673992,0.068605321
0.079765912,0.165593287,0.039665756,0.068571221
0.079779527,0.16562098,0.039657446,0.068537039
0.07979306,0.16564857,0.039649062,0.068502778
0.079806509,0.165676058,0.039640603,0.068468439
0.07981987,0.165703444,0.039632069,0.068434024
0.07983314,0.165730729,0.039623461,0.068399536
0.079846317,0.165757915,0.039614777,0.068364976
0.079859397,0.165785002,0.039606017,0.068330346
0.079872378,0.16581199,0.039597183,0.068295647
0.079885256,0.165838879,0.039588273,0.068260881
0.079898031,0.16586567,0.039579288,0.06822605
0.079910698,0.165892362,0.039570227,0.068191156
0.079923256,0.165918954,0.039561091,0.068156201
0.079935703,0.165945448,0.039551879,0.068121184
0.079948037,0.165971842,0.039542591,0.068086109
0.079960254,0.165998136,0.039533227,0.068050976
0.079972354,0.166024329,0.039523787,0.068015786
0.079984333,0.16605042,0.039514271,0.067980541
0.079996191,0.166076408,0.039504677,0.067945242
0.080007925,0.166102291,0.039495006,0.067909888
0.080019535,0.166128067,0.039485258,0.067874481
0.080031018,0.166153737,0.039475431,0.067839021
0.080042372,0.166179298,0.039465525,0.067803508
0.080053597,0.16620475,0.039455541,0.067767943
0.080064692,0.166230092,0.039445477,0.067732326
0.080075655,0.166255322,0.039435334,0.067696659
0.080086487,0.166280438,0.03942511,0.06766094
0.080097186,0.166305439,0.039414806,0.067625172
0.080107752,0.166330323,0.039404421,0.067589354
0.080118186,0.166355087,0.039393954,0.067553486
0.080128486,0.166379729,0.039383406,0.067517569
0.080138652,0.166404247,0.039372777,0.067481603
0.080148684,0.166428637,0.039362064,0.06744559
0.080158582,0.166452896,0.039351269,0.06740953
0.080168345,0.166477022,0.03934039,0.067373424
0.080177972,0.16650101,0.039329427,0.067337275
0.080187464,0.166524857,0.039318379,0.067301087
0.080196819,0.166548561,0.039307245,0.067264861
0.080206037,0.166572116,0.039296025,0.067228602
0.080215117,0.166595521,0.039284718,0.067192313
0.080224059,0.166618771,0.039273324,0.067155998
0.080232861,0.166641866,0.039261841,0.06711966
0.080241523,0.166664803,0.039250268,0.067083301
0.080250043,0.16668758,0.039238606,0.067046923
0.08025842,0.166710195,0.039226854,0.067010531
0.080266654,0.166732646,0.03921501,0.066974124
0.080274743,0.166754932,0.039203074,0.066937705
0.080282687,0.16677705,0.039191045,0.066901277
0.080290484,0.166798998,0.039178924,0.066864842
0.080298135,0.166820774,0.039166709,0.0668284
0.080305638,0.166842375,0.0391544,0.066791955
0.080312993,0.166863799,0.039141996,0.066755506
0.0803202,0.166885044,0.039129498,0.066719057
0.080327258,0.166906107,0.039116903,0.066682608
0.080334168,0.166926986,0.039104212,0.066646159
0.080340929,0.166947677,0.039091425,0.066609713
0.080347541,0.166968178,0.039078541,0.06657327
0.080354003,0.166988487,0.039065559,0.06653683
0.080360317,0.167008601,0.039052482,0.066500394
0.080366481,0.167028518,0.039039307,0.066463962
0.080372495,0.167048237,0.039026037,0.066427535
0.08037836,0.167067755,0.039012672,0.066391115
0.080384076,0.167087069,0.038999212,0.066354702
0.080389642,0.167106177,0.038985658,0.066318297
0.080395059,0.167125077,0.038972011,0.066281901
0.080400327,0.167143766,0.038958272,0.066245515
0.080405445,0.167162243,0.038944441,0.066209142
0.080410414,0.167180504,0.03893052,0.066172782
0.080415234,0.167198546,0.03891651,0.066136439
0.080419903,0.167216367,0.03890241,0.066100114
0.080424422,0.167233963,0.038888223,0.066063809
0.080428791,0.16725133,0.038873948,0.066027526
0.080433008,0.167268466,0.038859586,0.065991268
0.080437074,0.167285367,0.038845139,0.065955036
0.080440988,0.167302029,0.038830608,0.065918833
0.08044475,0.167318448,0.038815992,0.065882661
0.080448359,0.16733462,0.038801294,0.065846524
0.080451814,0.167350542,0.038786515,0.065810422
0.080455115,0.167366209,0.038771655,0.065774358
0.080458262,0.167381617,0.038756717,0.065738335
0.080461254,0.167396763,0.038741701,0.065702354
0.080464089,0.167411643,0.038726609,0.065666418
0.080466769,0.167426254,0.038711442,0.065630527
0.080469291,0.167440591,0.038696201,0.065594684
0.080471656,0.16745465,0.038680888,0.065558891
0.080473862,0.167468428,0.038665503,0.065523149
0.080475908,0.167481921,0.038650047,0.06548746
0.080477794,0.167495125,0.038634522,0.065451825
0.080479519,0.167508039,0.038618929,0.065416245
0.080481082,0.167520659,0.038603268,0.065380721
0.080482485,0.167532981,0.038587541,0.065345255
0.080483725,0.167545003,0.038571749,0.065309846
0.080484804,0.167556721,0.038555891,0.065274497
0.080485721,0.167568134,0.038539971,0.065239207
0.080486476,0.167579237,0.038523988,0.065203976
0.080487071,0.167590028,0.038507943,0.065168805
0.080487504,0.167600504,0.038491837,0.065133695
0.080487776,0.167610665,0.038475672,0.065098645
0.080487887,0.167620506,0.038459448,0.065063657
0.080487837,0.167630026,0.038443165,0.065028729
0.080487626,0.167639223,0.038426825,0.064993863
0.080487255,0.167648093,0.038410428,0.064959059
0.080486724,0.167656633,0.038393974,0.064924316
0.080486032,0.167664841,0.038377465,0.064889635
0.080485181,0.167672714,0.038360901,0.064855015
0.080484169,0.167680248,0.038344282,0.064820456
0.080482999,0.167687441,0.03832761,0.064785957
0.080481669,0.16769429,0.038310886,0.064751517
0.08048018,0.167700792,0.03829411,0.064717137
0.080478532,0.167706944,0.038277285,0.064682814
0.080476725,0.167712745,0.03826041,0.064648548
0.08047476,0.16771819,0.038243486,0.064614338
0.080472636,0.167723279,0.038226516,0.064580183
0.080470355,0.167728007,0.0382095,0.06454608
0.080467917,0.167732373,0.038192439,0.064512028
0.080465322,0.167736373,0.038175334,0.064478027
0.080462571,0.167740005,0.038158186,0.064444075
0.080459662,0.167743266,0.038140996,0.064410172
0.080456597,0.167746155,0.038123765,0.064376315
0.080453375,0.167748669,0.038106495,0.064342504
0.080449997,0.167750808,0.038089186,0.064308738
0.080446461,0.167752572,0.03807184,0.064275018
0.080442769,0.167753959,0.038054457,0.064241342
0.080438921,0.167754971,0.038037039,0.064207711
0.080434916,0.167755607,0.038019587,0.064174125
0.080430754,0.167755867,0.038002101,0.064140581
0.080426436,0.167755751,0.037984584,0.06410708
0.080421963,0.167755259,0.037967036,0.06407362
0.080417335,0.167754391,0.037949458,0.0640402
0.080412552,0.167753146,0.037931852,0.064006818
0.080407616,0.167751525,0.037914218,0.063973473
0.080402527,0.167749527,0.03789656,0.063940162
0.080397287,0.167747151,0.037878878,0.063906885
0.080391897,0.167744396,0.037861175,0.063873637
0.08038636,0.167741261,0.037843452,0.063840419
0.080380677,0.167737747,0.037825711,0.063807227
0.080374849,0.167733851,0.037807955,0.063774059
0.08036888,0.167729573,0.037790185,0.063740915
0.080362768,0.167724913,0.037772403,0.063707792
0.080356518,0.16771987,0.037754612,0.063674687
0.080350129,0.167714444,0.037736813,0.0636416
0.080343603,0.167708635,0.03771901,0.063608527
0.080336942,0.167702443,0.037701202,0.063575467
0.080330146,0.167695868,0.037683393,0.063542417
0.080323216,0.167688909,0.037665584,0.063509375
0.080316155,0.167681567,0.037647778,0.063476337
0.080308962,0.167673842,0.037629975,0.063443304
0.080301638,0.167665732,0.037612177,0.063410272
0.080294185,0.167657237,0.037594387,0.06337724
0.080286603,0.167648356,0.037576606,0.063344207
0.080278892,0.16763909,0.037558834,0.06331117
0.080271053,0.167629438,0.037541075,0.063278128
0.080263087,0.167619398,0.037523328,0.063245078
0.080254993,0.167608971,0.037505597,0.063212019
0.080246772,0.167598156,0.037487881,0.063178949
0.080238424,0.167586953,0.037470184,0.063145865
0.080229948,0.167575362,0.037452508,0.063112766
0.080221345,0.167563381,0.037434852,0.06307965
0.080212614,0.167551009,0.037417221,0.063046515
0.080203755,0.167538247,0.037399616,0.06301336
0.080194768,0.167525093,0.037382038,0.062980182
0.080185652,0.167511548,0.03736449,0.062946979
0.080176408,0.167497611,0.037346974,0.062913751
0.080167034,0.167483282,0.037329492,0.062880494
0.080157531,0.167468561,0.037312045,0.062847208
0.080147897,0.167453448,0.037294636,0.062813889
0.080138133,0.167437942,0.037277266,0.062780537
0.080128238,0.167422042,0.037259937,0.06274715
0.080118212,0.167405748,0.03724265,0.062713724
0.080108053,0.167389059,0.037225407,0.062680259
0.080097763,0.167371974,0.03720821,0.062646751
0.08008734,0.167354492,0.03719106,0.0626132
0.080076785,0.167336612,0.037173958,0.062579604
0.080066098,0.167318333,0.037156906,0.06254596
0.080055278,0.167299654,0.037139905,0.062512266
0.080044325,0.167280573,0.037122957,0.062478523
0.08003324,0.167261089,0.037106062,0.062444727
0.080022022,0.1672412,0.037089224,0.062410878
0.080010671,0.167220905,0.037072442,0.062376974
0.079999187,0.167200203,0.037055719,0.062343014
0.07998757,0.167179093,0.037039056,0.062308995
0.079975819,0.167157575,0.037022454,0.062274916
0.079963934,0.167135647,0.037005914,0.062240775
0.079951915,0.167113309,0.036989439,0.062206569
0.079939761,0.167090561,0.036973028,0.062172297
0.079927471,0.167067404,0.036956684,0.062137957
0.079915044,0.167043837,0.036940406,0.062103545
0.079902481,0.167019864,0.036924197,0.06206906
0.07988978,0.166995485,0.036908057,0.0620345
0.079876941,0.166970704,0.036891986,0.061999863
0.079863964,0.166945523,0.036875986,0.061965147
0.079850847,0.166919944,0.036860058,0.061930352
0.079837589,0.166893971,0.036844201,0.061895477
0.079824191,0.166867605,0.036828418,0.061860524
0.079810651,0.16684085,0.036812709,0.061825492
0.079796969,0.166813711,0.036797074,0.061790381
0.079783144,0.166786192,0.036781514,0.061755191
0.079769176,0.166758297,0.036766031,0.061719924
0.079755063,0.166730031,0.036750624,0.061684578
0.079740805,0.166701399,0.036735294,0.061649154
0.079726401,0.166672406,0.036720043,0.061613652
0.07971185,0.166643057,0.036704871,0.061578073
0.079697152,0.166613357,0.036689778,0.061542418
0.079682305,0.166583311,0.036674766,0.061506687
0.079667308,0.166552925,0.036659836,0.061470882
0.079652161,0.166522203,0.036644987,0.061435006
0.079636863,0.166491151,0.036630221,0.061399058
0.079621413,0.166459775,0.036615539,0.061363041
0.079605808,0.166428081,0.03660094,0.061326957
0.079590049,0.166396073,0.036586426,0.061290807
0.079574134,0.166363758,0.036571996,0.061254593
0.079558062,0.166331139,0.036557652,0.061218316
0.079541831,0.166298221,0.036543394,0.061181978
0.07952544,0.166265009,0.036529221,0.061145581
0.079508887,0.166231507,0.036515134,0.061109127
0.079492171,0.166197718,0.036501133,0.061072617
0.079475289,0.166163646,0.036487218,0.061036054
0.079458241,0.166129293,0.036473389,0.060999438
0.079441024,0.166094663,0.036459645,0.060962772
0.079423636,0.166059758,0.036445988,0.060926058
0.079406076,0.166024581,0.036432416,0.060889296
0.079388342,0.165989133,0.036418929,0.060852489
0.079370431,0.165953417,0.036405527,0.060815639
0.079352344,0.165917434,0.03639221,0.060778747
0.079334077,0.165881185,0.036378978,0.060741815
0.079315629,0.165844674,0.036365831,0.060704843
0.079296999,0.1658079,0.036352767,0.060667835
0.079278187,0.165770867,0.036339788,0.06063079
0.07925919,0.165733575,0.036326892,0.060593709
0.079240007,0.165696027,0.036314079,0.060556593
0.079220639,0.165658223,0.036301349,0.060519443
0.079201084,0.165620167,0.0362887,0.060482259
0.079181341,0.16558186,0.036276134,0.060445042
0.07916141,0.165543302,0.036263648,0.060407793
0.079141289,0.165504496,0.036251243,0.060370512
0.079120977,0.165465443,0.036238919,0.0603332
0.079100474,0.165426143,0.036226673,0.060295857
0.079079778,0.165386598,0.036214507,0.060258485
0.079058887,0.165346809,0.036202418,0.060221082
0.079037802,0.165306779,0.036190407,0.060183651
0.07901652,0.165266512,0.036178473,0.060146191
0.078995041,0.165226011,0.036166616,0.060108702
0.078973365,0.165185281,0.036154834,0.060071186
0.078951489,0.165144327,0.036143128,0.06003364
0.078929415,0.165103155,0.036131498,0.059996067
0.07890714,0.165061768,0.036119942,0.059958466
0.078884664,0.165020173,0.036108461,0.059920837
0.078861987,0.164978375,0.036097054,0.05988318
0.078839107,0.16493638,0.036085721,0.059845497
0.078816024,0.164894193,0.036074461,0.059807787
0.078792738,0.164851818,0.036063275,0.059770052
0.078769247,0.164809262,0.036052161,0.059732291
0.078745552,0.164766529,0.036041119,0.059694505
0.078721652,0.164723623,0.036030149,0.059656694
0.078697545,0.16468055,0.036019251,0.059618857
0.078673233,0.164637313,0.036008423,0.059580994
0.078648714,0.164593918,0.035997666,0.059543106
0.078623988,0.164550367,0.035986978,0.05950519
0.078599054,0.164506664,0.035976359,0.059467247
0.078573912,0.164462813,0.035965808,0.059429276
0.078548562,0.164418817,0.035955324,0.059391276
0.078523004,0.164374679,0.035944907,0.059353246
0.078497238,0.164330401,0.035934555,0.059315185
0.078471263,0.164285986,0.035924269,0.059277091
0.078445079,0.164241437,0.035914048,0.059238965
0.078418688,0.164196755,0.035903892,0.059200804
0.078392088,0.164151942,0.035893799,0.059162607
0.078365281,0.164107,0.03588377,0.059124374
0.078338265,0.16406193,0.035873803,0.059086101
0.078311042,0.164016735,0.035863898,0.059047789
0.078283611,0.163971414,0.035854054,0.059009436
0.078255974,0.163925969,0.035844272,0.05897104
0.078228131,0.1638804,0.035834549,0.058932602
0.078200082,0.163834709,0.035824886,0.058894121
0.078171827,0.163788895,0.035815282,0.058855594
0.078143368,0.163742959,0.035805736,0.058817023
0.078114704,0.1636969,0.035796249,0.058778406
0.078085838,0.163650721,0.035786819,0.058739743
0.07805677,0.163604419,0.035777447,0.058701036
0.078027501,0.163557997,0.03576813,0.058662285
0.077998032,0.163511455,0.03575887,0.058623491
0.077968365,0.163464797,0.035749665,0.058584653
0.077938501,0.163418025,0.035740514,0.058545773
0.07790844,0.163371142,0.035731417,0.05850685
0.077878184,0.163324151,0.035722372,0.058467884
0.077847734,0.163277055,0.035713379,0.058428876
0.077817092,0.163229857,0.035704436,0.058389827
0.077786259,0.163182561,0.035695543,0.058350736
0.077755235,0.16313517,0.0356867,0.058311604
0.077724021,0.163087689,0.035677905,0.058272432
0.07769262,0.163040122,0.035669158,0.058233223
0.077661031,0.162992472,0.035660458,0.058193978
0.077629255,0.162944746,0.035651806,0.058154699
0.077597294,0.162896948,0.0356432,0.058115388
0.077565148,0.162849084,0.035634641,0.058076047
0.077532818,0.16280116,0.035626128,0.058036676
0.077500306,0.162753182,0.035617662,0.057997279
0.077467612,0.162705156,0.035609242,0.057957855
0.077434738,0.162657086,0.035600868,0.057918406
0.077401683,0.16260898,0.035592541,0.057878934
0.07736845,0.162560844,0.03558426,0.057839438
0.077335038,0.162512683,0.035576026,0.05779992
0.077301448,0.162464505,0.035567839,0.057760382
0.077267681,0.162416316,0.035559699,0.057720823
0.077233738,0.162368122,0.035551607,0.057681245
0.077199618,0.16231993,0.035543562,0.057641649
0.077165322,0.162271746,0.035535565,0.057602035
0.077130851,0.162223575,0.035527615,0.057562405
0.077096205,0.162175423,0.035519714,0.057522759
0.077061385,0.162127296,0.03551186,0.057483096
0.07702639,0.162079198,0.035504054,0.057443418
0.076991222,0.162031134,0.035496296,0.057403726
0.076955879,0.161983108,0.035488586,0.057364018
0.076920363,0.161935124,0.035480923,0.057324295
0.076884674,0.161887187,0.035473308,0.057284558
0.076848811,0.161839298,0.03546574,0.057244809
0.076812775,0.161791464,0.035458219,0.057205048
0.076776567,0.161743686,0.035450745,0.057165276
0.076740186,0.161695969,0.035443317,0.057125495
0.076703634,0.161648316,0.035435934,0.057085706
0.07666691,0.161600729,0.035428596,0.057045909
0.076630016,0.161553212,0.035421303,0.057006107
0.076592952,0.161505768,0.035414054,0.056966301
0.076555718,0.161458399,0.035406848,0.05692649
0.076518316,0.161411106,0.035399684,0.056886678
0.076480746,0.161363893,0.035392562,0.056846864
0.076443009,0.161316761,0.035385482,0.056807051
0.076405106,0.161269711,0.035378443,0.056767239
0.076367039,0.161222747,0.035371444,0.056727431
0.076328808,0.161175868,0.035364486,0.056687627
0.076290414,0.161129077,0.035357568,0.056647829
0.076251857,0.161082375,0.03535069,0.056608039
0.07621314,0.161035764,0.035343849,0.056568256
0.076174262,0.160989246,0.035337047,0.056528483
0.076135224,0.160942822,0.035330283,0.05648872
0.076096027,0.160896493,0.035323554,0.05644897
0.076056673,0.160850261,0.035316862,0.056409234
0.076017161,0.160804128,0.035310204,0.056369513
0.075977493,0.160758094,0.035303581,0.05632981
0.075937669,0.160712159,0.035296991,0.056290126
0.07589769,0.160666326,0.035290434,0.056250463
0.075857558,0.160620595,0.035283909,0.056210824
0.075817272,0.160574966,0.035277414,0.056171211
0.075776834,0.16052944,0.035270948,0.056131626
0.075736244,0.160484019,0.035264512,0.056092071
0.075695503,0.160438704,0.035258104,0.056052547
0.075654613,0.160393495,0.035251723,0.056013056
0.075613574,0.160348394,0.035245369,0.055973599
0.075572388,0.160303402,0.035239041,0.055934177
0.075531056,0.160258518,0.035232737,0.055894791
0.07548958,0.160213743,0.035226458,0.055855443
0.07544796,0.160169076,0.035220201,0.055816135
0.0754062,0.160124519,0.035213967,0.055776868
0.0753643,0.16008007,0.035207755,0.055737645
0.075322265,0.160035729,0.035201563,0.055698469
0.075280095,0.159991497,0.035195391,0.055659343
0.075237794,0.159947375,0.035189238,0.05562027
0.075195364,0.159903364,0.035183103,0.055581251
0.075152807,0.159859466,0.035176985,0.055542291
0.075110126,0.159815683,0.035170885,0.05550339
0.075067323,0.159772017,0.0351648,0.055464549
0.0750244,0.159728469,0.03515873,0.055425772
0.074981359,0.159685042,0.035152675,0.055387058
0.074938203,0.159641737,0.035146633,0.05534841
0.074894934,0.159598554,0.035140603,0.055309826
0.074851554,0.159555496,0.035134585,0.055271309
0.074808066,0.159512563,0.035128578,0.055232859
0.074764471,0.159469757,0.03512258,0.055194475
0.074720771,0.159427078,0.03511659,0.055156159
0.074676968,0.159384528,0.035110608,0.055117911
0.074633065,0.159342107,0.035104632,0.05507973
0.074589063,0.159299815,0.035098662,0.055041618
0.074544963,0.159257651,0.035092695,0.055003575
0.074500769,0.159215617,0.035086732,0.054965602
0.074456482,0.159173711,0.035080771,0.0549277
0.074412103,0.159131933,0.03507481,0.054889869
0.074367635,0.159090282,0.035068849,0.05485211
0.07432308,0.159048756,0.035062886,0.054814424
0.07427844,0.159007355,0.03505692,0.05477681
0.074233717,0.158966076,0.035050949,0.054739268
0.074188912,0.158924919,0.035044974,0.054701798
0.074144029,0.158883882,0.035038991,0.054664399
0.074099068,0.158842965,0.035033002,0.054627072
0.074054032,0.158802165,0.035027003,0.054589816
0.074008923,0.158761482,0.035020994,0.05455263
0.073963743,0.158720915,0.035014974,0.054515514
0.073918492,0.158680463,0.035008941,0.054478468
0.073873174,0.158640125,0.035002894,0.054441491
0.073827789,0.1585999,0.034996831,0.054404583
0.07378234,0.158559786,0.034990752,0.054367744
0.073736828,0.158519783,0.034984655,0.054330973
0.073691255,0.158479888,0.034978538,0.054294269
0.073645622,0.158440102,0.0349724,0.054257632
0.073599931,0.158400422,0.034966239,0.054221061
0.073554182,0.158360849,0.034960055,0.054184555
0.073508377,0.158321382,0.034953845,0.054148114
0.073462518,0.158282018,0.034947609,0.054111736
0.073416605,0.158242758,0.034941345,0.054075421
0.073370641,0.158203601,0.034935052,0.054039168
0.073324626,0.158164545,0.034928729,0.054002975
0.073278561,0.15812559,0.034922375,0.053966842
0.073232449,0.158086735,0.034915989,0.053930766
0.07318629,0.158047979,0.034909569,0.053894749
0.073140087,0.15800932,0.034903116,0.053858787
0.07309384,0.157970759,0.034896629,0.05382288
0.073047552,0.157932293,0.034890107,0.053787026
0.073001223,0.157893921,0.034883548,0.053751223
0.072954856,0.157855642,0.034876954,0.05371547
0.072908453,0.157817454,0.034870322,0.053679767
0.072862013,0.157779357,0.034863652,0.053644111
0.072815539,0.157741349,0.034856944,0.053608502
0.072769031,0.157703427,0.034850196,0.053572939
0.072722491,0.157665591,0.034843408,0.05353742
0.07267592,0.157627839,0.034836579,0.053501944
0.072629318,0.15759017,0.034829709,0.05346651
0.072582687,0.157552582,0.034822796,0.053431116
0.072536027,0.157515075,0.034815841,0.053395762
0.07248934,0.157477646,0.03480884,0.053360445
0.072442626,0.157440296,0.034801795,0.053325164
0.072395888,0.157403023,0.034794705,0.053289918
0.072349125,0.157365829,0.034787568,0.053254707
0.072302338,0.157328712,0.034780384,0.05321953
0.072255529,0.157291672,0.034773154,0.053184388
0.072208697,0.15725471,0.034765875,0.05314928
0.072161845,0.157217824,0.034758548,0.053114206
0.072114971,0.157181013,0.034751173,0.053079166
0.072068078,0.157144277,0.034743747,0.05304416
0.072021165,0.157107615,0.034736272,0.053009186
0.071974234,0.157071024,0.034728746,0.052974244
0.071927285,0.157034505,0.034721168,0.052939334
0.071880318,0.156998055,0.034713539,0.052904455
0.071833335,0.156961676,0.034705858,0.052869607
0.071786335,0.156925366,0.034698124,0.05283479
0.07173932,0.156889127,0.034690339,0.052800005
0.07169229,0.156852959,0.0346825,0.052765252
0.071645247,0.156816864,0.034674609,0.052730531
0.071598191,0.156780843,0.034666665,0.052695843
0.071551123,0.156744896,0.034658668,0.052661189
0.071504043,0.156709025,0.034650617,0.052626571
0.071456953,0.15667323,0.034642513,0.052591992
0.071409854,0.156637511,0.034634355,0.052557452
0.071362745,0.156601868,0.034626144,0.052522956
0.071315629,0.156566301,0.034617878,0.052488504
0.071268507,0.156530809,0.034609558,0.052454101
0.071221381,0.156495392,0.034601183,0.052419747
0.071174254,0.15646005,0.034592753,0.052385446
0.071127128,0.156424781,0.034584268,0.052351201
0.071080006,0.156389583,0.034575726,0.052317014
0.071032892,0.156354457,0.034567129,0.052282888
0.070985791,0.156319401,0.034558477,0.052248825
0.070938706,0.156284412,0.034549768,0.052214829
0.070891642,0.156249489,0.034541004,0.052180901
0.070844602,0.156214631,0.034532184,0.052147044
0.070797592,0.156179835,0.034523309,0.05211326
0.070750615,0.156145098,0.034514379,0.052079553
0.070703675,0.15611042,0.034505394,0.052045924
0.070656779,0.156075796,0.034496356,0.052012376
0.070609931,0.156041226,0.034487265,0.051978911
0.070563135,0.156006707,0.034478121,0.051945532
0.070516397,0.155972237,0.034468925,0.051912241
0.070469723,0.155937815,0.034459678,0.05187904
0.070423118,0.15590344,0.03445038,0.051845932
0.070376586,0.155869109,0.034441032,0.051812919
0.070330134,0.155834822,0.034431633,0.051780002
0.070283767,0.155800575,0.034422186,0.051747182
0.070237489,0.155766368,0.034412689,0.051714461
0.070191306,0.155732199,0.034403144,0.051681841
0.070145224,0.155698065,0.034393551,0.051649323
0.070099247,0.155663964,0.034383911,0.051616907
0.070053381,0.155629894,0.034374224,0.051584596
0.070007631,0.155595855,0.034364492,0.051552389
0.069962001,0.155561845,0.034354715,0.051520288
0.069916497,0.155527863,0.034344893,0.051488294
0.069871122,0.155493908,0.03433503,0.051456407
0.069825881,0.155459979,0.034325125,0.051424627
0.069780778,0.155426075,0.034315182,0.051392956
0.069735818,0.155392196,0.0343052,0.051361396
0.069691004,0.15535834,0.034295184,0.051329947
0.06964634,0.155324505,0.034285133,0.051298611
0.06960183,0.155290691,0.034275051,0.05126739
0.069557477,0.155256893,0.034264939,0.051236285
0.069513286,0.155223112,0.034254799,0.051205298
0.069469258,0.155189345,0.034244633,0.05117443
0.069425398,0.155155588,0.034234443,0.051143682
0.069381709,0.15512184,0.03422423,0.051113055
0.069338194,0.155088098,0.034213997,0.051082552
0.069294856,0.155054358,0.034203745,0.051052172
0.069251697,0.155020618,0.034193477,0.051021917
0.069208722,0.154986874,0.034183194,0.050991788
0.069165933,0.154953124,0.034172898,0.050961786
0.069123332,0.154919364,0.034162592,0.050931913
0.069080921,0.154885591,0.034152276,0.050902169
0.069038704,0.1548518,0.034141953,0.050872559
0.068996683,0.154817989,0.034131623,0.050843083
0.06895486,0.154784153,0.03412129,0.050813743
0.068913238,0.154750287,0.034110953,0.050784543
0.068871819,0.154716389,0.034100615,0.050755483
0.068830605,0.154682453,0.034090276,0.050726565
0.068789598,0.154648476,0.034079938,0.050697789
0.068748803,0.154614451,0.034069602,0.050669159
0.068708221,0.154580376,0.034059269,0.050640675
0.068667854,0.154546246,0.03404894,0.050612338
0.068627706,0.154512057,0.034038616,0.05058415
0.06858778,0.154477807,0.034028298,0.050556112
0.068548078,0.154443492,0.034017987,0.050528227
0.068508604,0.154409112,0.034007684,0.050500496
0.06846936,0.154374666,0.033997389,0.050472922
0.06843035,0.154340151,0.033987104,0.050445508
0.068391577,0.154305566,0.033976829,0.050418257
0.068353042,0.154270911,0.033966565,0.050391171
0.06831475,0.154236183,0.033956313,0.050364253
0.068276702,0.154201382,0.033946074,0.050337505
0.068238901,0.154166506,0.033935848,0.050310929
0.068201349,0.154131555,0.033925638,0.050284527
0.068164048,0.154096526,0.033915443,0.0502583
0.068127001,0.154061421,0.033905264,0.050232249
0.06809021,0.154026238,0.033895103,0.050206376
0.068053676,0.153990977,0.03388496,0.050180682
0.068017402,0.153955638,0.033874837,0.050155167
0.06798139,0.153920222,0.033864734,0.050129831
0.067945643,0.153884729,0.033854652,0.050104677
0.067910161,0.153849161,0.033844593,0.050079706
0.067874947,0.153813519,0.033834556,0.050054918
0.067840003,0.153777805,0.033824542,0.050030315
0.067805331,0.153742022,0.033814553,0.050005898
0.067770932,0.153706173,0.033804588,0.049981668
0.067736809,0.153670262,0.03379465,0.049957626
0.067702962,0.153634293,0.033784738,0.049933773
0.067669394,0.153598268,0.033774853,0.049910111
0.067636104,0.153562192,0.033764997,0.049886639
0.067603095,0.153526066,0.03375517,0.049863358
0.067570368,0.153489894,0.033745373,0.049840267
0.067537922,0.153453679,0.033735608,0.049817368
0.06750576,0.153417423,0.033725875,0.049794659
0.067473881,0.153381129,0.033716175,0.049772141
0.067442287,0.153344798,0.033706509,0.049749814
0.067410978,0.153308435,0.033696877,0.049727676
0.067379955,0.153272039,0.033687281,0.049705728
0.067349219,0.153235613,0.033677722,0.049683968
0.067318771,0.153199158,0.0336682,0.049662396
0.06728861,0.153162676,0.033658716,0.049641011
0.067258738,0.153126169,0.033649271,0.049619813
0.067229155,0.153089637,0.033639866,0.049598801
0.067199861,0.153053082,0.033630502,0.049577974
0.067170857,0.153016506,0.033621179,0.049557331
0.067142143,0.152979908,0.0336119,0.049536871
0.067113719,0.152943289,0.033602663,0.049516593
0.067085585,0.152906651,0.033593472,0.049496495
0.067057742,0.152869992,0.033584325,0.049476578
0.067030191,0.152833314,0.033575225,0.04945684
0.06700293,0.152796617,0.033566172,0.049437279
0.06697596,0.152759899,0.033557167,0.049417895
0.066949282,0.152723161,0.033548213,0.049398687
0.066922895,0.152686403,0.033539309,0.049379655
0.066896799,0.152649623,0.033530457,0.049360798
0.066870993,0.152612821,0.033521658,0.049342117
0.066845477,0.152575997,0.033512914,0.04932361
0.066820251,0.15253915,0.033504227,0.049305277
0.066795313,0.15250228,0.033495597,0.049287117
0.066770664,0.152465388,0.033487025,0.049269131
0.066746303,0.152428473,0.033478514,0.049251319
0.066722229,0.152391535,0.033470063,0.049233679
0.066698442,0.152354575,0.033461675,0.049216212
0.066674942,0.152317591,0.033453351,0.049198916
0.066651729,0.152280584,0.033445091,0.049181792
0.066628802,0.152243555,0.033436898,0.049164839
0.066606161,0.152206502,0.033428771,0.049148057
0.066583806,0.152169427,0.033420713,0.049131444
0.066561737,0.152132328,0.033412724,0.049115002
0.066539952,0.152095207,0.033404805,0.049098728
0.066518452,0.152058062,0.033396958,0.049082623
0.066497234,0.152020894,0.033389184,0.049066687
0.0664763,0.151983703,0.033381483,0.049050918
0.066455647,0.151946488,0.033373857,0.049035317
0.066435275,0.15190925,0.033366306,0.049019881
0.066415183,0.151871988,0.033358831,0.04900461
0.066395371,0.151834703,0.033351434,0.048989505
0.066375837,0.151797396,0.033344114,0.048974565
0.06635658,0.151760066,0.033336872,0.048959791
0.066337599,0.151722714,0.03332971,0.048945183
0.066318894,0.151685341,0.033322627,0.048930743
0.066300463,0.151647949,0.033315625,0.048916471
0.066282304,0.151610538,0.033308703,0.048902366
0.066264416,0.151573111,0.033301863,0.04888843
0.066246799,0.151535667,0.033295104,0.048874661
0.066229449,0.15149821,0.033288428,0.04886106
0.066212367,0.15146074,0.033281834,0.048847626
0.066195549,0.151423259,0.033275324,0.048834357
0.066178995,0.151385768,0.033268897,0.048821254
0.066162702,0.151348269,0.033262555,0.048808314
0.066146669,0.151310763,0.033256299,0.048795537
0.066130894,0.151273251,0.033250129,0.048782922
0.066115377,0.151235736,0.033244046,0.048770467
0.066100115,0.151198221,0.033238051,0.04875817
0.066085109,0.15116071,0.033232145,0.048746032
0.066070357,0.151123206,0.03322633,0.048734051
0.066055859,0.151085714,0.033220606,0.048722228
0.066041615,0.151048239,0.033214975,0.048710561
0.066027624,0.151010784,0.033209438,0.048699052
0.066013887,0.150973353,0.033203996,0.048687699
0.066000404,0.150935949,0.03319865,0.048676501
0.065987173,0.150898576,0.033193402,0.048665458
0.065974196,0.150861238,0.033188251,0.048654568
0.065961471,0.150823938,0.0331832,0.048643831
0.065948998,0.150786679,0.03317825,0.048633244
0.065936777,0.150749466,0.0331734,0.048622807
0.065924808,0.150712302,0.033168652,0.048612516
0.06591309,0.150675191,0.033164008,0.048602372
0.065901623,0.150638137,0.033159468,0.04859237
0.065890408,0.150601142,0.033155033,0.04858251
0.065879443,0.150564211,0.033150703,0.048572789
0.065868729,0.150527345,0.033146481,0.048563205
0.065858268,0.150490549,0.033142366,0.048553754
0.06584806,0.150453824,0.033138361,0.048544435
0.065838106,0.150417174,0.033134465,0.048535245
0.065828407,0.150380601,0.03313068,0.048526184
0.065818966,0.150344108,0.033127008,0.048517249
0.065809784,0.150307699,0.033123448,0.048508438
0.065800863,0.150271376,0.033120002,0.048499751
0.065792204,0.150235143,0.033116671,0.048491184
0.065783809,0.150199004,0.033113456,0.048482737
0.065775679,0.150162962,0.033110357,0.048474407
0.065767815,0.150127021,0.033107375,0.048466193
0.065760219,0.150091184,0.033104511,0.048458092
0.065752891,0.150055454,0.033101764,0.048450101
0.065745834,0.150019835,0.033099137,0.048442217
0.065739049,0.149984329,0.033096629,0.048434439
0.065732537,0.149948939,0.033094241,0.048426761
0.065726301,0.149913668,0.033091972,0.048419182
0.065720343,0.149878518,0.033089824,0.048411699
0.065714664,0.149843491,0.033087798,0.048404307
0.065709267,0.149808589,0.033085893,0.048397003
0.065704156,0.149773815,0.033084112,0.048389786
0.065699331,0.149739169,0.033082454,0.048382652
0.065694795,0.149704654,0.03308092,0.0483756
0.065690552,0.149670272,0.033079512,0.048368628
0.065686602,0.149636024,0.033078231,0.048361735
0.065682948,0.149601913,0.033077076,0.048354918
0.065679592,0.149567943,0.03307605,0.048348177
0.065676535,0.149534117,0.033075152,0.048341509
0.065673778,0.149500439,0.033074384,0.048334913
0.065671323,0.149466912,0.033073746,0.048328386
0.065669171,0.14943354,0.033073239,0.048321927
0.065667323,0.149400325,0.033072864,0.048315532
0.06566578,0.149367272,0.033072621,0.0483092
0.065664543,0.149334382,0.03307251,0.048302928
0.065663613,0.14930166,0.033072533,0.048296715
0.065662991,0.149269106,0.03307269,0.048290559
0.065662678,0.149236725,0.033072982,0.048284457
0.065662676,0.149204518,0.033073409,0.048278407
0.065662984,0.149172487,0.033073972,0.048272408
0.065663605,0.149140634,0.033074672,0.048266457
0.065664538,0.14910896,0.033075509,0.048260551
0.065665783,0.149077467,0.033076485,0.048254689
0.065667343,0.149046156,0.033077599,0.04824887
0.065669216,0.149015028,0.033078852,0.04824309
0.065671403,0.148984084,0.033080244,0.048237349
0.065673903,0.148953324,0.033081777,0.048231645
0.065676718,0.14892275,0.03308345,0.048225975
0.065679847,0.148892362,0.033085264,0.048220336
0.06568329,0.14886216,0.03308722,0.048214728
0.065687046,0.148832147,0.033089317,0.048209146
0.065691115,0.148802325,0.033091557,0.048203589
0.065695498,0.148772694,0.03309394,0.048198054
0.065700193,0.148743257,0.033096466,0.048192539
0.0657052,0.148714016,0.033099135,0.048187039
0.065710518,0.14868497,0.033101947,0.048181554
0.065716147,0.148656122,0.033104903,0.04817608
0.065722085,0.148627472,0.033108002,0.048170614
0.065728331,0.14859902,0.033111245,0.048165153
0.065734885,0.148570766,0.033114631,0.048159696
0.065741746,0.148542711,0.03311816,0.04815424
0.065748912,0.148514853,0.033121833,0.048148784
0.065756382,0.148487192,0.033125648,0.048143327
0.065764156,0.148459728,0.033129606,0.048137867
0.06577223,0.148432459,0.033133706,0.048132403
0.065780606,0.148405384,0.033137948,0.048126935
0.065789279,0.148378502,0.033142331,0.048121463
0.065798251,0.148351811,0.033146855,0.048115986
0.065807517,0.148325311,0.033151521,0.048110506
