0.275798723,0.08724819,0.146100612,0.383476775
0.275816834,0.087256715,0.146081572,0.383483005
0.275835088,0.087265215,0.146062399,0.383489684
0.275853487,0.087273692,0.146043095,0.383496813
0.27587203,0.087282145,0.146023661,0.383504391
0.275890718,0.087290573,0.146004097,0.383512418
0.275909551,0.087298976,0.145984403,0.383520893
0.27592853,0.087307354,0.145964581,0.383529816
0.275947655,0.087315706,0.14594463,0.383539188
0.275966925,0.087324032,0.14592455,0.38354901
0.275986339,0.087332332,0.145904342,0.383559282
0.276005897,0.087340604,0.145884004,0.383570002
0.276025597,0.087348848,0.145863538,0.383581172
0.276045438,0.087357063,0.145842941,0.38359279
0.276065421,0.087365249,0.145822216,0.383604857
0.276085544,0.087373405,0.145801362,0.383617372
0.27610581,0.087381531,0.145780379,0.383630336
0.276126218,0.087389626,0.145759268,0.383643751
0.276146767,0.08739769,0.145738029,0.383657615
0.27616746,0.087405722,0.145716662,0.383671928
0.276188297,0.087413722,0.145695168,0.383686691
0.276209277,0.087421691,0.145673547,0.383701903
0.276230403,0.087429627,0.145651799,0.383717564
0.276251674,0.08743753,0.145629924,0.383733674
0.276273091,0.0874454,0.145607923,0.383750232
0.276294653,0.087453237,0.145585795,0.383767237
0.276316359,0.087461039,0.145563542,0.383784688
0.276338208,0.087468808,0.145541163,0.383802586
0.276360199,0.087476542,0.14551866,0.383820929
0.276382331,0.087484241,0.145496032,0.383839717
0.276404602,0.087491904,0.145473281,0.383858949
0.276427012,0.087499532,0.145450409,0.383878626
0.276449561,0.087507124,0.145427416,0.383898749
0.27647225,0.087514679,0.145404303,0.383919318
0.276495078,0.087522198,0.145381073,0.383940333
0.276518047,0.087529679,0.145357727,0.383961795
0.276541157,0.087537124,0.145334265,0.383983704
0.276564409,0.087544532,0.145310689,0.38400606
0.276587805,0.087551903,0.145287,0.384028864
0.276611346,0.087559237,0.145263199,0.384052118
0.276635032,0.087566534,0.145239287,0.384075823
0.276658864,0.087573795,0.145215264,0.384099981
0.276682843,0.087581019,0.14519113,0.384124596
0.276706969,0.087588206,0.145166887,0.384149669
0.276731243,0.087595357,0.145142534,0.384175201
0.276755665,0.087602471,0.145118073,0.384201194
0.276780235,0.087609548,0.145093502,0.384227649
0.276804954,0.087616589,0.145068824,0.384254566
0.276829822,0.087623594,0.145044037,0.384281948
0.276854843,0.087630563,0.145019144,0.384309796
0.276880019,0.087637496,0.144994146,0.384338112
0.27690535,0.087644394,0.144969043,0.384366897
0.276930839,0.087651258,0.144943836,0.384396152
0.276956489,0.087658087,0.144918526,0.384425878
0.2769823,0.087664883,0.144893115,0.384456075
0.277008276,0.087671646,0.144867602,0.384486745
0.277034417,0.087678376,0.144841989,0.384517888
0.277060724,0.087685074,0.144816276,0.384549506
0.2770872,0.087691739,0.144790464,0.3845816
0.277113843,0.087698371,0.144764554,0.384614172
0.277140654,0.087704971,0.144738546,0.384647223
0.277167633,0.08771154,0.144712442,0.384680755
0.277194779,0.087718076,0.144686242,0.384714768
0.277222091,0.08772458,0.144659948,0.384749264
0.27724957,0.087731052,0.144633559,0.384784245
0.277277216,0.087737491,0.144607079,0.384819713
0.27730503,0.087743898,0.144580507,0.384855671
0.277333012,0.087750274,0.144553846,0.38489212
0.277361162,0.087756618,0.144527097,0.384929063
0.27738948,0.087762931,0.14450026,0.384966501
0.277417967,0.087769214,0.144473337,0.385004436
0.277446623,0.087775467,0.14444633,0.38504287
0.27747545,0.08778169,0.144419238,0.385081805
0.277504446,0.087787883,0.144392063,0.385121242
0.277533611,0.087794047,0.144364807,0.385161183
0.277562946,0.087800183,0.144337469,0.38520163
0.27759245,0.087806291,0.14431005,0.385242584
0.27762212,0.087812371,0.144282552,0.385284047
0.277651955,0.087818424,0.144254975,0.385326019
0.277681954,0.087824451,0.14422732,0.3853685
0.277712114,0.087830452,0.144199587,0.385411492
0.277742433,0.087836429,0.144171778,0.385454995
0.277772912,0.087842382,0.144143895,0.385499012
0.277803549,0.087848313,0.144115937,0.385543543
0.277834343,0.087854223,0.144087908,0.385588591
0.277865293,0.087860112,0.144059807,0.385634157
0.277896399,0.087865983,0.144031637,0.385680242
0.277927659,0.087871836,0.144003397,0.385726847
0.277959073,0.087877673,0.143975088,0.385773973
0.277990641,0.087883494,0.143946712,0.385821622
0.278022361,0.087889301,0.143918268,0.385869795
0.278054232,0.087895095,0.143889759,0.385918495
0.278086252,0.087900876,0.143861184,0.385967723
0.278118419,0.087906645,0.143832547,0.386017482
0.278150731,0.087912403,0.143803848,0.386067772
0.278183186,0.087918151,0.143775092,0.386118596
0.278215781,0.087923889,0.143746281,0.386169952
0.278248515,0.087929617,0.143717417,0.386221845
0.278281386,0.087935337,0.143688505,0.386274273
0.278314394,0.087941048,0.143659546,0.386327241
0.278347539,0.087946752,0.143630546,0.386380751
0.278380819,0.08795245,0.143601506,0.386434803
0.278414235,0.087958141,0.14357243,0.386489399
0.278447786,0.087963828,0.143543321,0.386544542
0.278481471,0.087969509,0.143514182,0.386600232
0.278515289,0.087975187,0.143485015,0.38665647
0.278549241,0.087980861,0.143455823,0.386713258
0.278583324,0.087986532,0.143426608,0.386770598
0.278617539,0.0879922,0.143397373,0.386828491
0.278651882,0.087997866,0.143368121,0.386886937
0.278686353,0.08800353,0.143338853,0.386945937
0.278720948,0.088009192,0.143309572,0.387005492
0.278755666,0.088014853,0.14328028,0.387065601
0.278790504,0.088020513,0.14325098,0.387126263
0.278825459,0.088026172,0.143221672,0.387187478
0.278860531,0.08803183,0.143192361,0.387249247
0.278895718,0.088037487,0.143163048,0.387311568
0.278931018,0.088043145,0.143133737,0.387374442
0.27896643,0.088048803,0.143104428,0.387437868
0.279001952,0.088054462,0.143075126,0.387501845
0.279037583,0.088060122,0.14304583,0.387566373
0.279073323,0.088065784,0.143016545,0.387631449
0.279109168,0.088071448,0.142987271,0.387697073
0.279145119,0.088077115,0.14295801,0.387763244
0.279181173,0.088082784,0.142928764,0.387829959
0.279217328,0.088088457,0.142899535,0.387897217
0.279253582,0.088094133,0.142870325,0.387965016
0.279289931,0.088099812,0.142841134,0.38803335
0.279326373,0.088105495,0.142811966,0.388102218
0.279362905,0.088111183,0.14278282,0.388171614
0.279399522,0.088116874,0.142753699,0.388241536
0.279436223,0.08812257,0.142724605,0.38831198
0.279473006,0.08812827,0.142695539,0.388382943
0.279509868,0.088133975,0.142666504,0.388454422
0.279546806,0.088139685,0.142637501,0.388526414
0.27958382,0.0881454,0.142608532,0.388598915
0.279620906,0.088151121,0.1425796,0.388671921
0.279658062,0.088156848,0.142550705,0.388745429
0.279695287,0.088162581,0.14252185,0.388819434
0.279732579,0.088168321,0.142493036,0.388893933
0.279769934,0.088174068,0.142464264,0.388968923
0.27980735,0.088179821,0.142435535,0.389044401
0.279844825,0.088185583,0.142406852,0.389120365
0.279882356,0.088191351,0.142378214,0.389196811
0.279919939,0.088197128,0.142349625,0.389273737
0.27995757,0.088202913,0.142321084,0.389351139
0.279995247,0.088208706,0.142292594,0.389429014
0.280032966,0.088214507,0.142264156,0.389507358
0.280070727,0.088220316,0.142235772,0.389586169
0.280108526,0.088226135,0.142207445,0.389665444
0.280146364,0.088231963,0.142179176,0.38974518
0.280184239,0.088237802,0.142150968,0.389825375
0.280222149,0.08824365,0.142122822,0.389906024
0.280260093,0.08824951,0.14209474,0.389987124
0.280298071,0.088255381,0.142066724,0.390068671
0.28033608,0.088261264,0.142038775,0.39015066
0.280374121,0.08826716,0.142010894,0.39023309
0.280412191,0.088273068,0.141983083,0.390315955
0.280450289,0.088278989,0.141955341,0.390399251
0.280488415,0.088284923,0.141927671,0.390482977
0.280526567,0.08829087,0.141900074,0.390567127
0.280564742,0.088296831,0.141872549,0.390651698
0.280602941,0.088302805,0.141845099,0.390736686
0.28064116,0.088308793,0.141817724,0.390822086
0.280679401,0.088314793,0.141790426,0.390907895
0.280717661,0.088320806,0.141763206,0.390994111
0.280755943,0.088326833,0.141736066,0.39108073
0.280794244,0.088332872,0.141709008,0.391167749
0.280832565,0.088338924,0.141682034,0.391255165
0.280870906,0.08834499,0.141655144,0.391342973
0.280909267,0.088351068,0.141628341,0.39143117
0.280947647,0.088357159,0.141601625,0.391519752
0.280986046,0.088363264,0.141574998,0.391608716
0.281024463,0.088369382,0.141548462,0.391698059
0.281062898,0.088375513,0.141522017,0.391787777
0.281101349,0.088381657,0.141495664,0.391877865
0.281139815,0.088387814,0.141469406,0.391968322
0.281178293,0.088393984,0.141443243,0.392059141
0.281216783,0.088400167,0.141417178,0.39215032
0.281255281,0.088406362,0.141391213,0.392241854
0.281293786,0.08841257,0.14136535,0.39233374
0.281332296,0.088418789,0.141339592,0.392425973
0.28137081,0.088425021,0.141313942,0.392518551
0.281409328,0.088431264,0.141288401,0.392611471
0.281447849,0.088437519,0.141262974,0.39270473
0.281486372,0.088443786,0.141237662,0.392798325
0.281524896,0.088450065,0.141212468,0.392892251
0.281563422,0.088456355,0.141187395,0.392986506
0.281601948,0.088462658,0.141162443,0.393081087
0.281640475,0.088468972,0.141137614,0.393175991
0.281678999,0.088475298,0.141112911,0.393271215
0.281717521,0.088481636,0.141088335,0.393366757
0.281756039,0.088487984,0.141063887,0.393462615
0.28179455,0.088494343,0.141039568,0.393558785
0.281833051,0.088500712,0.14101538,0.393655265
0.28187154,0.088507092,0.140991324,0.393752049
0.281910015,0.08851348,0.1409674,0.393849136
0.281948473,0.088519878,0.14094361,0.393946521
0.281986912,0.088526285,0.140919955,0.394044202
0.282025332,0.088532701,0.140896436,0.394142177
0.282063731,0.088539125,0.140873055,0.394240441
0.282102108,0.088545557,0.140849813,0.394338994
0.282140463,0.088551998,0.140826712,0.39443783
0.282178794,0.088558447,0.140803752,0.394536947
0.282217101,0.088564906,0.140780935,0.394636341
0.282255383,0.088571374,0.140758262,0.394736009
0.282293638,0.08857785,0.140735733,0.394835947
0.282331867,0.088584336,0.14071335,0.394936151
0.282370067,0.08859083,0.140691113,0.395036619
0.282408237,0.088597334,0.140669024,0.395137345
0.282446374,0.088603846,0.140647084,0.395238325
0.282484477,0.088610367,0.140625294,0.395339555
0.282522543,0.088616898,0.140603656,0.395441028
0.282560569,0.088623436,0.140582169,0.395542739
0.282598554,0.088629984,0.140560837,0.395644682
0.282636497,0.08863654,0.14053966,0.395746854
0.282674397,0.088643106,0.14051864,0.395849247
0.282712252,0.08864968,0.140497777,0.395951858
0.282750062,0.088656265,0.140477073,0.396054679
0.282787826,0.08866286,0.140456529,0.396157706
0.282825543,0.088669466,0.140436146,0.396260933
0.282863213,0.088676084,0.140415923,0.396364352
0.282900835,0.088682714,0.140395862,0.396467959
0.282938407,0.088689356,0.140375962,0.396571748
0.28297593,0.08869601,0.140356224,0.396675712
0.283013402,0.088702678,0.140336647,0.396779845
0.283050821,0.08870936,0.140317234,0.39688414
0.283088185,0.088716055,0.140297984,0.396988592
0.283125492,0.088722765,0.140278901,0.397093193
0.28316274,0.088729489,0.140259985,0.397197936
0.283199927,0.088736227,0.140241239,0.397302814
0.283237051,0.088742981,0.140222665,0.397407822
0.283274112,0.088749748,0.140204266,0.397512953
0.283311109,0.088756531,0.140186043,0.397618203
0.28334804,0.08876333,0.140168,0.397723566
0.283384905,0.088770144,0.140150138,0.397829036
0.283421702,0.088776974,0.14013246,0.397934607
0.283458432,0.08878382,0.140114967,0.398040274
0.283495093,0.088790683,0.140097662,0.398146032
0.283531683,0.088797563,0.140080545,0.398251874
0.283568203,0.08880446,0.140063619,0.398357796
0.283604649,0.088811375,0.140046885,0.398463793
0.28364102,0.088818307,0.140030345,0.39856986
0.283677314,0.088825256,0.140014,0.398675991
0.283713529,0.088832224,0.139997852,0.398782181
0.283749661,0.088839209,0.139981901,0.398888422
0.283785707,0.088846213,0.139966149,0.39899471
0.283821667,0.088853234,0.139950597,0.399101037
0.283857537,0.088860273,0.139935247,0.399207398
0.283893317,0.088867331,0.139920099,0.399313789
0.283929005,0.088874408,0.139905157,0.399420204
0.283964601,0.088881503,0.139890421,0.399526637
0.284000104,0.088888619,0.139875892,0.399633083
0.284035512,0.088895755,0.139861572,0.399739536
0.284070825,0.088902911,0.139847461,0.39984599
0.284106042,0.088910089,0.13983356,0.399952438
0.284141163,0.088917288,0.13981987,0.400058876
0.284176185,0.088924508,0.139806391,0.400165297
0.284211108,0.088931751,0.139793124,0.400271695
0.28424593,0.088939015,0.139780069,0.400378064
0.284280648,0.088946302,0.139767227,0.400484398
0.284315261,0.088953612,0.139754598,0.400590689
0.284349766,0.088960943,0.139742183,0.400696931
0.284384162,0.088968297,0.139729983,0.400803117
0.284418449,0.088975673,0.139717998,0.400909239
0.284452624,0.088983072,0.139706229,0.401015291
0.28448669,0.088990492,0.139694677,0.401121267
0.284520645,0.088997936,0.139683344,0.401227161
0.28455449,0.089005403,0.139672229,0.401332964
0.284588224,0.089012893,0.139661333,0.401438671
0.284621848,0.089020406,0.139650657,0.401544275
0.284655362,0.089027944,0.139640202,0.401649768
0.284688765,0.089035507,0.139629968,0.401755145
0.284722057,0.089043093,0.139619954,0.401860397
0.284755239,0.089050704,0.139610162,0.401965517
0.28478831,0.089058339,0.139600592,0.402070499
0.284821269,0.089065999,0.139591243,0.402175332
0.284854116,0.089073683,0.139582114,0.40228001
0.28488685,0.08908139,0.139573206,0.402384524
0.28491947,0.08908912,0.139564518,0.402488864
0.284951975,0.089096873,0.139556049,0.402593023
0.284984366,0.089104647,0.139547798,0.402696991
0.285016643,0.089112443,0.139539766,0.402800762
0.285048806,0.08912026,0.139531953,0.402904326
0.285080857,0.089128097,0.139524358,0.403007677
0.285112796,0.089135954,0.139516981,0.403110806
0.285144625,0.08914383,0.139509821,0.403213705
0.285176344,0.089151726,0.139502879,0.403316366
0.285207955,0.08915964,0.139496153,0.403418782
0.285239459,0.089167572,0.139489644,0.403520944
0.285270857,0.089175523,0.13948335,0.403622845
0.285302149,0.089183491,0.139477271,0.403724477
0.285333336,0.089191475,0.139471405,0.403825833
0.285364416,0.089199477,0.139465754,0.403926905
0.285395388,0.089207494,0.139460318,0.404027685
0.285426254,0.089215528,0.139455096,0.404128166
0.28545701,0.089223577,0.13945009,0.404228339
0.285487657,0.089231642,0.139445301,0.404328199
0.285518196,0.089239721,0.13944073,0.404427738
0.285548627,0.089247815,0.139436378,0.404526949
0.285578951,0.089255923,0.139432247,0.404625827
0.285609169,0.089264046,0.139428338,0.404724365
0.285639282,0.089272185,0.139424653,0.404822556
0.285669293,0.089280338,0.139421192,0.404920394
0.285699201,0.089288506,0.139417956,0.405017872
0.285729011,0.089296689,0.139414947,0.405114985
0.285758721,0.089304888,0.139412164,0.405211726
0.285788336,0.089313102,0.139409608,0.405308091
0.285817853,0.089321331,0.139407279,0.405404074
0.285847276,0.089329575,0.139405179,0.405499672
0.285876604,0.089337834,0.139403307,0.405594878
0.285905836,0.089346107,0.139401665,0.40568969
0.285934974,0.089354394,0.139400254,0.405784101
0.285964018,0.089362695,0.139399076,0.405878108
0.285992969,0.089371008,0.139398131,0.405971705
0.286021828,0.089379334,0.139397421,0.40606489
0.286050596,0.089387671,0.139396947,0.406157658
0.286079277,0.08939602,0.139396713,0.406250005
0.286107871,0.08940438,0.139396718,0.406341926
0.286136381,0.08941275,0.139396964,0.406433418
0.286164809,0.089421131,0.139397453,0.406524476
0.286193158,0.089429521,0.139398185,0.406615095
0.28622143,0.089437922,0.139399161,0.406705273
0.286249627,0.089446332,0.139400382,0.406795006
0.286277751,0.089454751,0.139401847,0.40688429
0.286305802,0.08946318,0.139403558,0.406973121
0.286333783,0.089471617,0.139405515,0.407061497
0.286361695,0.089480063,0.139407718,0.407149411
0.286389537,0.089488517,0.139410168,0.407236861
0.286417313,0.089496978,0.139412865,0.407323841
0.286445022,0.089505446,0.139415809,0.407410347
0.286472667,0.089513921,0.139419003,0.407496375
0.286500251,0.089522401,0.139422446,0.407581922
0.286527778,0.089530886,0.13942614,0.407666985
0.286555249,0.089539376,0.139430085,0.407751563
0.286582667,0.08954787,0.139434284,0.407835651
0.286610036,0.089556368,0.139438735,0.407919248
0.286637359,0.08956487,0.13944344,0.408002351
0.286664637,0.089573376,0.139448399,0.408084957
0.286691874,0.089581885,0.139453612,0.408167064
0.286719073,0.089590397,0.139459078,0.408248671
0.286746234,0.089598912,0.139464799,0.408329775
0.286773359,0.089607429,0.139470773,0.408410374
0.286800452,0.089615948,0.139476999,0.408490467
0.286827513,0.089624468,0.139483479,0.408570051
0.286854544,0.08963299,0.13949021,0.408649122
0.286881547,0.089641513,0.139497193,0.40872768
0.286908524,0.089650036,0.139504426,0.40880572
0.286935478,0.089658559,0.139511908,0.408883242
0.286962414,0.089667082,0.139519641,0.408960246
0.286989336,0.089675603,0.139527623,0.409036729
0.287016247,0.089684123,0.139535854,0.409112692
0.28704315,0.089692641,0.139544334,0.409188132
0.287070051,0.089701157,0.13955306,0.40926305
0.287096952,0.089709671,0.139562033,0.409337446
0.287123857,0.089718181,0.139571251,0.409411318
0.287150769,0.089726688,0.139580714,0.409484668
0.287177692,0.08973519,0.139590419,0.409557493
0.287204627,0.089743688,0.139600366,0.409629794
0.287231577,0.089752181,0.139610554,0.40970157
0.287258543,0.089760668,0.13962098,0.409772818
0.287285529,0.089769148,0.139631646,0.409843538
0.287312534,0.089777622,0.139642548,0.409913727
0.287339562,0.089786087,0.139653687,0.409983385
0.287366614,0.089794545,0.139665061,0.410052509
0.287393693,0.089802994,0.13967667,0.410121098
0.287420802,0.089811434,0.139688514,0.410189151
0.287447944,0.089819865,0.139700592,0.410256666
0.287475122,0.089828286,0.139712903,0.410323641
0.287502338,0.089836698,0.139725446,0.410390073
0.287529595,0.089845101,0.139738222,0.410455961
0.287556895,0.089853494,0.139751228,0.410521303
0.287584241,0.089861876,0.139764465,0.410586097
0.287611633,0.089870249,0.139777931,0.410650341
0.287639075,0.08987861,0.139791626,0.410714033
0.287666566,0.08988696,0.139805547,0.410777171
0.287694109,0.089895299,0.139819695,0.410839752
0.287721702,0.089903627,0.139834067,0.410901775
0.287749348,0.089911942,0.139848663,0.410963235
0.287777044,0.089920245,0.139863481,0.411024129
0.287804792,0.089928536,0.139878521,0.411084455
0.287832592,0.089936813,0.13989378,0.411144211
0.287860446,0.089945077,0.13990926,0.411203395
0.287888353,0.089953326,0.139924959,0.411262005
0.287916315,0.089961562,0.139940876,0.411320041
0.287944333,0.089969782,0.139957011,0.411377502
0.287972408,0.089977989,0.139973362,0.411434385
0.288000543,0.089986181,0.13998993,0.41149069
0.288028737,0.089994359,0.140006712,0.411546417
0.288056993,0.090002523,0.140023707,0.411601564
0.28808531,0.090010672,0.140040915,0.411656131
0.288113691,0.090018807,0.140058333,0.411710117
0.288142133,0.090026929,0.140075961,0.411763521
0.288170638,0.090035036,0.140093795,0.411816342
0.288199206,0.09004313,0.140111836,0.411868579
0.288227834,0.09005121,0.140130081,0.41192023
0.288256522,0.090059277,0.140148529,0.411971292
0.288285269,0.090067332,0.140167179,0.412021765
0.288314076,0.090075373,0.140186029,0.412071646
0.288342943,0.090083402,0.14020508,0.412120934
0.288371871,0.09009142,0.14022433,0.412169627
0.288400859,0.090099425,0.140243779,0.412217725
0.28842991,0.090107421,0.140263426,0.412265225
0.288459023,0.090115406,0.14028327,0.412312126
0.2884882,0.090123383,0.14030331,0.412358427
0.288517441,0.090131352,0.140323544,0.412404124
0.288546747,0.090139315,0.140343972,0.412449217
0.288576118,0.090147273,0.140364591,0.412493702
0.288605553,0.090155226,0.140385401,0.412537577
0.288635051,0.090163176,0.1404064,0.412580839
0.288664612,0.090171125,0.140427587,0.412623484
0.288694235,0.090179072,0.14044896,0.41266551
0.288723918,0.090187019,0.140470516,0.412706912
0.28875366,0.090194966,0.140492256,0.412747686
0.288783461,0.090202915,0.140514175,0.41278783
0.288813321,0.090210867,0.140536274,0.41282734
0.28884324,0.090218821,0.140558549,0.412866214
0.288873218,0.090226779,0.140580999,0.412904448
0.288903255,0.090234743,0.140603621,0.41294204
0.288933351,0.090242712,0.140626413,0.412978985
0.288963506,0.090250688,0.140649373,0.41301528
0.28899372,0.090258672,0.140672497,0.413050923
0.289023994,0.090266664,0.140695784,0.413085908
0.289054326,0.090274664,0.14071923,0.413120233
0.289084717,0.090282675,0.140742832,0.413153894
0.289115164,0.090290695,0.140766587,0.413186887
0.289145667,0.090298726,0.140790493,0.413219208
0.289176225,0.090306768,0.140814545,0.413250852
0.289206835,0.090314822,0.140838742,0.413281815
0.289237496,0.090322888,0.140863081,0.413312093
0.289268207,0.090330966,0.140887557,0.413341681
0.289298966,0.090339058,0.140912169,0.413370576
0.289329773,0.090347165,0.140936914,0.413398776
0.289360628,0.090355286,0.14096179,0.413426278
0.28939153,0.090363423,0.140986793,0.41345308
0.289422479,0.090371577,0.141011921,0.413479179
0.289453474,0.090379747,0.141037171,0.413504574
0.289484515,0.090387936,0.141062539,0.413529262
0.289515601,0.090396142,0.141088023,0.413553242
0.289546733,0.090404368,0.141113619,0.41357651
0.289577909,0.090412612,0.141139324,0.413599067
0.289609128,0.090420876,0.141165135,0.41362091
0.289640388,0.090429159,0.141191047,0.413642037
0.289671687,0.090437463,0.141217058,0.413662447
0.289703023,0.090445788,0.141243165,0.413682137
0.289734393,0.090454134,0.141269364,0.413701104
0.289765794,0.090462502,0.141295652,0.413719346
0.289797224,0.090470891,0.141322026,0.41373686
0.289828682,0.090479302,0.141348483,0.413753643
0.289860165,0.090487736,0.141375021,0.413769695
0.289891674,0.090496193,0.141401637,0.413785012
0.289923206,0.090504672,0.14142833,0.413799594
0.289954762,0.090513175,0.141455096,0.413813436
0.289986339,0.090521702,0.141481933,0.413826537
0.290017936,0.090530253,0.141508838,0.413838894
0.290049552,0.090538829,0.141535809,0.413850504
0.290081186,0.090547429,0.141562843,0.413861366
0.290112836,0.090556053,0.141589937,0.413871475
0.290144501,0.090564702,0.141617088,0.413880831
0.290176178,0.090573376,0.141644294,0.41388943
0.290207865,0.090582073,0.141671551,0.413897271
0.290239559,0.090590796,0.141698858,0.41390435
0.290271256,0.090599542,0.141726212,0.413910665
0.290302955,0.090608312,0.14175361,0.413916214
0.290334654,0.090617107,0.141781049,0.413920994
0.29036635,0.090625925,0.141808528,0.413925005
0.290398044,0.090634767,0.141836045,0.413928244
0.290429733,0.090643633,0.141863598,0.413930712
0.290461417,0.090652524,0.141891185,0.413932407
0.290493095,0.090661439,0.141918805,0.413933328
0.290524766,0.090670379,0.141946456,0.413933473
0.29055643,0.090679344,0.141974137,0.413932843
0.290588087,0.090688334,0.142001846,0.413931435
0.290619735,0.09069735,0.142029581,0.413929248
0.290651373,0.090706391,0.14205734,0.413926282
0.290683001,0.090715458,0.142085123,0.413922534
0.290714616,0.09072455,0.142112927,0.413918003
0.290746217,0.090733669,0.142140751,0.413912686
0.290777802,0.090742813,0.142168593,0.413906582
0.290809368,0.090751983,0.142196451,0.413899687
0.290840915,0.090761179,0.142224323,0.413891999
0.29087244,0.090770401,0.142252209,0.413883516
0.290903943,0.090779648,0.142280107,0.413874236
0.290935423,0.090788921,0.142308016,0.413864159
0.290966882,0.09079822,0.142335934,0.413853281
0.290998317,0.090807544,0.142363859,0.413841602
0.29102973,0.090816892,0.142391792,0.413829119
0.291061121,0.090826266,0.142419728,0.413815831
0.291092491,0.090835664,0.142447668,0.413801735
0.291123839,0.090845087,0.142475608,0.413786829
0.291155165,0.090854533,0.142503546,0.413771112
0.291186469,0.090864003,0.142531482,0.413754581
0.291217749,0.090873495,0.142559411,0.413737235
0.291249005,0.09088301,0.142587333,0.413719072
0.291280236,0.090892548,0.142615244,0.413700088
0.291311441,0.090902106,0.142643143,0.413680281
0.291342617,0.090911685,0.142671029,0.413659649
0.291373765,0.090921284,0.142698898,0.413638189
0.291404885,0.090930903,0.14272675,0.413615901
0.291435977,0.09094054,0.142754583,0.413592783
0.291467042,0.090950196,0.142782396,0.413568835
0.291498081,0.090959868,0.142810188,0.413544057
0.291529093,0.090969557,0.142837957,0.413518447
0.291560081,0.090979262,0.142865701,0.413492006
0.291591045,0.090988981,0.14289342,0.413464731
0.291621986,0.090998715,0.142921111,0.413436623
0.291652905,0.091008462,0.142948772,0.41340768
0.291683801,0.091018221,0.142976403,0.413377903
0.291714675,0.091027991,0.143004001,0.413347291
0.291745526,0.091037771,0.143031564,0.413315843
0.291776354,0.091047561,0.143059091,0.413283557
0.291807157,0.09105736,0.143086578,0.413250433
0.291837934,0.091067166,0.143114024,0.413216469
0.291868684,0.091076978,0.143141427,0.413181664
0.291899405,0.091086797,0.143168784,0.413146017
0.291930098,0.09109662,0.143196095,0.413109527
0.291960762,0.091106448,0.143223356,0.413072196
0.291991397,0.091116279,0.143250566,0.413034023
0.292022002,0.091126114,0.143277724,0.412995008
0.292052578,0.091135951,0.143304827,0.412955151
0.292083123,0.091145789,0.143331874,0.412914453
0.292113639,0.091155629,0.143358861,0.412872916
0.292144125,0.091165469,0.143385787,0.412830539
0.29217458,0.091175307,0.143412649,0.412787323
0.292205004,0.091185144,0.143439446,0.41274327
0.292235396,0.091194979,0.143466174,0.412698378
0.292265754,0.091204809,0.14349283,0.412652649
0.292296078,0.091214634,0.143519414,0.412606082
0.292326364,0.091224453,0.14354592,0.412558677
0.292356612,0.091234265,0.143572347,0.412510433
0.292386818,0.091244069,0.143598691,0.412461351
0.292416982,0.091253863,0.143624951,0.412411432
0.292447102,0.091263645,0.143651122,0.412360674
0.292477178,0.091273416,0.143677204,0.412309081
0.292507208,0.091283174,0.143703192,0.412256651
0.292537192,0.091292918,0.143729085,0.412203386
0.292567128,0.091302647,0.14375488,0.412149286
0.292597016,0.091312361,0.143780574,0.412094353
0.292626854,0.091322057,0.143806165,0.412038587
0.292656642,0.091331737,0.143831649,0.411981991
0.292686378,0.091341397,0.143857025,0.411924565
0.292716061,0.091351038,0.143882288,0.411866311
0.292745689,0.091360658,0.143907436,0.41180723
0.292775259,0.091370258,0.143932466,0.411747323
0.292804768,0.091379834,0.143957375,0.411686591
0.292834215,0.091389388,0.143982159,0.411625033
0.292863597,0.091398917,0.144006817,0.41156265
0.292892912,0.09140842,0.144031345,0.411499442
0.292922157,0.091417897,0.144055741,0.411435411
0.292951333,0.091427346,0.144080001,0.411370557
0.292980438,0.091436767,0.144104125,0.411304882
0.293009471,0.091446158,0.144128109,0.411238387
0.293038431,0.09145552,0.144151951,0.411171073
0.293067318,0.091464851,0.144175648,0.411102941
0.293096131,0.091474152,0.144199197,0.411033991
0.29312487,0.09148342,0.144222595,0.410964225
0.293153534,0.091492657,0.144245839,0.410893644
0.293182123,0.091501861,0.144268925,0.410822248
0.293210635,0.091511031,0.144291851,0.410750039
0.293239069,0.091520168,0.144314613,0.410677016
0.293267425,0.09152927,0.144337208,0.410603182
0.2932957,0.091538338,0.144359633,0.410528535
0.293323891,0.091547371,0.144381886,0.410453075
0.293351999,0.091556369,0.144403963,0.410376802
0.29338002,0.091565331,0.144425862,0.410299717
0.293407956,0.091574257,0.144447581,0.410221821
0.293435805,0.091583148,0.144469117,0.410143114
0.293463566,0.091592003,0.14449047,0.410063596
0.29349124,0.091600822,0.144511637,0.409983269
0.293518826,0.091609607,0.144532615,0.409902132
0.293546324,0.091618356,0.144553403,0.409820186
0.293573734,0.091627071,0.144573999,0.409737431
0.293601055,0.091635751,0.1445944,0.409653866
0.293628287,0.091644397,0.144614605,0.409569494
0.293655429,0.091653008,0.144634611,0.409484314
0.293682481,0.091661585,0.144654415,0.409398326
0.293709441,0.091670127,0.144674017,0.40931153
0.293736308,0.091678634,0.144693412,0.409223927
0.293763078,0.091687107,0.1447126,0.409135516
0.293789751,0.091695546,0.144731579,0.409046296
0.293816324,0.091703949,0.144750346,0.408956267
0.293842797,0.091712318,0.144768899,0.408865429
0.293869167,0.091720652,0.144787238,0.408773784
0.293895435,0.091728951,0.144805362,0.408681331
0.2939216,0.091737216,0.144823268,0.408588072
0.293947661,0.091745447,0.144840957,0.408494007
0.293973616,0.091753643,0.144858427,0.408399136
0.293999465,0.091761806,0.144875676,0.408303461
0.294025208,0.091769935,0.144892705,0.408206982
0.294050844,0.09177803,0.144909512,0.408109699
0.294076372,0.091786091,0.144926097,0.408011614
0.29410179,0.09179412,0.144942458,0.407912727
0.294127098,0.091802114,0.144958595,0.40781304
0.294152294,0.091810075,0.144974505,0.407712552
0.294177375,0.091818003,0.144990189,0.407611265
0.29420234,0.091825897,0.145005644,0.407509178
0.294227186,0.091833757,0.145020869,0.407406292
0.294251911,0.091841583,0.145035864,0.407302609
0.294276515,0.091849377,0.145050626,0.407198128
0.294300996,0.091857136,0.145065156,0.407092854
0.294325355,0.091864864,0.145079452,0.406986787
0.294349589,0.091872559,0.145093513,0.40687993
0.2943737,0.091880223,0.145107338,0.406772286
0.294397686,0.091887857,0.145120927,0.406663857
0.294421548,0.091895462,0.145134277,0.406554646
0.294445287,0.09190304,0.145147388,0.406444655
0.2944689,0.09191059,0.145160259,0.406333887
0.294492389,0.091918115,0.145172889,0.406222346
0.294515751,0.091925616,0.145185276,0.406110032
0.294538987,0.091933092,0.145197421,0.40599695
0.294562094,0.091940545,0.145209321,0.4058831
0.294585071,0.091947975,0.145220977,0.405768484
0.294607917,0.091955383,0.145232387,0.405653105
0.29463063,0.09196277,0.145243552,0.405536964
0.294653209,0.091970135,0.14525447,0.405420063
0.294675653,0.091977479,0.145265143,0.405302405
0.294697962,0.091984802,0.145275571,0.405183992
0.294720137,0.091992105,0.145285753,0.405064827
0.294742176,0.091999388,0.145295691,0.404944913
0.29476408,0.092006653,0.145305385,0.40482425
0.294785849,0.092013901,0.145314833,0.40470284
0.294807482,0.092021132,0.145324038,0.404580687
0.29482898,0.092028348,0.145332999,0.404457791
0.294850341,0.09203555,0.145341715,0.404334155
0.294871564,0.092042738,0.145350188,0.404209781
0.29489265,0.092049915,0.145358417,0.404084671
0.294913596,0.09205708,0.145366403,0.403958826
0.294934402,0.092064235,0.145374147,0.40383225
0.294955065,0.092071382,0.145381649,0.403704943
0.294975583,0.09207852,0.145388909,0.403576907
0.294995956,0.092085651,0.145395929,0.403448143
0.29501618,0.092092775,0.145402709,0.403318654
0.295036257,0.092099893,0.14540925,0.403188442
0.295056184,0.092107006,0.145415552,0.403057509
0.295075961,0.092114114,0.145421616,0.402925859
0.295095587,0.092121217,0.145427442,0.402793493
0.295115061,0.092128318,0.145433031,0.402660414
0.295134382,0.092135416,0.145438383,0.402526624
0.295153549,0.092142513,0.145443497,0.402392124
0.295172561,0.092149609,0.145448374,0.402256918
0.295191416,0.092156706,0.145453013,0.402121007
0.295210113,0.092163804,0.145457414,0.401984393
0.295228651,0.092170903,0.145461576,0.401847078
0.295247026,0.092178006,0.145465499,0.401709064
0.295265237,0.092185111,0.145469184,0.401570353
0.295283281,0.09219222,0.145472629,0.401430946
0.295301155,0.092199334,0.145475833,0.401290843
0.295318858,0.092206453,0.145478798,0.401150048
0.295336388,0.092213576,0.145481523,0.401008562
0.295353745,0.092220706,0.145484007,0.400866388
0.295370928,0.092227842,0.145486252,0.400723529
0.295387937,0.092234985,0.145488257,0.400579988
0.295404771,0.092242135,0.145490022,0.400435767
0.295421429,0.092249294,0.145491547,0.40029087
0.295437913,0.092256462,0.145492832,0.400145299
0.295454221,0.09226364,0.145493876,0.399999057
0.295470354,0.092270828,0.145494678,0.399852147
0.29548631,0.092278027,0.145495239,0.399704573
0.295502091,0.092285238,0.145495558,0.399556336
0.295517694,0.092292461,0.145495635,0.399407439
0.29553312,0.092299695,0.145495468,0.399257884
0.295548367,0.092306943,0.145495058,0.399107673
0.295563434,0.092314203,0.145494404,0.398956809
0.295578319,0.092321476,0.145493506,0.398805292
0.295593024,0.092328764,0.145492362,0.398653127
0.295607548,0.092336065,0.145490974,0.398500316
0.295621891,0.09234338,0.145489341,0.398346863
0.295636053,0.092350711,0.145487463,0.398192771
0.295650035,0.092358057,0.145485339,0.398038044
0.295663838,0.092365419,0.145482969,0.397882685
0.295677462,0.092372797,0.145480353,0.397726698
0.295690909,0.092380192,0.145477491,0.397570087
0.295704177,0.092387603,0.14547438,0.397412857
0.295717269,0.092395032,0.145471022,0.397255011
0.295730184,0.092402478,0.145467415,0.397096554
0.295742921,0.092409941,0.145463558,0.39693749
0.295755481,0.092417421,0.145459451,0.396777824
0.295767862,0.092424918,0.145455094,0.396617558
0.295780063,0.092432432,0.145450485,0.396456697
0.295792083,0.092439962,0.145445625,0.396295242
0.295803921,0.092447508,0.145440513,0.396133198
0.295815578,0.09245507,0.145435151,0.395970567
0.295827052,0.092462647,0.145429537,0.395807353
0.295838344,0.09247024,0.145423673,0.395643562
0.295849455,0.092477848,0.14541756,0.395479195
0.295860384,0.092485471,0.145411198,0.395314257
0.295871133,0.092493111,0.145404587,0.395148752
0.295881703,0.092500766,0.145397727,0.394982683
0.295892093,0.092508436,0.14539062,0.394816054
0.295902305,0.092516123,0.145383263,0.39464887
0.295912338,0.092523826,0.145375659,0.394481135
0.295922192,0.092531546,0.145367806,0.394312853
0.295931868,0.092539282,0.145359704,0.394144028
0.295941364,0.092547035,0.145351352,0.393974664
0.295950679,0.092554805,0.145342752,0.393804765
0.295959813,0.092562592,0.145333902,0.393634335
0.295968762,0.092570397,0.145324802,0.393463376
0.295977527,0.092578218,0.145315452,0.393291894
0.295986106,0.092586058,0.145305852,0.393119892
0.295994499,0.092593916,0.145296002,0.392947376
0.296002706,0.092601792,0.145285903,0.392774351
0.296010727,0.092609688,0.145275554,0.392600821
0.296018562,0.092617603,0.145264957,0.392426793
0.29602621,0.092625539,0.14525411,0.39225227
0.296033672,0.092633497,0.145243015,0.392077258
0.296040947,0.092641476,0.145231671,0.391901763
0.296048035,0.092649477,0.145220077,0.391725789
0.296054935,0.092657502,0.145208235,0.391549343
0.296061647,0.092665549,0.145196144,0.391372429
0.296068169,0.092673621,0.145183804,0.391195052
0.296074499,0.092681717,0.145171215,0.391017216
0.296080636,0.092689839,0.145158377,0.390838927
0.296086578,0.092697986,0.145145289,0.390660188
0.296092323,0.092706159,0.145131953,0.390481004
0.296097871,0.092714359,0.145118368,0.390301378
0.29610322,0.092722585,0.145104534,0.390121315
0.296108372,0.092730839,0.145090453,0.389940821
0.296113325,0.09273912,0.145076125,0.389759899
0.29611808,0.092747431,0.14506155,0.389578554
0.296122637,0.09275577,0.145046729,0.389396789
0.296126996,0.092764139,0.145031662,0.38921461
0.296131157,0.092772538,0.145016349,0.389032019
0.296135121,0.092780968,0.14500079,0.388849023
0.296138888,0.092789428,0.144984987,0.388665625
0.296142458,0.092797919,0.144968938,0.388481829
0.29614583,0.092806442,0.144952645,0.38829764
0.296149005,0.092814995,0.144936107,0.388113062
0.296151982,0.092823579,0.144919324,0.387928099
0.296154761,0.092832194,0.144902298,0.387742754
0.296157343,0.09284084,0.144885028,0.38755703
0.296159727,0.092849516,0.144867514,0.387370931
0.296161914,0.092858222,0.144849758,0.38718446
0.296163906,0.092866959,0.14483176,0.386997623
0.296165704,0.092875725,0.144813521,0.386810423
0.296167308,0.092884521,0.144795041,0.386622865
0.29616872,0.092893348,0.144776321,0.386434953
0.296169941,0.092902206,0.144757361,0.386246691
0.29617097,0.092911095,0.144738162,0.386058081
0.29617181,0.092920015,0.144718723,0.385869128
0.29617246,0.092928967,0.144699046,0.385679835
0.29617292,0.092937951,0.144679129,0.385490207
0.29617319,0.092946967,0.144658972,0.385300247
0.29617327,0.092956016,0.144638576,0.385109959
0.296173157,0.092965098,0.144617941,0.384919346
0.296172852,0.092974213,0.144597067,0.384728413
0.296172353,0.092983361,0.144575953,0.384537162
0.296171658,0.092992542,0.144554601,0.384345596
0.296170768,0.093001756,0.14453301,0.38415372
0.296169682,0.093011003,0.144511183,0.383961536
0.296168401,0.093020282,0.144489119,0.383769051
0.296166925,0.093029594,0.144466821,0.383576267
0.296165257,0.093038939,0.14444429,0.383383189
0.296163397,0.093048316,0.144421527,0.383189822
0.296161347,0.093057726,0.144398532,0.382996169
0.296159107,0.093067169,0.144375307,0.382802236
0.296156679,0.093076644,0.144351853,0.382608025
0.296154064,0.093086153,0.14432817,0.382413542
0.296151263,0.093095695,0.144304259,0.382218789
0.296148276,0.09310527,0.14428012,0.382023772
0.296145103,0.093114878,0.144255755,0.381828494
0.296141745,0.093124519,0.144231164,0.381632958
0.2961382,0.093134192,0.144206348,0.381437166
0.296134469,0.093143898,0.144181308,0.381241122
0.296130552,0.093153636,0.144156044,0.381044829
0.296126448,0.093163405,0.144130558,0.380848289
0.29612216,0.093173206,0.144104851,0.380651506
0.296117687,0.093183037,0.144078924,0.380454484
0.296113032,0.093192899,0.144052778,0.380257227
0.296108196,0.093202792,0.144026415,0.380059738
0.296103181,0.093212714,0.143999835,0.379862021
0.296097989,0.093222667,0.14397304,0.37966408
0.296092622,0.09323265,0.143946031,0.379465919
0.296087081,0.093242663,0.143918808,0.379267541
0.296081368,0.093252706,0.143891374,0.379068951
0.296075484,0.093262777,0.143863727,0.378870153
0.29606943,0.093272878,0.14383587,0.378671151
0.296063207,0.093283007,0.143807802,0.378471946
0.296056815,0.093293164,0.143779524,0.378272542
0.296050255,0.093303349,0.143751037,0.378072942
0.296043527,0.09331356,0.143722341,0.377873149
0.296036633,0.093323798,0.143693437,0.377673165
0.296029572,0.093334062,0.143664324,0.377472993
0.296022347,0.093344351,0.143635005,0.377272638
0.296014959,0.093354664,0.143605479,0.377072104
0.29600741,0.093365,0.143575748,0.376871394
0.295999701,0.093375359,0.143545813,0.376670512
0.295991834,0.09338574,0.143515674,0.376469461
0.295983809,0.093396142,0.143485333,0.376268246
0.295975628,0.093406564,0.143454789,0.376066871
0.295967291,0.093417006,0.143424044,0.37586534
0.2959588,0.093427465,0.143393098,0.375663657
0.295950153,0.093437942,0.143361952,0.375461828
0.295941351,0.093448436,0.143330606,0.375259857
0.295932394,0.093458944,0.143299061,0.375057749
0.295923279,0.093469466,0.143267318,0.374855508
0.295914008,0.093480002,0.143235376,0.374653138
0.295904577,0.093490549,0.143203236,0.374450644
0.295894988,0.093501108,0.143170899,0.374248031
0.29588524,0.093511676,0.143138365,0.374045303
0.295875332,0.093522252,0.143105634,0.373842468
0.295865265,0.093532838,0.143072709,0.373639531
0.295855039,0.09354343,0.143039589,0.373436498
0.295844654,0.093554029,0.143006277,0.373233374
0.295834108,0.093564634,0.142972772,0.373030165
0.295823401,0.093575244,0.142939076,0.372826878
0.295812532,0.093585858,0.142905189,0.372623518
0.295801502,0.093596475,0.142871113,0.372420091
0.29579031,0.093607094,0.142836848,0.372216603
0.295778954,0.093617714,0.142802395,0.37201306
0.295767435,0.093628333,0.142767755,0.371809467
0.29575575,0.093638952,0.142732928,0.371605828
0.2957439,0.093649568,0.142697915,0.371402149
0.295731883,0.09366018,0.142662717,0.371198433
0.295719698,0.093670788,0.142627335,0.370994685
0.295707345,0.093681389,0.142591768,0.37079091
0.295694826,0.093691982,0.142556018,0.370587114
0.29568214,0.093702567,0.142520085,0.370383302
0.295669289,0.093713142,0.142483972,0.370179479
0.295656275,0.093723706,0.142447677,0.36997565
0.295643098,0.09373426,0.142411203,0.369771821
0.295629761,0.093744801,0.142374549,0.369567997
0.295616264,0.093755329,0.142337716,0.369364183
0.295602609,0.093765843,0.142300705,0.369160385
0.295588798,0.093776343,0.142263516,0.368956607
0.29557483,0.093786826,0.142226149,0.368752854
0.295560707,0.093797292,0.142188605,0.368549132
0.295546429,0.09380774,0.142150884,0.368345445
0.295531995,0.093818168,0.142112987,0.368141797
0.295517406,0.093828577,0.142074913,0.367938192
0.29550266,0.093838965,0.142036663,0.367734635
0.295487759,0.09384933,0.141998237,0.367531128
0.295472701,0.093859673,0.141959636,0.367327676
0.295457487,0.093869991,0.141920861,0.367124285
0.295442118,0.093880285,0.141881911,0.366920958
0.295426594,0.093890554,0.141842789,0.366717701
0.295410917,0.093900798,0.141803496,0.366514518
0.295395086,0.093911017,0.141764031,0.366311413
0.295379103,0.09392121,0.141724398,0.366108391
0.295362968,0.093931376,0.141684596,0.365905456
0.295346682,0.093941516,0.141644627,0.365702613
0.295330245,0.093951629,0.141604491,0.365499866
0.295313657,0.093961715,0.141564191,0.365297218
0.295296919,0.093971774,0.141523725,0.365094676
0.295280029,0.093981804,0.141483096,0.364892241
0.295262988,0.093991807,0.141442304,0.364689919
0.295245795,0.094001782,0.141401349,0.364487711
0.295228449,0.094011729,0.141360232,0.364285622
0.295210949,0.094021647,0.141318954,0.364083655
0.295193298,0.094031537,0.141277516,0.363881814
0.295175497,0.094041398,0.14123592,0.363680103
0.295157546,0.094051231,0.141194167,0.363478526
0.295139448,0.094061036,0.14115226,0.363277088
0.295121205,0.094070811,0.141110199,0.363075792
0.295102819,0.094080558,0.141067987,0.362874642
0.29508429,0.094090277,0.141025625,0.36267364
0.295065623,0.094099965,0.140983115,0.362472792
0.295046817,0.094109625,0.140940458,0.362272099
0.295027875,0.094119254,0.140897656,0.362071566
0.295008799,0.094128852,0.140854711,0.361871195
0.294989588,0.094138419,0.140811625,0.361670989
0.294970245,0.094147955,0.140768399,0.361470952
0.294950768,0.094157458,0.140725035,0.361271084
0.294931159,0.094166928,0.140681536,0.361071389
0.294911417,0.094176365,0.140637902,0.360871869
0.294891543,0.094185768,0.140594137,0.360672526
0.294871538,0.094195135,0.140550243,0.360473363
0.294851405,0.094204468,0.140506222,0.360274383
0.294831145,0.094213765,0.140462076,0.36007559
0.29481076,0.094223027,0.140417808,0.359876986
0.294790252,0.094232254,0.14037342,0.359678573
0.294769621,0.094241444,0.140328914,0.359480355
0.294748871,0.094250598,0.140284291,0.359282334
0.294728002,0.094259715,0.140239555,0.359084513
0.294707017,0.094268795,0.140194706,0.358886894
0.294685916,0.094277837,0.140149746,0.358689482
0.294664701,0.094286841,0.140104678,0.358492278
0.294643373,0.094295806,0.140059502,0.358295284
0.294621932,0.094304733,0.140014221,0.358098502
0.294600378,0.09431362,0.139968837,0.357901935
0.294578711,0.094322468,0.139923351,0.357705584
0.294556931,0.094331276,0.139877767,0.357509451
0.29453504,0.094340044,0.139832085,0.35731354
0.294513036,0.094348774,0.139786309,0.357117853
0.294490923,0.094357463,0.139740441,0.356922396
0.2944687,0.094366114,0.139694484,0.356727171
0.294446369,0.094374726,0.13964844,0.356532184
0.294423932,0.0943833,0.139602313,0.356337438
0.294401389,0.094391836,0.139556103,0.356142937
0.294378743,0.094400335,0.139509815,0.355948686
0.294355996,0.094408798,0.139463449,0.355754689
0.294333148,0.094417223,0.139417009,0.355560951
0.294310202,0.094425612,0.139370496,0.355367478
0.294287159,0.094433964,0.139323913,0.355174275
0.29426402,0.09444228,0.139277261,0.354981347
0.294240785,0.094450559,0.139230544,0.354788699
0.294217455,0.094458801,0.139183762,0.354596335
0.294194031,0.094467006,0.139136919,0.354404259
0.294170514,0.094475173,0.139090017,0.354212478
0.294146904,0.094483302,0.139043058,0.354020996
0.294123205,0.094491392,0.138996047,0.353829819
0.294099418,0.094499444,0.138948985,0.353638951
0.294075546,0.094507456,0.138901876,0.3534484
0.294051591,0.094515429,0.138854723,0.35325817
0.294027554,0.094523362,0.138807528,0.353068267
0.294003439,0.094531255,0.138760294,0.352878696
0.293979249,0.094539107,0.138713023,0.352689462
0.293954985,0.094546917,0.138665718,0.352500572
0.29393065,0.094554685,0.138618381,0.352312031
0.293906245,0.094562411,0.138571014,0.352123843
0.293881772,0.094570093,0.138523621,0.351936014
0.293857232,0.094577731,0.138476202,0.351748547
0.293832627,0.094585324,0.138428762,0.351561448
0.293807956,0.094592872,0.1383813,0.351374719
0.293783222,0.094600373,0.138333822,0.351188365
0.293758425,0.094607826,0.138286328,0.35100239
0.293733569,0.094615231,0.138238822,0.350816799
0.293708654,0.094622587,0.138191307,0.350631597
0.293683684,0.094629893,0.138143786,0.350446787
0.293658661,0.094637149,0.138096261,0.350262375
0.293633587,0.094644354,0.138048735,0.350078365
0.293608465,0.094651508,0.138001211,0.349894762
0.293583297,0.09465861,0.137953691,0.349711569
0.293558085,0.09466566,0.137906177,0.349528792
0.29353283,0.094672657,0.137858671,0.349346434
0.293507536,0.0946796,0.137811177,0.349164501
0.293482203,0.094686489,0.137763696,0.348982995
0.293456831,0.094693324,0.13771623,0.348801922
0.293431423,0.094700103,0.137668781,0.348621284
0.293405977,0.094706827,0.137621351,0.348441084
0.293380496,0.094713495,0.137573943,0.348261326
0.293354979,0.094720106,0.137526558,0.348082013
0.293329428,0.094726661,0.137479199,0.347903147
0.293303844,0.09473316,0.137431867,0.347724733
0.29327823,0.094739602,0.137384566,0.347546775
0.293252585,0.094745988,0.137337297,0.347369276
0.293226913,0.094752319,0.137290062,0.347192239
0.293201213,0.094758595,0.137242864,0.347015668
0.293175487,0.094764815,0.137195704,0.346839566
0.293149735,0.09477098,0.137148583,0.346663935
0.29312396,0.094777091,0.137101504,0.346488779
0.29309816,0.094783148,0.137054467,0.3463141
0.293072338,0.09478915,0.137007474,0.346139902
0.293046493,0.094795097,0.136960527,0.345966187
0.293020626,0.09480099,0.136913627,0.345792959
0.292994736,0.094806828,0.136866774,0.34562022
0.292968822,0.094812611,0.136819971,0.345447973
0.292942885,0.09481834,0.136773217,0.345276221
0.292916925,0.094824013,0.136726515,0.345104966
0.292890943,0.09482963,0.136679867,0.344934211
0.292864941,0.094835192,0.136633274,0.344763961
0.29283892,0.094840699,0.136586739,0.344594219
0.292812882,0.09484615,0.136540263,0.344424989
0.292786829,0.094851547,0.136493847,0.344256274
0.292760763,0.094856891,0.136447495,0.344088076
0.292734687,0.094862181,0.136401206,0.343920401
0.292708601,0.094867419,0.136354984,0.34375325
0.292682508,0.094872606,0.136308828,0.343586628
0.29265641,0.094877741,0.136262741,0.343420538
0.292630309,0.094882826,0.136216724,0.343254982
0.292604205,0.094887862,0.136170778,0.343089964
0.292578099,0.094892848,0.136124905,0.342925485
0.292551994,0.094897786,0.136079106,0.342761548
0.292525888,0.094902675,0.136033383,0.342598154
0.292499785,0.094907518,0.135987736,0.342435305
0.292473684,0.094912314,0.135942168,0.342273003
0.29244759,0.094917064,0.13589668,0.34211125
0.292421505,0.09492177,0.135851274,0.341950048
0.292395431,0.094926432,0.135805952,0.3417894
0.292369372,0.094931052,0.135760716,0.341629307
0.292343331,0.094935631,0.135715568,0.341469772
0.29231731,0.094940169,0.135670508,0.341310796
0.292291312,0.094944667,0.135625539,0.34115238
0.292265341,0.094949126,0.135580661,0.340994527
0.292239398,0.094953548,0.135535876,0.340837238
0.292213487,0.094957931,0.135491185,0.340680516
0.292187609,0.094962277,0.135446589,0.340524362
0.292161766,0.094966586,0.13540209,0.340368778
0.292135959,0.094970858,0.135357689,0.340213764
0.292110189,0.094975095,0.135313385,0.340059323
0.292084456,0.094979295,0.135269182,0.339905455
0.292058761,0.09498346,0.135225079,0.339752163
0.292033105,0.094987589,0.135181078,0.339599448
0.29200749,0.094991682,0.13513718,0.339447314
0.291981918,0.094995741,0.135093387,0.339295765
0.29195639,0.094999765,0.1350497,0.339144805
0.291930908,0.095003755,0.13500612,0.338994439
0.291905474,0.095007711,0.134962648,0.33884467
0.29188009,0.095011634,0.134919286,0.338695503
0.291854758,0.095015524,0.134876034,0.338546941
0.291829479,0.095019381,0.134832893,0.33839899
0.291804256,0.095023206,0.134789864,0.338251654
0.291779089,0.095026998,0.134746947,0.338104938
0.29175398,0.095030759,0.134704144,0.337958847
0.291728929,0.095034489,0.134661454,0.337813386
0.291703937,0.095038187,0.134618879,0.337668559
0.291679003,0.095041854,0.134576419,0.337524369
0.291654129,0.09504549,0.134534075,0.337380821
0.291629313,0.095049095,0.134491847,0.337237918
0.291604558,0.095052671,0.134449738,0.337095666
0.291579864,0.095056216,0.134407747,0.336954068
0.291555234,0.095059731,0.134365878,0.336813129
0.29153067,0.095063217,0.13432413,0.336672855
0.291506172,0.095066675,0.134282507,0.336533248
0.291481743,0.095070105,0.134241009,0.336394314
0.291457385,0.095073507,0.134199638,0.336256057
0.291433098,0.095076882,0.134158394,0.336118481
0.291408886,0.09508023,0.13411728,0.335981591
0.291384749,0.095083552,0.134076296,0.33584539
0.291360687,0.095086847,0.134035444,0.335709883
0.291336702,0.095090116,0.133994724,0.335575073
0.291312793,0.095093359,0.133954137,0.335440964
0.29128896,0.095096577,0.133913685,0.335307558
0.291265203,0.095099769,0.133873368,0.335174857
0.291241521,0.095102937,0.133833186,0.335042865
0.291217914,0.095106079,0.133793142,0.334911585
0.291194383,0.095109197,0.133753235,0.33478102
0.291170928,0.095112291,0.133713468,0.334651173
0.291147551,0.095115361,0.133673841,0.334522048
0.291124252,0.095118408,0.133634356,0.334393649
0.291101031,0.095121433,0.133595014,0.334265977
0.29107789,0.095124436,0.133555815,0.334139037
0.291054829,0.095127416,0.133516762,0.33401283
0.291031849,0.095130376,0.133477855,0.333887361
0.291008951,0.095133314,0.133439095,0.333762631
0.290986135,0.095136231,0.133400482,0.333638644
0.2909634,0.095139127,0.133362017,0.333515403
0.290940747,0.095142001,0.133323701,0.33339291
0.290918176,0.095144855,0.133285536,0.333271166
0.290895684,0.095147688,0.13324752,0.333150174
0.290873273,0.095150501,0.133209655,0.333029934
0.290850939,0.095153293,0.133171942,0.332910447
0.290828684,0.095156064,0.133134381,0.332791715
0.290806507,0.095158815,0.133096972,0.33267374
0.290784408,0.095161545,0.133059717,0.332556523
0.290762386,0.095164255,0.133022617,0.332440066
0.290740443,0.095166946,0.132985671,0.332324371
0.290718579,0.095169616,0.13294888,0.332209439
0.290696793,0.095172268,0.132912245,0.33209527
0.290675086,0.0951749,0.132875766,0.331981867
0.29065346,0.095177514,0.132839443,0.331869231
0.290631913,0.095180108,0.132803277,0.331757362
0.290610446,0.095182684,0.132767266,0.331646261
0.290589058,0.095185242,0.132731412,0.33153593
0.290567749,0.09518778,0.132695714,0.331426368
0.290546519,0.0951903,0.132660171,0.331317575
0.290525367,0.0951928,0.132624782,0.331209552
0.290504293,0.095195282,0.132589548,0.331102299
0.290483296,0.095197744,0.132554468,0.330995815
0.290462377,0.095200187,0.132519541,0.330890103
0.290441536,0.09520261,0.132484768,0.330785163
0.290420773,0.095205014,0.132450149,0.330680998
0.29040009,0.095207399,0.132415684,0.330577607
0.290379488,0.095209765,0.132381373,0.330474993
0.290358966,0.095212113,0.132347216,0.330373156
0.290338527,0.095214442,0.132313214,0.330272099
0.29031817,0.095216753,0.132279365,0.330171821
0.290297898,0.095219045,0.132245671,0.330072325
0.290277711,0.095221319,0.13221213,0.329973611
0.29025761,0.095223575,0.132178744,0.329875679
0.290237594,0.095225812,0.132145511,0.32977853
0.290217664,0.09522803,0.132112432,0.329682163
0.290197819,0.09523023,0.132079507,0.329586577
0.290178058,0.09523241,0.132046733,0.329491771
0.290158381,0.09523457,0.132014112,0.329397744
0.290138787,0.09523671,0.131981643,0.329304495
0.290119277,0.095238829,0.131949326,0.329212024
0.290099851,0.095240928,0.131917162,0.32912033
0.290080509,0.095243005,0.131885151,0.329029413
0.290061252,0.095245063,0.131853293,0.328939271
0.29004208,0.0952471,0.131821588,0.328849904
0.290022994,0.095249118,0.131790037,0.32876131
0.290003994,0.095251117,0.131758639,0.32867349
0.289985082,0.095253097,0.131727394,0.328586442
0.289966258,0.095255058,0.131696304,0.328500166
0.289947522,0.095257002,0.131665366,0.32841466
0.289928873,0.095258927,0.131634582,0.328329924
0.289910312,0.095260836,0.13160395,0.328245956
0.289891838,0.095262727,0.131573471,0.328162755
0.289873448,0.095264602,0.131543144,0.328080318
0.289855143,0.095266461,0.131512968,0.327998644
0.28983692,0.095268303,0.131482944,0.327917731
0.28981878,0.09527013,0.13145307,0.327837577
0.289800721,0.095271941,0.131423348,0.327758181
0.289782745,0.095273737,0.131393775,0.327679542
0.289764851,0.095275518,0.131364353,0.327601658
0.289747038,0.095277285,0.131335082,0.327524528
0.289729307,0.095279038,0.13130596,0.32744815
0.289711659,0.095280777,0.131276987,0.327372523
0.289694092,0.095282503,0.131248164,0.327297646
0.289676606,0.095284217,0.131219489,0.327223516
0.289659203,0.095285919,0.131190962,0.327150132
0.289641881,0.095287609,0.131162582,0.327077492
0.289624639,0.095289288,0.131134348,0.327005594
0.289607477,0.095290955,0.13110626,0.326934436
0.289590393,0.095292611,0.131078316,0.326864015
0.289573386,0.095294256,0.131050517,0.326794328
0.289556453,0.095295889,0.131022861,0.326725373
0.289539595,0.095297512,0.130995348,0.326657147
0.289522809,0.095299123,0.130967978,0.326589648
0.289506095,0.095300724,0.130940751,0.326522874
0.289489455,0.095302315,0.130913668,0.326456824
0.289472887,0.095303896,0.130886728,0.326391496
0.289456391,0.095305468,0.130859931,0.326326886
0.28943997,0.095307031,0.130833278,0.326262994
0.289423622,0.095308586,0.130806767,0.326199816
0.289407348,0.095310133,0.1307804,0.326137349
0.289391148,0.095311673,0.130754176,0.326075592
0.289375023,0.095313206,0.130728093,0.326014542
0.289358972,0.095314732,0.130702153,0.325954195
0.289342995,0.095316251,0.130676354,0.32589455
0.28932709,0.095317765,0.130650697,0.325835603
0.289311256,0.095319272,0.130625179,0.32577735
0.289295492,0.095320775,0.130599802,0.325719787
0.289279797,0.095322273,0.130574564,0.325662912
0.289264169,0.095323766,0.130549465,0.32560672
0.289248609,0.095325255,0.130524506,0.325551209
0.289233115,0.095326741,0.130499685,0.325496375
0.289217688,0.095328225,0.130475004,0.325442217
0.289202326,0.095329707,0.130450462,0.32538873
0.28918703,0.095331189,0.130426059,0.325335911
0.289171797,0.095332672,0.130401795,0.325283757
0.289156627,0.095334156,0.13037767,0.325232264
0.289141519,0.095335642,0.130353684,0.32518143
0.289126473,0.095337131,0.130329836,0.325131251
0.289111486,0.095338623,0.130306126,0.325081723
0.289096558,0.09534012,0.130282554,0.325032844
0.289081687,0.095341621,0.13025912,0.324984608
0.289066871,0.095343127,0.130235824,0.324937012
0.289052107,0.095344639,0.130212666,0.324890051
0.289037393,0.095346157,0.130189644,0.32484372
0.289022726,0.095347681,0.130166761,0.324798017
0.289008105,0.095349213,0.130144015,0.324752936
0.288993528,0.095350752,0.130121406,0.324708474
0.288978994,0.095352299,0.130098936,0.32466463
0.288964501,0.095353855,0.130076603,0.324621401
0.288950049,0.09535542,0.130054409,0.324578782
0.288935635,0.095356995,0.130032352,0.324536772
0.288921258,0.095358581,0.130010433,0.324495368
0.288906919,0.095360178,0.129988651,0.324454567
0.288892614,0.095361786,0.129967006,0.324414367
0.288878345,0.095363408,0.129945497,0.324374764
0.288864108,0.095365042,0.129924123,0.324335757
0.288849903,0.095366689,0.129902884,0.324297341
0.288835726,0.09536835,0.129881779,0.324259515
0.288821577,0.095370026,0.129860808,0.324222275
0.288807451,0.095371715,0.129839969,0.324185618
0.288793346,0.095373419,0.129819262,0.324149539
0.28877926,0.095375137,0.129798688,0.324114036
0.288765191,0.095376869,0.129778245,0.324079105
0.288751138,0.095378617,0.129757935,0.324044744
0.288737099,0.095380379,0.129737757,0.32401095
0.288723074,0.095382157,0.129717713,0.323977721
0.288709062,0.095383952,0.129697801,0.323945053
0.288695061,0.095385763,0.129678022,0.323912944
0.288681071,0.095387591,0.129658377,0.323881389
0.288667092,0.095389437,0.129638863,0.323850386
0.288653123,0.0953913,0.129619483,0.323819932
0.288639162,0.095393183,0.129600234,0.323790023
0.288625209,0.095395084,0.129581117,0.323760656
0.288611262,0.095397004,0.129562132,0.323731826
0.28859732,0.095398945,0.129543277,0.32370353
0.288583381,0.095400905,0.129524552,0.323675763
0.288569443,0.095402886,0.129505957,0.323648519
0.288555504,0.095404889,0.12948749,0.323621796
0.288541564,0.095406913,0.129469152,0.323595587
0.288527622,0.095408958,0.129450942,0.323569889
0.288513678,0.095411027,0.129432859,0.3235447
0.288499733,0.095413119,0.129414904,0.323520014
0.288485787,0.095415235,0.129397075,0.323495828
0.28847184,0.095417376,0.129379373,0.323472137
0.288457893,0.095419542,0.129361797,0.323448939
0.288443946,0.095421734,0.129344345,0.323426228
0.28843,0.095423952,0.129327019,0.323404001
0.288416056,0.095426196,0.129309816,0.323382255
0.288402112,0.095428466,0.129292735,0.323360984
0.288388169,0.095430762,0.129275777,0.323340187
0.288374227,0.095433085,0.12925894,0.323319857
0.288360283,0.095435433,0.129242223,0.323299992
0.288346339,0.095437809,0.129225625,0.323280586
0.288332391,0.095440211,0.129209145,0.323261636
0.288318441,0.095442639,0.129192781,0.323243136
0.288304487,0.095445094,0.129176534,0.323225083
0.288290531,0.095447575,0.129160401,0.323207475
0.288276572,0.095450083,0.129144383,0.323190308
0.288262612,0.095452618,0.129128478,0.323173579
0.288248652,0.09545518,0.129112687,0.323157285
0.288234692,0.09545777,0.129097007,0.323141423
0.288220732,0.095460387,0.129081438,0.323125989
0.288206775,0.095463034,0.129065979,0.323110979
0.28819282,0.095465708,0.129050629,0.323096391
0.288178869,0.095468412,0.129035387,0.323082222
0.288164921,0.095471144,0.129020251,0.323068469
0.288150978,0.095473905,0.129005221,0.323055129
0.288137038,0.095476695,0.128990294,0.3230422
0.288123102,0.095479514,0.128975471,0.323029677
0.288109168,0.095482361,0.12896075,0.323017559
0.288095236,0.095485236,0.12894613,0.323005842
0.288081306,0.095488138,0.128931613,0.322994523
0.288067377,0.095491067,0.128917197,0.3229836
0.288053451,0.095494023,0.128902884,0.32297307
0.288039529,0.095497006,0.128888674,0.322962934
0.288025611,0.095500015,0.128874567,0.322953189
0.288011699,0.095503051,0.128860565,0.322943833
0.287997793,0.095506113,0.128846668,0.322934864
0.287983896,0.0955092,0.128832877,0.322926281
0.287970009,0.095512313,0.128819191,0.322918082
0.287956133,0.095515451,0.128805612,0.322910265
0.287942268,0.095518614,0.12879214,0.322902829
0.287928417,0.095521802,0.128778774,0.322895772
0.287914578,0.095525013,0.128765516,0.322889091
0.287900754,0.095528249,0.128752365,0.322882785
0.287886943,0.095531508,0.128739321,0.322876851
0.287873145,0.09553479,0.128726386,0.322871286
0.28785936,0.095538095,0.128713558,0.322866088
0.28784559,0.095541422,0.128700839,0.322861253
0.287831835,0.095544771,0.128688229,0.32285678
0.287818098,0.095548142,0.128675729,0.322852667
0.287804379,0.095551534,0.12866334,0.322848912
0.28779068,0.095554947,0.128651062,0.322845513
0.287777002,0.095558383,0.128638897,0.322842468
0.287763347,0.09556184,0.128626843,0.322839776
0.287749717,0.095565318,0.128614903,0.322837434
0.287736113,0.095568818,0.128603075,0.322835441
0.287722536,0.09557234,0.128591361,0.322833795
0.287708987,0.095575883,0.128579761,0.322832493
0.287695468,0.095579447,0.128568274,0.322831533
0.287681977,0.095583032,0.128556901,0.322830913
0.287668516,0.095586639,0.128545642,0.322830629
0.287655086,0.095590265,0.128534497,0.322830678
0.287641685,0.095593912,0.128523466,0.322831056
0.287628314,0.095597579,0.12851255,0.322831759
0.287614973,0.095601265,0.128501748,0.322832785
0.287601665,0.09560497,0.128491061,0.322834132
0.287588389,0.095608693,0.12848049,0.322835796
0.287575147,0.095612435,0.128470034,0.322837774
0.287561941,0.095616195,0.128459694,0.322840064
0.287548771,0.095619973,0.128449469,0.322842664
0.28753564,0.095623769,0.12843936,0.322845569
0.287522549,0.095627582,0.128429365,0.322848778
0.2875095,0.095631411,0.128419484,0.322852287
0.287496494,0.095635257,0.128409716,0.322856094
0.287483531,0.095639119,0.128400061,0.322860197
0.287470612,0.095642996,0.128390518,0.322864592
0.287457736,0.095646888,0.128381086,0.322869277
0.287444904,0.095650794,0.128371764,0.322874249
0.287432114,0.095654713,0.128362551,0.322879504
0.287419365,0.095658646,0.128353446,0.322885039
0.287406658,0.095662591,0.128344448,0.32289085
0.287393992,0.095666549,0.128335558,0.322896936
0.287381369,0.095670518,0.128326774,0.322903295
0.287368789,0.0956745,0.128318098,0.322909924
0.287356252,0.095678494,0.128309528,0.322916822
0.287343761,0.095682502,0.128301066,0.322923987
0.287331317,0.095686522,0.12829271,0.322931416
0.28731892,0.095690555,0.128284461,0.322939108
0.287306573,0.095694601,0.128276318,0.322947059
0.287294277,0.095698661,0.128268282,0.322955268
0.287282034,0.095702735,0.128260352,0.322963732
0.287269844,0.095706822,0.128252527,0.322972451
0.287257709,0.095710924,0.128244807,0.32298142
0.287245629,0.095715041,0.128237193,0.322990637
0.287233603,0.095719171,0.128229683,0.3230001
0.287221633,0.095723317,0.128222277,0.323009804
0.287209717,0.095727478,0.128214974,0.323019748
0.287197856,0.095731653,0.128207775,0.323029928
0.287186051,0.095735844,0.128200678,0.323040342
0.287174303,0.095740051,0.128193684,0.323050988
0.287162613,0.095744273,0.128186791,0.323061864
0.28715098,0.095748512,0.128180001,0.323072967
0.287139406,0.095752769,0.128173311,0.323084296
0.287127891,0.095757043,0.128166721,0.323095847
0.287116436,0.095761335,0.12816023,0.323107619
0.287105042,0.095765646,0.128153837,0.32311961
0.28709371,0.095769977,0.128147542,0.323131818
0.287082438,0.095774326,0.128141342,0.32314424
0.287071228,0.095778696,0.128135237,0.323156875
0.287060078,0.095783085,0.128129225,0.323169719
0.28704899,0.095787494,0.128123304,0.32318277
0.287037963,0.095791923,0.128117474,0.323196024
0.287026998,0.095796373,0.128111731,0.323209478
0.287016096,0.095800843,0.128106075,0.323223129
0.287005258,0.095805333,0.128100502,0.323236974
0.286994488,0.095809844,0.128095013,0.323251011
0.286983787,0.095814376,0.128089605,0.323265238
0.286973157,0.095818929,0.128084277,0.323279652
0.286962602,0.095823504,0.128079027,0.323294252
0.286952122,0.0958281,0.128073853,0.323309033
0.286941721,0.095832717,0.128068754,0.323323995
0.2869314,0.095837356,0.128063727,0.323339135
0.286921161,0.095842017,0.128058771,0.323354451
0.286911006,0.095846699,0.128053884,0.323369942
0.286900935,0.095851403,0.128049064,0.323385606
0.286890949,0.095856129,0.128044309,0.323401442
0.286881048,0.095860877,0.128039618,0.323417448
0.286871232,0.095865648,0.128034988,0.323433621
0.2868615,0.09587044,0.128030419,0.32344996
0.286851853,0.095875255,0.128025907,0.323466462
0.28684229,0.095880093,0.128021452,0.323483125
0.286832812,0.095884952,0.128017052,0.323499946
0.286823418,0.095889833,0.128012706,0.323516924
0.28681411,0.095894736,0.128008411,0.323534056
0.286804889,0.095899661,0.128004167,0.323551341
0.286795754,0.095904608,0.127999971,0.323568776
0.286786707,0.095909577,0.127995822,0.323586359
0.286777749,0.095914566,0.127991717,0.323604088
0.286768881,0.095919577,0.127987655,0.323621961
0.286760105,0.095924609,0.127983632,0.323639977
0.286751421,0.095929661,0.127979648,0.323658134
0.286742829,0.095934734,0.127975699,0.323676429
0.286734328,0.095939827,0.127971783,0.323694862
0.286725919,0.095944939,0.127967898,0.323713428
0.286717601,0.09595007,0.12796404,0.323732126
0.286709371,0.09595522,0.127960207,0.323750953
0.286701229,0.095960387,0.127956396,0.323769905
0.286693173,0.095965572,0.127952605,0.32378898
0.286685201,0.095970773,0.12794883,0.323808173
0.28667731,0.095975989,0.127945069,0.323827482
0.286669498,0.09598122,0.12794132,0.323846902
0.286661762,0.095986465,0.127937578,0.323866431
0.286654101,0.095991722,0.127933841,0.323886063
0.286646511,0.095996991,0.127930107,0.323905796
0.286638988,0.096002271,0.127926372,0.323925626
0.286631531,0.09600756,0.127922634,0.323945549
0.286624135,0.096012857,0.12791889,0.32396556
0.286616798,0.096018161,0.127915137,0.323985655
0.286609516,0.09602347,0.127911371,0.32400583
0.286602286,0.096028783,0.127907591,0.324026082
0.286595104,0.0960341,0.127903793,0.324046404
0.286587966,0.096039417,0.127899975,0.324066794
0.286580867,0.096044735,0.127896134,0.324087246
0.286573804,0.096050051,0.127892266,0.324107754
0.28656677,0.096055364,0.127888368,0.324128314
0.286559762,0.096060673,0.127884438,0.32414892
0.286552773,0.096065975,0.127880471,0.324169567
0.286545798,0.096071268,0.127876466,0.324190251
0.28653883,0.096076552,0.12787242,0.324210967
0.286531865,0.096081825,0.127868329,0.324231709
0.286524895,0.096087084,0.127864192,0.324252471
0.286517915,0.096092328,0.127860006,0.324273248
0.286510919,0.096097555,0.127855768,0.324294034
0.2865039,0.096102765,0.127851477,0.324314822
0.286496853,0.096107955,0.127847131,0.324335606
0.286489772,0.096113125,0.127842726,0.324356381
0.286482652,0.096118274,0.127838262,0.324377141
0.286475486,0.096123401,0.127833737,0.324397879
0.286468269,0.096128505,0.127829149,0.32441859
0.286460995,0.096133586,0.127824497,0.324439267
0.286453656,0.096138641,0.127819779,0.324459902
0.286446246,0.096143671,0.127814993,0.32448049
0.286438759,0.096148674,0.127810138,0.324501022
0.286431187,0.096153648,0.127805212,0.324521493
0.286423523,0.096158593,0.127800212,0.324541895
0.286415761,0.096163507,0.127795137,0.324562219
0.286407891,0.09616839,0.127789984,0.324582459
0.286399907,0.096173239,0.127784752,0.324602605
0.286391801,0.096178055,0.127779438,0.324622651
0.286383565,0.096182835,0.127774041,0.324642587
0.286375191,0.096187578,0.127768558,0.324662406
0.286366674,0.096192284,0.127762987,0.324682101
0.286358005,0.096196952,0.127757327,0.324701663
0.286349178,0.096201579,0.127751575,0.324721085
0.286340185,0.096206166,0.127745729,0.32474036
0.28633102,0.096210711,0.127739788,0.324759478
0.286321676,0.096215214,0.127733748,0.324778432
0.286312146,0.096219673,0.127727608,0.324797214
0.286302424,0.096224088,0.127721366,0.324815816
0.286292502,0.096228457,0.127715018,0.32483423
0.286282374,0.096232779,0.127708563,0.324852449
0.286272032,0.096237053,0.127701998,0.324870465
0.286261469,0.096241278,0.12769532,0.324888272
0.286250677,0.096245454,0.127688527,0.324905861
0.28623965,0.096249579,0.127681615,0.324923225
0.286228379,0.096253652,0.127674584,0.324940357
0.286216857,0.096257673,0.127667429,0.324957251
0.286205077,0.096261641,0.127660149,0.324973898
0.286193034,0.096265555,0.127652741,0.324990294
0.28618072,0.096269415,0.127645204,0.325006432
0.286168129,0.096273219,0.127637536,0.325022305
0.286155255,0.096276967,0.127629733,0.325037907
0.286142092,0.096280659,0.127621795,0.325053232
0.286128633,0.096284294,0.127613719,0.325068272
0.286114872,0.096287871,0.127605502,0.325083022
0.286100803,0.096291388,0.127597141,0.325097475
0.28608642,0.096294846,0.127588635,0.325111625
0.286071715,0.096298242,0.127579981,0.325125465
0.286056684,0.096301577,0.127571176,0.32513899
0.286041319,0.096304848,0.127562217,0.325152193
0.286025613,0.096308055,0.127553102,0.325165068
0.286009561,0.096311196,0.127543828,0.325177607
0.285993157,0.09631427,0.127534392,0.325189804
0.285976395,0.096317276,0.127524793,0.325201652
0.28595927,0.096320212,0.127515027,0.325213146
0.285941777,0.096323079,0.127505093,0.325224279
0.285923911,0.096325874,0.127494989,0.325235045
0.285905667,0.096328597,0.127484713,0.325245436
0.28588704,0.096331248,0.127474263,0.325255447
0.285868025,0.096333825,0.127463636,0.32526507
0.285848618,0.096336328,0.127452832,0.325274299
0.285828814,0.096338756,0.127441847,0.325283125
0.285808608,0.096341107,0.12743068,0.325291543
0.285787995,0.096343382,0.127419329,0.325299545
0.285766972,0.09634558,0.127407791,0.325307125
0.285745532,0.096347699,0.127396065,0.325314276
0.28572367,0.09634974,0.127384148,0.325320991
0.285701382,0.096351701,0.127372037,0.325327263
0.285678661,0.096353583,0.127359731,0.325333084
0.285655502,0.096355385,0.127347228,0.325338448
0.285631901,0.096357107,0.127334524,0.325343349
0.285607851,0.096358748,0.127321619,0.325347779
0.285583349,0.096360307,0.127308511,0.325351734
0.285558389,0.096361785,0.127295198,0.325355206
0.285532967,0.096363181,0.127281679,0.32535819
0.285507078,0.096364494,0.127267951,0.32536068
0.285480718,0.096365724,0.127254014,0.325362669
0.285453882,0.096366871,0.127239865,0.32536415
0.285426564,0.096367934,0.127225502,0.325365119
0.28539876,0.096368913,0.127210924,0.32536557
0.285370464,0.096369808,0.127196129,0.325365498
0.285341671,0.096370618,0.127181115,0.325364897
0.285312378,0.096371344,0.12716588,0.325363764
0.285282577,0.096371985,0.127150423,0.325362092
0.285252266,0.096372539,0.127134742,0.325359877
0.285221438,0.096373007,0.127118836,0.325357114
0.28519009,0.096373387,0.127102702,0.325353798
0.285158218,0.096373681,0.127086339,0.325349924
0.285125819,0.096373886,0.127069747,0.325345489
0.28509289,0.096374003,0.127052925,0.325340488
0.285059427,0.096374031,0.127035871,0.325334918
0.285025428,0.09637397,0.127018584,0.325328772
0.28499089,0.096373819,0.127001064,0.325322048
0.28495581,0.096373578,0.12698331,0.325314742
0.284920185,0.096373245,0.126965321,0.325306848
0.284884013,0.096372822,0.126947096,0.325298363
0.28484729,0.096372306,0.126928634,0.325289284
0.284810012,0.096371697,0.126909933,0.325279606
0.284772177,0.096370994,0.126890994,0.325269326
0.28473378,0.096370197,0.126871814,0.32525844
0.284694819,0.096369305,0.126852395,0.325246944
0.284655289,0.096368317,0.126832734,0.325234834
0.284615188,0.096367232,0.126812831,0.325222109
0.284574512,0.096366049,0.126792685,0.325208764
0.284533259,0.096364769,0.126772296,0.325194798
0.284491426,0.096363389,0.126751662,0.325180207
0.284449012,0.096361909,0.126730784,0.325164991
0.284406013,0.09636033,0.126709662,0.325149146
0.284362428,0.096358649,0.126688294,0.32513267
0.284318253,0.096356868,0.12666668,0.325115561
0.284273488,0.096354984,0.126644821,0.325097817
0.284228129,0.096352997,0.126622714,0.325079435
0.284182175,0.096350906,0.12660036,0.325060413
0.284135623,0.09634871,0.126577759,0.32504075
0.284088471,0.096346408,0.126554908,0.325020443
0.284040717,0.096344,0.126531808,0.32499949
0.283992358,0.096341485,0.126508459,0.324977889
0.28394339,0.096338862,0.126484858,0.324955637
0.283893812,0.09633613,0.126461006,0.324932733
0.28384362,0.096333289,0.126436903,0.324909174
0.283792812,0.096330338,0.126412547,0.324884959
0.283741386,0.096327276,0.126387938,0.324860087
0.283689339,0.096324103,0.126363075,0.324834555
0.28363667,0.09632082,0.126337959,0.324808362
0.283583377,0.096317426,0.126312587,0.324781506
0.283529458,0.09631392,0.12628696,0.324753985
0.283474912,0.096310302,0.126261077,0.324725797
0.283419738,0.096306572,0.126234936,0.324696939
0.283363933,0.096302729,0.126208537,0.324667411
0.283307497,0.096298774,0.126181878,0.324637208
0.283250427,0.096294705,0.126154958,0.324606331
0.283192721,0.096290522,0.126127775,0.324574778
0.283134377,0.096286224,0.12610033,0.324542546
0.283075393,0.096281812,0.12607262,0.324509635
0.283015765,0.096277286,0.126044646,0.324476042
0.282955493,0.096272644,0.126016405,0.324441767
0.282894574,0.096267887,0.125987897,0.324406807
0.282833007,0.096263015,0.125959123,0.324371162
0.282770792,0.096258027,0.125930082,0.324334831
0.282707927,0.096252925,0.125900774,0.324297813
0.282644411,0.096247708,0.125871199,0.324260108
0.282580246,0.096242377,0.125841359,0.324221715
0.282515429,0.096236931,0.125811252,0.324182633
0.282449962,0.096231371,0.12578088,0.324142861
0.282383846,0.096225698,0.125750243,0.324102399
0.282317079,0.096219912,0.12571934,0.324061246
0.282249662,0.096214014,0.125688173,0.324019401
0.282181594,0.096208004,0.125656742,0.323976863
0.282112876,0.096201884,0.125625046,0.323933632
0.282043506,0.096195653,0.125593085,0.323889707
0.281973483,0.096189313,0.12556086,0.323845087
0.281902808,0.096182864,0.12552837,0.323799773
0.28183148,0.096176307,0.125495615,0.323753762
0.281759498,0.096169643,0.125462595,0.323707056
0.281686864,0.096162873,0.12542931,0.323659656
0.281613578,0.096155999,0.125395761,0.323611561
0.28153964,0.096149021,0.125361947,0.323562773
0.281465051,0.09614194,0.125327869,0.323513294
0.281389812,0.096134758,0.125293527,0.323463123
0.281313925,0.096127477,0.125258923,0.323412262
0.28123739,0.096120098,0.125224055,0.32336071
0.281160208,0.096112622,0.125188926,0.323308469
0.281082381,0.096105051,0.125153535,0.323255539
0.281003909,0.096097387,0.125117883,0.32320192
0.280924794,0.096089629,0.125081971,0.323147614
0.280845035,0.096081781,0.125045799,0.32309262
0.280764633,0.096073844,0.12500937,0.32303694
0.280683588,0.096065819,0.124972682,0.322980573
0.2806019,0.096057707,0.124935738,0.32292352
0.28051957,0.09604951,0.124898537,0.322865781
0.2804366,0.096041229,0.124861081,0.322807358
0.280352989,0.096032865,0.124823372,0.32274825
0.280268739,0.09602442,0.124785409,0.32268846
0.280183851,0.096015895,0.124747195,0.322627987
0.280098328,0.096007291,0.12470873,0.322566834
0.28001217,0.095998611,0.124670016,0.322505001
0.27992538,0.095989855,0.124631054,0.322442489
0.279837959,0.095981025,0.124591845,0.322379299
0.279749909,0.095972121,0.124552391,0.322315432
0.279661231,0.095963145,0.124512692,0.322250889
0.279571927,0.095954098,0.12447275,0.322185673
0.279481999,0.095944981,0.124432565,0.322119784
0.279391446,0.095935795,0.124392139,0.322053225
0.279300271,0.095926541,0.124351472,0.321985996
0.279208474,0.09591722,0.124310566,0.3219181
0.279116055,0.095907832,0.124269421,0.321849538
0.279023017,0.095898379,0.124228039,0.321780311
0.278929361,0.09588886,0.124186421,0.321710422
0.278835088,0.095879278,0.124144569,0.321639873
0.278740203,0.095869634,0.124102483,0.321568667
0.278644706,0.095859927,0.124060166,0.321496806
0.278548601,0.095850159,0.124017618,0.321424292
0.278451889,0.095840332,0.123974841,0.321351126
0.278354574,0.095830445,0.123931836,0.321277311
0.278256658,0.0958205,0.123888604,0.32120285
0.278158142,0.095810498,0.123845147,0.321127743
0.278059031,0.095800439,0.123801464,0.321051993
0.277959324,0.095790324,0.123757557,0.320975602
0.277859025,0.095780153,0.123713427,0.320898572
0.277758136,0.095769927,0.123669076,0.320820906
0.277656657,0.095759646,0.123624503,0.320742605
0.277554592,0.095749311,0.123579712,0.320663671
0.277451941,0.095738922,0.123534701,0.320584106
0.277348709,0.09572848,0.123489475,0.320503912
0.277244896,0.095717986,0.123444033,0.320423091
0.277140507,0.095707441,0.123398379,0.320341646
0.277035545,0.095696846,0.123352514,0.320259578
0.276930011,0.095686202,0.123306441,0.32017689
0.27682391,0.095675509,0.123260162,0.320093583
0.276717244,0.09566477,0.123213679,0.320009657
0.276610016,0.095653984,0.123166994,0.319925116
0.27650223,0.095643152,0.12312011,0.319839959
0.276393889,0.095632276,0.12307303,0.319754188
0.276284995,0.095621355,0.123025754,0.319667805
0.276175551,0.095610391,0.122978286,0.31958081
0.27606556,0.095599385,0.122930627,0.319493206
0.275955025,0.095588336,0.12288278,0.319404994
0.275843948,0.095577245,0.122834746,0.319316175
0.275732333,0.095566113,0.122786528,0.319226752
0.275620181,0.095554941,0.122738127,0.319136725
0.275507496,0.095543728,0.122689546,0.319046098
0.275394283,0.095532475,0.122640787,0.318954872
0.275280544,0.095521182,0.122591851,0.318863051
0.275166283,0.095509851,0.122542742,0.318770637
0.275051505,0.095498481,0.122493462,0.318677632
0.274936212,0.095487072,0.122444012,0.318584039
0.27482041,0.095475625,0.122394394,0.318489861
0.274704102,0.09546414,0.122344612,0.318395099
0.274587293,0.095452617,0.122294667,0.318299756
0.274469986,0.095441055,0.122244561,0.318203836
0.274352186,0.095429455,0.122194297,0.31810734
0.274233896,0.095417818,0.122143875,0.318010272
0.274115119,0.095406141,0.122093297,0.317912633
0.273995859,0.095394427,0.122042566,0.317814427
0.273876118,0.095382674,0.121991682,0.317715654
0.2737559,0.095370883,0.121940647,0.317616319
0.273635209,0.095359054,0.121889464,0.317516422
0.273514048,0.095347185,0.121838133,0.317415968
0.273392421,0.095335278,0.121786658,0.317314959
0.273270333,0.095323333,0.121735039,0.317213398
0.273147789,0.095311348,0.121683279,0.317111289
0.273024792,0.095299326,0.12163138,0.317008634
0.272901347,0.095287264,0.121579344,0.316905436
0.272777459,0.095275165,0.121527171,0.316801699
0.272653132,0.095263028,0.121474864,0.316697425
0.272528369,0.095250852,0.121422423,0.316592619
0.272403176,0.095238639,0.121369852,0.316487284
0.272277557,0.095226387,0.12131715,0.316381422
0.272151514,0.095214097,0.12126432,0.316275038
0.272025052,0.095201769,0.121211363,0.316168133
0.271898173,0.095189403,0.121158281,0.316060713
0.271770883,0.095176999,0.121105076,0.315952779
0.271643183,0.095164557,0.121051749,0.315844335
0.271515079,0.095152076,0.120998303,0.315735384
0.271386574,0.095139557,0.120944739,0.31562593
0.271257675,0.095127,0.120891059,0.315515976
0.271128384,0.095114405,0.120837266,0.315405525
0.270998708,0.095101772,0.120783361,0.31529458
0.27086865,0.095089102,0.120729346,0.315183143
0.270738216,0.095076394,0.120675223,0.315071218
0.27060741,0.095063648,0.120620992,0.314958807
0.270476238,0.095050865,0.120566657,0.314845913
0.270344705,0.095038044,0.120512218,0.314732537
0.270212815,0.095025184,0.120457676,0.314618684
0.270080573,0.095012287,0.120403032,0.314504355
0.269947984,0.094999351,0.120348289,0.314389553
0.269815051,0.094986376,0.120293448,0.314274281
0.269681779,0.094973361,0.120238509,0.314158541
0.269548173,0.094960306,0.120183474,0.314042335
0.269414237,0.094947209,0.120128345,0.313925665
0.269279977,0.094934072,0.120073123,0.313808536
0.269145397,0.094920893,0.12001781,0.313690949
0.269010505,0.094907672,0.119962407,0.313572908
0.268875305,0.094894409,0.119906917,0.313454416
0.268739803,0.094881103,0.11985134,0.313335476
0.268604005,0.094867754,0.119795678,0.31321609
0.268467917,0.094854362,0.119739933,0.313096262
0.268331546,0.094840926,0.119684106,0.312975993
0.268194899,0.094827445,0.119628199,0.312855288
0.268057982,0.09481392,0.119572213,0.312734149
0.2679208,0.094800349,0.119516149,0.312612579
0.267783361,0.094786733,0.119460009,0.312490581
0.267645669,0.09477307,0.119403794,0.312368158
0.26750773,0.094759361,0.119347506,0.312245314
0.267369551,0.094745605,0.119291147,0.31212205
0.267231136,0.094731802,0.119234719,0.311998369
0.267092493,0.094717951,0.119178224,0.311874276
0.266953627,0.094704051,0.119121664,0.311749774
0.266814547,0.094690103,0.119065043,0.311624868
0.26667526,0.094676105,0.119008362,0.31149956
0.266535773,0.094662059,0.118951624,0.311373856
0.266396093,0.094647962,0.118894833,0.311247759
0.266256229,0.094633816,0.11883799,0.311121273
0.266116188,0.094619619,0.118781099,0.3109944
0.265975978,0.094605371,0.118724161,0.310867146
0.265835608,0.094591072,0.118667179,0.310739514
0.265695085,0.094576721,0.118610155,0.310611508
0.265554416,0.094562318,0.118553092,0.310483132
0.265413609,0.094547863,0.118495992,0.310354391
0.265272671,0.094533354,0.118438856,0.310225289
0.265131608,0.094518791,0.118381688,0.31009583
0.264990427,0.094504174,0.118324489,0.309966018
0.264849136,0.094489502,0.118267261,0.309835858
0.264707742,0.094474775,0.118210008,0.309705353
0.264566255,0.094459991,0.118152731,0.309574509
0.264424681,0.094445151,0.118095433,0.309443332
0.264283031,0.094430254,0.118038117,0.309311825
0.264141311,0.0944153,0.117980785,0.309179994
0.263999531,0.094400288,0.117923439,0.309047841
0.263857699,0.094385217,0.117866081,0.308915373
0.263715824,0.094370088,0.117808714,0.308782592
0.263573913,0.0943549,0.117751339,0.308649503
0.263431976,0.094339651,0.117693959,0.308516111
0.263290021,0.094324342,0.117636575,0.308382419
0.263148054,0.094308971,0.117579189,0.308248432
0.263006084,0.094293539,0.117521804,0.308114154
0.262864118,0.094278043,0.117464421,0.30797959
0.262722162,0.094262485,0.117407042,0.307844744
0.262580224,0.094246863,0.117349669,0.307709619
0.262438312,0.094231177,0.117292304,0.307574219
0.262296431,0.094215425,0.11723495,0.30743855
0.262154591,0.094199609,0.11717761,0.307302615
0.262012799,0.094183728,0.117120285,0.30716642
0.261871063,0.094167781,0.117062978,0.307029969
0.26172939,0.09415177,0.117005693,0.306893265
0.261587789,0.094135695,0.11694843,0.306756314
0.261446267,0.094119555,0.116891194,0.306619119
0.261304833,0.094103352,0.116833985,0.306481685
0.261163494,0.094087085,0.116776808,0.306344016
0.261022258,0.094070756,0.116719665,0.306206115
0.260881133,0.094054363,0.116662557,0.306067988
0.260740125,0.094037909,0.116605488,0.305929639
0.260599241,0.094021392,0.11654846,0.305791072
0.260458487,0.094004814,0.116491476,0.305652292
0.260317871,0.093988175,0.116434537,0.305513302
0.260177398,0.093971476,0.116377646,0.305374108
0.260037075,0.093954717,0.116320806,0.305234713
0.259896909,0.093937898,0.116264019,0.305095123
0.259756906,0.09392102,0.116207289,0.304955341
0.259617074,0.093904084,0.116150618,0.304815372
0.25947742,0.09388709,0.116094009,0.304675222
0.25933795,0.09387004,0.116037465,0.304534894
0.259198671,0.093852934,0.115980987,0.304394392
0.25905959,0.093835773,0.115924579,0.30425372
0.258920715,0.093818556,0.115868242,0.304112883
0.258782051,0.093801285,0.115811979,0.303971883
0.258643604,0.093783959,0.115755792,0.303830726
0.258505382,0.093766581,0.115699683,0.303689415
0.258367389,0.093749149,0.115643654,0.303547955
0.25822963,0.093731665,0.115587708,0.303406349
0.258092112,0.09371413,0.115531847,0.303264601
0.257954839,0.093696545,0.115476074,0.303122715
0.257817817,0.09367891,0.115420391,0.302980695
0.257681053,0.093661227,0.1153648,0.302838546
0.257544553,0.093643497,0.115309304,0.302696273
0.257408323,0.093625722,0.115253906,0.30255388
0.25727237,0.093607902,0.115198607,0.302411374
0.2571367,0.09359004,0.115143412,0.302268759
0.257001318,0.093572138,0.115088321,0.302126041
0.256866233,0.093554196,0.115033338,0.301983223
0.25673145,0.093536217,0.114978463,0.301840312
0.256596975,0.093518202,0.1149237,0.301697312
0.256462815,0.093500152,0.114869049,0.301554228
0.256328977,0.093482069,0.114814513,0.301411066
0.256195466,0.093463955,0.114760093,0.301267831
0.256062286,0.09344581,0.114705792,0.301124528
0.255929445,0.093427635,0.114651611,0.300981161
0.255796945,0.093409433,0.114597552,0.300837735
0.255664794,0.093391203,0.114543617,0.300694255
0.255532995,0.093372948,0.114489808,0.300550726
0.255401555,0.093354669,0.114436128,0.300407153
0.25527048,0.093336366,0.114382577,0.300263543
0.255139775,0.09331804,0.114329159,0.300119899
0.255009446,0.093299694,0.114275876,0.299976229
0.2548795,0.093281329,0.11422273,0.299832536
0.254749942,0.093262945,0.114169722,0.299688827
0.254620779,0.093244544,0.114116855,0.299545108
0.254492016,0.093226127,0.114064131,0.299401384
0.25436366,0.093207696,0.11401155,0.299257661
0.254235715,0.093189251,0.113959116,0.299113944
0.254108187,0.093170793,0.113906829,0.29897024
0.253981081,0.093152324,0.11385469,0.298826553
0.253854402,0.093133845,0.113802703,0.29868289
0.253728154,0.093115357,0.113750869,0.298539255
0.253602341,0.093096861,0.11369919,0.298395654
0.253476968,0.093078357,0.113647668,0.298252092
0.25335204,0.093059846,0.113596305,0.298108575
0.253227561,0.093041331,0.113545105,0.297965108
0.253103538,0.093022811,0.113494069,0.297821699
0.252979975,0.093004287,0.1134432,0.297678353
0.252856879,0.092985761,0.1133925,0.297535075
0.252734255,0.092967233,0.113341972,0.29739187
0.252612108,0.092948704,0.113291617,0.297248745
0.252490445,0.092930176,0.113241437,0.297105705
0.252369271,0.092911649,0.113191435,0.296962756
0.252248591,0.092893124,0.11314161,0.296819902
0.252128409,0.092874603,0.113091966,0.296677151
0.252008732,0.092856086,0.113042503,0.296534508
0.251889562,0.092837574,0.112993224,0.296391979
0.251770905,0.092819068,0.112944128,0.296249568
0.251652764,0.09280057,0.112895218,0.296107281
0.251535144,0.092782078,0.112846494,0.295965123
0.251418048,0.092763595,0.112797959,0.295823099
0.251301482,0.092745121,0.112749612,0.295681214
0.25118545,0.092726657,0.112701456,0.295539474
0.251069957,0.092708203,0.112653491,0.295397884
0.250955008,0.09268976,0.11260572,0.29525645
0.250840608,0.09267133,0.112558143,0.295115176
0.250726763,0.092652912,0.112510761,0.294974066
0.250613475,0.09263451,0.112463576,0.294833127
0.250500752,0.092616121,0.112416587,0.294692362
0.250388596,0.092597749,0.112369797,0.294551777
0.250277012,0.092579392,0.112323205,0.294411376
0.250166004,0.092561053,0.112276813,0.294271163
0.250055576,0.09254273,0.112230621,0.294131144
0.249945731,0.092524426,0.112184629,0.293991323
0.249836472,0.092506139,0.112138839,0.293851704
0.249727802,0.092487872,0.11209325,0.29371229
0.249619723,0.092469625,0.112047863,0.293573086
0.24951224,0.092451398,0.112002679,0.293434097
0.249405357,0.092433191,0.111957698,0.293295326
0.249299075,0.092415005,0.111912921,0.293156779
0.2491934,0.092396843,0.111868349,0.29301846
0.249088334,0.092378704,0.111823982,0.292880374
0.24898388,0.092360591,0.11177982,0.292742525
0.248880041,0.092342505,0.111735865,0.292604919
0.248776821,0.092324448,0.111692117,0.29246756
0.248674222,0.09230642,0.111648576,0.292330452
0.248572247,0.092288425,0.111605243,0.2921936
0.248470899,0.092270462,0.111562118,0.29205701
0.248370181,0.092252534,0.111519202,0.291920685
0.248270096,0.092234641,0.111476495,0.291784629
0.248170645,0.092216786,0.111433997,0.291648849
0.24807183,0.09219897,0.111391707,0.291513346
0.247973654,0.092181194,0.111349627,0.291378126
0.247876117,0.09216346,0.111307757,0.291243192
0.247779224,0.092145769,0.111266096,0.291108549
0.247682974,0.092128123,0.111224646,0.290974201
0.247587372,0.092110523,0.111183406,0.290840154
0.24749242,0.09209297,0.111142377,0.290706412
0.24739812,0.092075467,0.111101559,0.29057298
0.247304475,0.092058015,0.111060954,0.290439863
0.247211487,0.092040615,0.111020561,0.290307066
0.247119159,0.092023268,0.11098038,0.290174592
0.247027492,0.092005977,0.110940411,0.290042447
0.24693649,0.09198874,0.110900655,0.289910636
0.246846153,0.091971561,0.110861111,0.289779163
0.246756483,0.09195444,0.110821779,0.289648034
0.246667482,0.091937378,0.110782659,0.289517252
0.246579151,0.091920376,0.110743751,0.289386822
0.24649149,0.091903436,0.110705056,0.289256749
0.2464045,0.091886558,0.110666571,0.289127039
0.246318182,0.091869745,0.110628298,0.288997696
0.246232537,0.091852997,0.110590237,0.288868726
0.246147566,0.091836316,0.110552386,0.288740134
0.246063272,0.091819703,0.110514747,0.288611928
0.245979655,0.09180316,0.11047732,0.288484111
0.245896716,0.091786688,0.110440104,0.288356689
0.245814457,0.091770288,0.110403099,0.288229666
0.245732878,0.091753962,0.110366307,0.288103049
0.245651981,0.09173771,0.110329725,0.287976842
0.245571767,0.091721535,0.110293355,0.28785105
0.245492237,0.091705437,0.110257195,0.28772568
0.24541339,0.091689417,0.110221245,0.287600735
0.245335227,0.091673476,0.110185506,0.287476222
0.245257747,0.091657615,0.110149976,0.287352146
0.245180951,0.091641834,0.110114656,0.287228512
0.245104836,0.091626134,0.110079546,0.287105324
0.245029404,0.091610515,0.110044645,0.286982587
0.244954652,0.091594979,0.110009953,0.286860306
0.244880581,0.091579525,0.109975472,0.286738488
0.244807192,0.091564154,0.1099412,0.286617136
0.244734484,0.091548866,0.109907139,0.286496257
0.244662458,0.091533663,0.109873287,0.286375855
0.244591115,0.091518544,0.109839647,0.286255936
0.244520456,0.091503511,0.109806217,0.286136505
0.244450481,0.091488565,0.109772997,0.286017566
0.244381191,0.091473705,0.109739989,0.285899123
0.244312586,0.091458932,0.10970719,0.285781183
0.244244667,0.091444247,0.109674601,0.285663748
0.244177434,0.091429651,0.109642223,0.285546823
0.244110885,0.091415143,0.109610053,0.285430413
0.244045022,0.091400724,0.109578092,0.285314523
0.243979844,0.091386394,0.109546339,0.285199155
0.243915349,0.091372154,0.109514794,0.285084316
0.243851537,0.091358004,0.109483455,0.284970007
0.243788407,0.091343944,0.109452323,0.284856235
0.24372596,0.091329975,0.109421397,0.284743001
0.243664196,0.091316096,0.109390677,0.284630312
0.243603114,0.091302309,0.109360161,0.28451817
0.243542714,0.091288615,0.109329851,0.284406579
0.243482997,0.091275012,0.109299744,0.284295542
0.243423962,0.091261503,0.109269842,0.284185062
0.243365609,0.091248087,0.109240142,0.284075141
0.243307939,0.091234764,0.109210644,0.283965783
0.24325095,0.091221534,0.109181347,0.283856988
0.243194642,0.091208399,0.10915225,0.283748759
0.243139015,0.091195357,0.109123353,0.283641099
0.243084067,0.091182409,0.109094654,0.28353401
0.243029797,0.091169556,0.109066154,0.283427493
0.242976204,0.091156797,0.10903785,0.283321551
0.242923287,0.091144133,0.109009744,0.283216186
0.242871046,0.091131563,0.108981834,0.283111399
0.242819479,0.091119088,0.108954119,0.283007193
0.242768586,0.091106709,0.1089266,0.282903569
0.242718368,0.091094425,0.108899277,0.282800531
0.242668823,0.091082236,0.10887215,0.28269808
0.242619953,0.091070143,0.108845218,0.282596218
0.242571757,0.091058146,0.108818483,0.282494947
0.242524235,0.091046246,0.108791942,0.282394269
0.242477388,0.091034441,0.108765598,0.282294184
0.242431215,0.091022733,0.10873945,0.282194694
0.242385718,0.091011121,0.108713497,0.282095801
0.242340894,0.090999604,0.108687739,0.281997505
0.242296746,0.090988182,0.108662176,0.281899809
0.24225327,0.090976855,0.108636809,0.281802713
0.242210468,0.090965623,0.108611635,0.281706217
0.242168338,0.090954483,0.108586656,0.281610321
0.242126878,0.090943437,0.108561871,0.281515028
0.242086088,0.090932483,0.108537279,0.281420336
0.242045967,0.090921622,0.108512881,0.281326246
0.242006514,0.090910852,0.108488675,0.28123276
0.24196773,0.090900173,0.108464662,0.281139877
0.241929614,0.090889585,0.108440841,0.281047599
0.241892166,0.090879089,0.108417212,0.280955926
0.241855386,0.090868682,0.108393774,0.280864858
0.241819273,0.090858366,0.108370526,0.280774395
0.241783827,0.090848139,0.108347467,0.280684538
0.241749049,0.090838001,0.108324596,0.280595286
0.241714937,0.090827952,0.108301913,0.28050664
0.241681492,0.09081799,0.108279417,0.2804186
0.241648713,0.090808116,0.108257105,0.280331166
0.241616597,0.090798328,0.108234978,0.280244338
0.241585146,0.090788627,0.108213034,0.280158115
0.241554356,0.09077901,0.108191271,0.280072496
0.241524227,0.090769478,0.10816969,0.279987483
0.241494758,0.09076003,0.108148288,0.279903075
0.241465948,0.090750665,0.108127065,0.279819271
0.241437796,0.090741383,0.10810602,0.279736074
0.241410301,0.090732183,0.108085152,0.279653482
0.241383463,0.090723065,0.108064462,0.279571497
0.24135728,0.090714028,0.108043947,0.279490119
0.241331752,0.090705071,0.108023608,0.279409347
0.241306878,0.090696194,0.108003443,0.279329182
0.241282656,0.090687397,0.107983452,0.279249625
0.241259087,0.090678677,0.107963632,0.279170674
0.241236168,0.090670035,0.107943985,0.279092332
0.241213898,0.09066147,0.107924508,0.279014598
0.241192275,0.090652982,0.107905201,0.278937473
0.241171299,0.090644569,0.107886062,0.278860957
0.241150965,0.090636232,0.107867092,0.27878505
0.241131272,0.09062797,0.10784829,0.278709752
0.241112218,0.090619782,0.107829655,0.278635065
0.241093799,0.090611668,0.107811186,0.278560988
0.241076014,0.090603629,0.107792883,0.278487522
0.241058861,0.090595664,0.107774745,0.27841467
0.241042337,0.090587773,0.107756774,0.278342431
0.241026441,0.090579956,0.107738968,0.278270805
0.241011171,0.090572213,0.107721326,0.278199793
0.240996524,0.090564544,0.10770385,0.278129395
0.240982498,0.090556948,0.107686537,0.278059612
0.240969092,0.090549425,0.107669387,0.277990444
0.240956303,0.090541975,0.1076524,0.277921892
0.240944129,0.090534598,0.107635574,0.277853956
0.240932566,0.090527292,0.107618911,0.277786636
0.240921612,0.090520059,0.107602407,0.277719932
0.240911263,0.090512897,0.107586064,0.277653845
0.240901516,0.090505806,0.10756988,0.277588373
0.240892367,0.090498785,0.107553855,0.277523517
0.240883812,0.090491834,0.107537987,0.277459276
0.240875848,0.090484953,0.107522276,0.277395651
0.240868472,0.09047814,0.107506721,0.277332642
0.24086168,0.090471396,0.107491321,0.27727025
0.240855469,0.090464721,0.107476076,0.277208474
0.240849835,0.090458114,0.107460985,0.277147315
0.240844775,0.090451576,0.107446047,0.277086773
0.240840285,0.090445106,0.107431261,0.277026848
0.240836361,0.090438705,0.107416626,0.27696754
0.240833001,0.090432371,0.107402142,0.27690885
0.2408302,0.090426105,0.107387807,0.276850777
0.240827954,0.090419907,0.10737362,0.276793323
0.24082626,0.090413776,0.10735958,0.276736487
0.240825114,0.090407712,0.107345686,0.276680269
0.24082451,0.090401716,0.107331937,0.276624671
0.240824446,0.090395788,0.107318332,0.276569691
0.240824917,0.090389927,0.10730487,0.276515331
0.240825921,0.090384134,0.10729155,0.27646159
0.240827454,0.09037841,0.107278372,0.276408469
0.240829514,0.090372755,0.107265336,0.276355968
0.240832098,0.09036717,0.107252441,0.276304088
0.240835204,0.090361655,0.107239687,0.276252829
0.240838829,0.090356212,0.107227074,0.27620219
0.24084297,0.09035084,0.1072146,0.276152171
0.240847624,0.090345541,0.107202264,0.276102772
0.240852791,0.090340315,0.107190068,0.276053991
0.240858467,0.090335163,0.107178008,0.276005829
0.24086465,0.090330085,0.107166086,0.275958285
0.240871337,0.090325081,0.1071543,0.27591136
0.240878524,0.090320154,0.10714265,0.275865054
0.24088621,0.090315302,0.107131135,0.275819366
0.240894389,0.090310529,0.107119754,0.275774296
0.240903059,0.090305834,0.107108506,0.275729843
0.240912215,0.090301218,0.107097392,0.275686008
0.240921854,0.090296682,0.10708641,0.275642788
0.240931973,0.090292228,0.107075561,0.275600185
0.24094257,0.090287856,0.107064844,0.275558197
0.240953641,0.090283568,0.107054259,0.275516824
0.240965184,0.090279365,0.107043805,0.275476066
0.240977195,0.090275248,0.107033482,0.27543592
0.240989673,0.09027122,0.10702329,0.275396386
0.241002613,0.09026728,0.107013227,0.275357462
0.241016014,0.09026343,0.107003294,0.275319146
0.241029872,0.090259671,0.10699349,0.275281438
0.241044184,0.090256004,0.106983814,0.275244336
0.241058947,0.090252431,0.106974265,0.275207838
0.241074157,0.09024895,0.106964843,0.275171943
0.241089811,0.090245565,0.106955547,0.275136648
0.241105905,0.090242274,0.106946376,0.275101953
0.241122434,0.090239079,0.106937329,0.275067854
0.241139396,0.090235981,0.106928405,0.27503435
0.241156787,0.090232979,0.106919603,0.275001439
0.241174604,0.090230075,0.106910923,0.274969118
0.241192845,0.090227268,0.106902364,0.274937387
0.241211507,0.09022456,0.106893925,0.274906244
0.241230587,0.090221952,0.106885607,0.274875686
0.241250083,0.090219445,0.106877408,0.27484571
0.241269993,0.090217039,0.106869328,0.274816314
0.241290314,0.090214735,0.106861366,0.274787495
0.241311043,0.090212534,0.106853523,0.274759251
0.241332177,0.090210436,0.106845796,0.27473158
0.241353714,0.090208442,0.106838186,0.274704478
0.241375648,0.090206553,0.106830691,0.274677943
0.241397978,0.09020477,0.106823311,0.274651973
0.241420698,0.090203093,0.106816044,0.274626565
0.241443804,0.090201522,0.106808891,0.274601715
0.241467293,0.090200058,0.106801848,0.274577421
0.24149116,0.090198701,0.106794917,0.274553679
0.241515402,0.090197452,0.106788095,0.274530488
0.241540016,0.090196312,0.106781382,0.274507844
0.241564998,0.09019528,0.106774777,0.274485746
0.241590346,0.090194357,0.106768279,0.274464189
0.241616056,0.090193544,0.106761886,0.274443172
0.241642125,0.090192841,0.106755599,0.27442269
0.241668549,0.090192248,0.106749414,0.274402739
0.241695326,0.090191766,0.106743332,0.274383318
0.241722452,0.090191393,0.106737351,0.274364422
0.241749924,0.090191132,0.10673147,0.274346048
0.241777737,0.090190981,0.106725686,0.274328193
0.241805889,0.090190941,0.106719999,0.274310855
0.241834374,0.090191012,0.106714408,0.274294031
0.241863189,0.090191194,0.10670891,0.274277718
0.241892329,0.090191488,0.106703505,0.274261914
0.241921792,0.090191893,0.106698191,0.274246616
0.241951573,0.090192409,0.106692965,0.274231822
0.24198167,0.090193037,0.106687828,0.274217531
0.242012081,0.090193777,0.106682777,0.274203741
0.242042803,0.090194629,0.106677811,0.274190449
0.242073833,0.090195594,0.106672929,0.274177654
0.242105168,0.090196673,0.106668129,0.274165355
0.242136807,0.090197864,0.10666341,0.274153547
0.242168746,0.09019917,0.106658769,0.27414223
0.242200984,0.090200588,0.106654206,0.274131402
0.242233517,0.090202121,0.106649719,0.274121061
0.242266343,0.090203767,0.106645306,0.274111204
0.24229946,0.090205527,0.106640965,0.274101831
0.242332863,0.0902074,0.106636696,0.274092939
0.24236655,0.090209388,0.106632496,0.274084526
0.242400518,0.09021149,0.106628363,0.274076589
0.242434763,0.090213706,0.106624296,0.274069125
0.242469283,0.090216036,0.106620293,0.274062133
0.242504075,0.090218481,0.106616353,0.27405561
0.242539137,0.090221041,0.106612474,0.274049553
0.242574467,0.090223717,0.106608655,0.274043959
0.242610061,0.09022651,0.106604893,0.274038827
0.242645918,0.090229421,0.106601187,0.274034154
0.242682037,0.090232451,0.106597535,0.274029935
0.242718414,0.090235599,0.106593935,0.274026168
0.242755049,0.090238866,0.106590385,0.27402285
0.242791939,0.090242254,0.106586882,0.274019977
0.242829083,0.090245762,0.106583426,0.274017547
0.242866478,0.09024939,0.106580013,0.274015556
0.242904123,0.09025314,0.106576642,0.274014002
0.242942013,0.090257011,0.10657331,0.274012881
0.242980147,0.090261004,0.106570015,0.27401219
0.243018522,0.090265119,0.106566756,0.274011926
0.243057134,0.090269357,0.10656353,0.274012085
0.243095981,0.090273718,0.106560337,0.274012664
0.24313506,0.090278202,0.106557173,0.27401366
0.243174371,0.09028281,0.106554037,0.27401507
0.24321391,0.090287541,0.106550928,0.274016891
0.243253676,0.090292395,0.106547843,0.27401912
0.243293667,0.090297374,0.106544782,0.274021753
0.243333881,0.090302477,0.106541741,0.274024787
0.243374316,0.090307706,0.106538719,0.27402822
0.24341497,0.09031306,0.106535714,0.274032048
0.24345584,0.090318539,0.106532723,0.274036268
0.243496925,0.090324145,0.106529746,0.274040878
0.243538223,0.090329878,0.106526778,0.274045874
0.243579729,0.090335738,0.10652382,0.274051255
0.243621443,0.090341725,0.106520868,0.274057018
0.24366336,0.09034784,0.106517922,0.274063159
0.243705479,0.090354082,0.106514979,0.274069677
0.243747796,0.090360453,0.106512037,0.27407657
0.243790309,0.090366951,0.106509097,0.274083837
0.243833018,0.090373577,0.106506156,0.274091475
0.243875921,0.090380331,0.106503213,0.274099485
0.243919017,0.090387213,0.106500268,0.274107864
0.243962304,0.090394225,0.10649732,0.274116611
0.244005783,0.090401365,0.106494367,0.274125723
0.244049453,0.090408634,0.106491409,0.2741352
0.244093311,0.090416032,0.106488445,0.274145041
0.244137359,0.090423558,0.106485473,0.274155243
0.244181594,0.090431213,0.106482492,0.274165805
0.244226016,0.090438997,0.106479502,0.274176727
0.244270624,0.090446908,0.106476501,0.274188007
0.244315415,0.090454948,0.106473488,0.274199643
0.244360388,0.090463115,0.106470463,0.274211636
0.24440554,0.090471409,0.106467425,0.274223981
0.244450871,0.09047983,0.106464372,0.274236679
0.244496378,0.090488377,0.106461305,0.274249727
0.244542061,0.090497049,0.106458221,0.274263124
0.244587918,0.090505845,0.106455122,0.274276867
0.244633949,0.090514766,0.106452005,0.274290954
0.244680152,0.090523812,0.106448871,0.274305385
0.244726526,0.090532981,0.106445719,0.274320155
0.244773071,0.090542275,0.106442547,0.274335262
0.244819787,0.090551694,0.106439355,0.274350703
0.244866672,0.090561236,0.106436142,0.274366474
0.244913726,0.090570903,0.106432906,0.274382574
0.244960947,0.090580695,0.106429647,0.274398997
0.245008336,0.09059061,0.106426363,0.274415741
0.24505589,0.09060065,0.106423054,0.274432803
0.245103608,0.090610815,0.106419718,0.274450179
0.245151487,0.090621103,0.106416353,0.274467865
0.245199527,0.090631517,0.10641296,0.274485859
0.245247723,0.090642055,0.106409536,0.274504155
0.245296076,0.090652717,0.106406081,0.274522752
0.245344582,0.090663505,0.106402594,0.274541647
0.245393243,0.090674418,0.106399074,0.274560836
0.245442056,0.090685456,0.10639552,0.274580318
0.24549102,0.090696619,0.106391931,0.274600089
0.245540136,0.090707909,0.106388308,0.274620147
0.245589401,0.090719325,0.106384648,0.274640489
0.245638817,0.090730868,0.106380952,0.274661112
0.245688383,0.090742537,0.106377217,0.274682015
0.2457381,0.090754332,0.106373444,0.274703194
0.245787965,0.090766255,0.106369632,0.274724647
0.24583798,0.090778304,0.106365779,0.274746372
0.245888142,0.09079048,0.106361884,0.274768366
0.245938451,0.090802784,0.106357947,0.274790627
0.245988904,0.090815216,0.106353967,0.274813151
0.246039501,0.090827775,0.106349943,0.274835936
0.24609024,0.090840462,0.106345874,0.274858979
0.246141119,0.090853276,0.106341759,0.274882279
0.246192138,0.090866217,0.106337599,0.274905831
0.246243295,0.090879286,0.106333392,0.274929636
0.24629459,0.090892482,0.10632914,0.274953689
0.246346021,0.090905806,0.106324841,0.27497799
0.246397588,0.090919258,0.106320496,0.275002536
0.24644929,0.090932838,0.106316105,0.275027324
0.246501124,0.090946546,0.106311669,0.275052352
0.24655309,0.090960382,0.106307187,0.275077618
0.246605187,0.090974346,0.10630266,0.275103119
0.246657412,0.090988439,0.106298089,0.275128854
0.246709764,0.091002659,0.106293474,0.275154819
0.24676224,0.091017008,0.106288815,0.275181013
0.246814839,0.091031485,0.106284111,0.275207433
0.246867557,0.09104609,0.106279364,0.275234075
0.246920391,0.091060824,0.106274573,0.275260938
0.246973341,0.091075685,0.106269737,0.275288018
0.247026402,0.091090673,0.106264858,0.275315314
0.247079575,0.091105789,0.106259936,0.275342823
0.247132858,0.091121033,0.106254969,0.275370545
0.247186249,0.091136403,0.106249959,0.275398476
0.247239746,0.091151901,0.106244906,0.275426616
0.247293349,0.091167526,0.106239809,0.275454961
0.247347055,0.091183278,0.106234669,0.27548351
0.247400864,0.091199157,0.106229484,0.27551226
0.247454774,0.091215162,0.106224256,0.27554121
0.247508785,0.091231292,0.106218984,0.275570357
0.247562893,0.091247548,0.106213667,0.275599701
0.247617098,0.091263928,0.106208305,0.275629239
0.247671397,0.091280433,0.106202899,0.27565897
0.247725788,0.091297062,0.106197446,0.275688891
0.247780268,0.091313816,0.106191948,0.275719
0.247834837,0.091330692,0.106186402,0.275749294
0.247889491,0.091347693,0.106180809,0.275779773
0.247944229,0.091364816,0.106175169,0.275810435
0.24799905,0.091382063,0.106169481,0.275841278
0.248053952,0.091399434,0.106163745,0.275872301
0.248108934,0.091416928,0.106157961,0.275903501
0.248163993,0.091434548,0.10615213,0.275934879
0.248219129,0.091452292,0.106146249,0.275966431
0.248274341,0.09147016,0.106140321,0.275998157
0.248329628,0.091488154,0.106134343,0.276030054
0.248384988,0.091506273,0.106128316,0.27606212
0.248440421,0.091524516,0.10612224,0.276094356
0.248495924,0.091542885,0.106116114,0.276126758
0.248551496,0.091561379,0.106109938,0.276159326
0.248607135,0.091579998,0.106103712,0.27619206
0.248662839,0.091598741,0.106097434,0.276224957
0.248718605,0.09161761,0.106091106,0.276258016
0.248774431,0.091636603,0.106084725,0.276291237
0.248830316,0.091655721,0.106078293,0.276324618
0.248886259,0.091674962,0.106071809,0.27635816
0.248942258,0.091694328,0.106065273,0.276391861
0.248998313,0.091713817,0.106058685,0.276425722
0.249054421,0.09173343,0.106052046,0.27645974
0.249110583,0.091753166,0.106045354,0.276493916
0.249166797,0.091773026,0.106038611,0.276528248
0.249223061,0.091793008,0.106031815,0.276562735
0.249279376,0.091813112,0.106024967,0.276597376
0.249335738,0.091833337,0.106018067,0.27663217
0.249392147,0.091853684,0.106011113,0.276667116
0.249448601,0.091874151,0.106004107,0.276702214
0.249505097,0.091894737,0.105997048,0.276737461
0.249561633,0.091915442,0.105989936,0.276772858
0.249618207,0.091936265,0.105982771,0.276808403
0.249674816,0.091957205,0.105975554,0.276844096
0.249731457,0.091978262,0.105968284,0.276879935
0.249788127,0.091999434,0.105960961,0.276915923
0.249844826,0.092020721,0.105953586,0.276952058
0.249901549,0.092042122,0.10594616,0.276988342
0.249958295,0.092063636,0.105938682,0.277024774
0.250015062,0.092085264,0.105931152,0.277061356
0.250071847,0.092107004,0.105923572,0.277098087
0.250128649,0.092128856,0.10591594,0.277134968
0.250185464,0.092150819,0.105908256,0.277171998
0.250242292,0.092172892,0.105900522,0.277209177
0.25029913,0.092195074,0.105892736,0.277246507
0.250355977,0.092217364,0.105884898,0.277283988
0.250412828,0.092239762,0.105877009,0.277321618
0.250469682,0.092262266,0.105869068,0.277359399
0.250526536,0.092284874,0.105861075,0.27739733
0.250583387,0.092307587,0.105853031,0.27743541
0.250640233,0.092330402,0.105844935,0.277473638
0.250697073,0.092353319,0.105836788,0.277512016
0.250753905,0.092376337,0.105828591,0.277550543
0.250810728,0.092399455,0.105820342,0.277589221
0.250867542,0.092422671,0.105812044,0.27762805
0.250924344,0.092445986,0.105803698,0.27766703
0.250981135,0.092469399,0.105795302,0.277706161
0.251037915,0.092492909,0.105786859,0.277745443
0.251094681,0.092516515,0.105778368,0.277784877
0.251151436,0.092540217,0.105769831,0.277824462
0.251208177,0.092564015,0.105761247,0.277864199
0.251264905,0.092587906,0.105752617,0.277904087
0.251321619,0.092611892,0.105743942,0.27794413
0.251378318,0.092635971,0.105735223,0.277984327
0.251435,0.092660142,0.105726459,0.278024681
0.251491664,0.092684404,0.105717651,0.278065192
0.25154831,0.092708758,0.105708799,0.278105862
0.251604934,0.092733201,0.105699905,0.278146692
0.251661538,0.092757732,0.105690968,0.278187682
0.251718121,0.092782352,0.10568199,0.278228835
0.251774682,0.092807059,0.105672971,0.278270153
0.251831221,0.092831851,0.105663912,0.278311635
0.251887738,0.092856729,0.105654814,0.278353284
0.251944233,0.092881691,0.105645678,0.278395099
0.252000706,0.092906736,0.105636503,0.278437082
0.252057155,0.092931863,0.105627292,0.278479233
0.252113582,0.09295707,0.105618044,0.278521553
0.252169986,0.092982357,0.10560876,0.278564042
0.252226366,0.093007722,0.105599441,0.278606699
0.252282722,0.093033164,0.105590087,0.278649527
0.252339051,0.093058681,0.105580698,0.278692524
0.252395354,0.093084273,0.105571276,0.278735691
0.252451628,0.093109937,0.10556182,0.278779028
0.252507872,0.093135673,0.105552332,0.278822535
0.252564085,0.093161479,0.105542812,0.278866212
0.252620265,0.093187354,0.10553326,0.27891006
0.252676414,0.093213296,0.105523678,0.278954077
0.252732529,0.093239303,0.105514065,0.278998266
0.25278861,0.093265375,0.105504424,0.279042626
0.252844656,0.093291511,0.105494754,0.279087157
0.252900667,0.093317708,0.105485056,0.279131859
0.252956643,0.093343967,0.10547533,0.279176732
0.253012582,0.093370286,0.105465578,0.279221776
0.253068484,0.093396663,0.105455799,0.27926699
0.25312435,0.093423098,0.105445994,0.279312373
0.253180178,0.093449589,0.105436164,0.279357927
0.253235968,0.093476134,0.105426308,0.279403649
0.253291719,0.093502733,0.105416427,0.27944954
0.253347428,0.093529384,0.105406522,0.279495597
0.253403095,0.093556087,0.105396593,0.27954182
0.253458719,0.093582839,0.10538664,0.279588207
0.253514298,0.093609641,0.105376663,0.279634758
0.253569832,0.09363649,0.105366664,0.27968147
0.253625321,0.093663386,0.105356642,0.279728344
0.253680764,0.093690328,0.105346599,0.279775377
0.25373616,0.093717315,0.105336534,0.27982257
0.253791509,0.093744348,0.105326449,0.279869921
0.253846811,0.093771426,0.105316344,0.279917427
0.253902066,0.093798548,0.105306218,0.279965087
0.253957273,0.093825715,0.105296073,0.280012899
0.254012434,0.093852926,0.105285908,0.280060862
0.254067547,0.093880181,0.105275725,0.280108974
0.254122613,0.093907479,0.105265522,0.280157235
0.254177631,0.093934821,0.1052553,0.280205644
0.254232599,0.093962206,0.10524506,0.280254201
0.254287517,0.093989635,0.105234801,0.280302906
0.254342384,0.094017107,0.105224524,0.280351759
0.254397197,0.094044622,0.105214228,0.280400759
0.254451957,0.094072179,0.105203913,0.280449909
0.254506662,0.094099778,0.10519358,0.280499209
0.254561313,0.09412742,0.105183229,0.280548662
0.254615911,0.094155105,0.10517286,0.280598271
0.254670454,0.094182832,0.105162474,0.280648037
0.254724945,0.094210601,0.105152069,0.280697961
0.254779383,0.094238412,0.105141647,0.280748047
0.254833769,0.094266266,0.105131206,0.280798295
0.254888103,0.094294162,0.105120748,0.280848709
0.254942387,0.0943221,0.105110272,0.280899291
0.254996619,0.094350079,0.105099778,0.280950043
0.255050801,0.094378099,0.105089266,0.281000968
0.255104932,0.09440616,0.105078736,0.281052069
0.255159011,0.094434261,0.105068188,0.281103348
0.255213038,0.094462402,0.105057621,0.281154807
0.255267013,0.094490581,0.105047037,0.281206448
0.255320935,0.094518799,0.105036434,0.281258274
0.255374806,0.094547054,0.105025813,0.281310288
0.255428624,0.094575346,0.105015173,0.281362493
0.255482391,0.094603675,0.105004514,0.281414891
0.255536107,0.09463204,0.104993837,0.281467484
0.255589773,0.094660441,0.104983139,0.281520274
0.25564339,0.094688877,0.104972422,0.281573263
0.255696958,0.094717347,0.104961685,0.281626453
0.255750478,0.094745851,0.104950926,0.281679844
0.255803951,0.094774388,0.104940146,0.281733439
0.255857377,0.094802957,0.104929344,0.281787238
0.255910758,0.094831557,0.104918519,0.281841245
0.255964092,0.094860187,0.10490767,0.281895459
0.256017379,0.094888848,0.104896797,0.281949883
0.256070619,0.094917538,0.104885899,0.282004517
0.256123811,0.094946257,0.104874976,0.282059362
0.256176955,0.094975004,0.104864027,0.282114419
0.256230051,0.095003779,0.104853051,0.282169688
0.256283099,0.095032581,0.104842049,0.28222517
0.256336098,0.095061411,0.104831019,0.282280867
0.25638905,0.095090268,0.104819963,0.282336778
0.256441953,0.095119152,0.104808879,0.282392905
0.256494808,0.095148064,0.104797767,0.282449248
0.256547615,0.095177004,0.104786628,0.282505806
0.256600374,0.09520597,0.10477546,0.282562579
0.256653084,0.095234963,0.104764263,0.282619568
0.256705745,0.095263983,0.104753037,0.282676773
0.256758357,0.095293029,0.104741781,0.282734193
0.256810918,0.095322101,0.104730495,0.282791829
0.256863429,0.095351199,0.104719178,0.282849681
0.256915886,0.095380322,0.104707829,0.282907751
0.25696829,0.09540947,0.104696449,0.282966037
0.257020638,0.095438643,0.104685037,0.283024541
0.257072929,0.09546784,0.104673592,0.283083261
0.257125163,0.09549706,0.104662114,0.283142199
0.257177338,0.095526305,0.104650603,0.283201355
0.257229454,0.095555573,0.104639058,0.28326073
0.25728151,0.095584864,0.10462748,0.283320325
0.257333504,0.095614177,0.104615869,0.283380138
0.257385437,0.095643514,0.104604224,0.283440172
0.257437306,0.095672872,0.104592544,0.283500424
0.257489111,0.095702253,0.104580831,0.283560895
0.25754085,0.095731655,0.104569082,0.283621584
0.257592522,0.09576108,0.104557297,0.28368249
0.257644127,0.095790526,0.104545477,0.283743615
0.257695663,0.095819994,0.104533619,0.283804957
0.257747128,0.095849483,0.104521725,0.283866516
0.25779852,0.095878994,0.104509793,0.283928291
0.257849838,0.095908526,0.104497824,0.283990283
0.257901079,0.095938079,0.104485816,0.284052491
0.257952241,0.095967654,0.104473769,0.284114914
0.258003322,0.095997249,0.104461684,0.284177553
0.258054322,0.096026865,0.10444956,0.284240406
0.258105239,0.096056503,0.104437397,0.284303475
0.258156072,0.096086161,0.104425196,0.284366758
0.25820682,0.096115841,0.104412955,0.284430256
0.258257482,0.096145543,0.104400675,0.284493966
0.258308057,0.096175265,0.104388356,0.284557888
0.258358544,0.096205009,0.104375996,0.284622022
0.258408943,0.096234772,0.104363597,0.284686366
0.258459253,0.096264557,0.104351158,0.28475092
0.258509471,0.09629436,0.104338677,0.284815683
0.258559598,0.096324183,0.104326155,0.284880653
0.25860963,0.096354025,0.104313592,0.284945829
0.258659566,0.096383885,0.104300986,0.28501121
0.258709404,0.096413763,0.104288338,0.285076795
0.258759142,0.096443659,0.104275647,0.285142581
0.258808778,0.096473571,0.104262913,0.285208567
0.25885831,0.096503501,0.104250135,0.285274751
0.258907734,0.096533448,0.104237315,0.285341133
0.25895705,0.096563412,0.104224452,0.285407711
0.259006253,0.096593395,0.104211546,0.285474484
0.259055342,0.096623396,0.104198596,0.285541448
0.259104313,0.096653417,0.104185604,0.285608603
0.259153163,0.096683458,0.104172567,0.285675945
0.25920189,0.096713519,0.104159487,0.285743472
0.25925049,0.096743601,0.104146363,0.28581118
0.259298961,0.096773704,0.104133193,0.285879068
0.259347299,0.096803829,0.104119979,0.285947134
0.2593955,0.096833977,0.10410672,0.286015374
0.259443562,0.096864148,0.104093415,0.286083787
0.259491479,0.096894343,0.104080063,0.28615237
0.259539248,0.096924563,0.104066666,0.28622112
0.259586865,0.096954807,0.104053222,0.286290034
0.259634327,0.096985078,0.10403973,0.28635911
0.259681631,0.097015375,0.104026192,0.286428345
0.259728775,0.0970457,0.104012608,0.286497737
0.259775757,0.097076053,0.103998976,0.286567284
0.259822573,0.097106436,0.103985298,0.286636982
0.259869222,0.097136848,0.103971573,0.28670683
0.259915702,0.097167292,0.103957802,0.286776825
0.25996201,0.097197767,0.103943984,0.286846963
0.260008144,0.097228274,0.103930119,0.286917242
0.260054101,0.097258812,0.103916207,0.286987659
0.26009988,0.097289383,0.103902248,0.287058211
0.260145477,0.097319986,0.103888242,0.287128897
0.260190891,0.097350622,0.103874189,0.287199711
0.260236117,0.09738129,0.103860088,0.287270653
0.260281153,0.097411991,0.103845941,0.287341717
0.260325997,0.097442725,0.103831746,0.287412902
0.260370644,0.097473491,0.103817504,0.287484205
0.260415094,0.097504289,0.103803216,0.287555623
0.260459344,0.09753512,0.103788882,0.287627153
0.260503392,0.097565984,0.103774503,0.287698795
0.260547238,0.09759688,0.10376008,0.287770543
0.260590878,0.097627809,0.103745612,0.287842397
0.260634312,0.09765877,0.103731102,0.287914352
0.260677537,0.097689764,0.103716549,0.287986406
0.260720554,0.09772079,0.103701954,0.288058555
0.260763359,0.097751849,0.103687319,0.288130796
0.260805952,0.097782938,0.103672643,0.288203126
0.260848331,0.097814059,0.103657928,0.288275541
0.260890495,0.097845211,0.103643174,0.28834804
0.26093244,0.097876393,0.103628382,0.288420618
0.260974165,0.097907605,0.103613551,0.288493273
0.261015666,0.097938845,0.103598684,0.288565999
0.261056942,0.097970115,0.103583779,0.288638794
0.261097991,0.098001412,0.103568837,0.288711653
0.261138809,0.098032737,0.10355386,0.288784572
0.261179396,0.098064089,0.103538847,0.288857549
0.261219749,0.098095468,0.1035238,0.288930578
0.261259867,0.098126873,0.103508718,0.289003656
0.261299749,0.098158305,0.103493604,0.289076778
0.261339392,0.098189762,0.103478457,0.289149939
0.261378796,0.098221244,0.103463278,0.289223135
0.261417958,0.098252751,0.103448068,0.289296361
0.261456877,0.098284282,0.103432828,0.289369611
0.26149555,0.098315836,0.103417558,0.289442882
0.261533976,0.098347414,0.103402259,0.289516169
0.261572152,0.098379015,0.103386932,0.289589468
0.261610076,0.098410638,0.103371579,0.289662774
0.261647744,0.098442283,0.103356199,0.289736083
0.261685153,0.09847395,0.103340795,0.289809391
0.261722302,0.098505639,0.103325367,0.289882692
0.261759188,0.098537348,0.103309917,0.289955982
0.261795811,0.098569077,0.103294447,0.290029257
0.261832168,0.098600826,0.103278956,0.290102513
0.261868259,0.098632595,0.103263448,0.290175747
0.261904083,0.098664383,0.103247923,0.290248952
0.261939638,0.09869619,0.103232383,0.290322125
0.261974924,0.098728016,0.103216829,0.29039526
0.262009941,0.09875986,0.103201262,0.290468354
0.262044688,0.098791721,0.103185682,0.290541401
0.262079165,0.0988236,0.103170091,0.290614397
0.26211337,0.098855496,0.10315449,0.290687338
0.262147303,0.098887409,0.103138879,0.290760218
0.262180963,0.098919337,0.103123259,0.290833035
0.262214348,0.098951281,0.103107632,0.290905782
0.262247458,0.098983239,0.103091999,0.290978456
0.26228029,0.099015211,0.10307636,0.29105105
0.262312844,0.099047196,0.103060717,0.291123562
0.262345119,0.099079193,0.103045071,0.291195986
0.262377116,0.099111202,0.103029422,0.291268318
0.262408834,0.099143223,0.103013771,0.291340555
0.262440274,0.099175254,0.102998121,0.29141269
0.262471434,0.099207296,0.102982471,0.291484721
0.262502315,0.099239349,0.102966823,0.291556642
0.262532917,0.099271412,0.102951179,0.291628449
0.262563238,0.099303485,0.102935538,0.291700136
0.26259328,0.099335567,0.102919902,0.291771698
0.262623042,0.099367658,0.102904273,0.291843132
0.262652524,0.099399757,0.102888651,0.291914432
0.262681724,0.099431865,0.102873037,0.291985594
0.262710642,0.09946398,0.102857433,0.292056614
0.262739277,0.099496103,0.102841839,0.292127485
0.262767628,0.099528233,0.102826257,0.292198203
0.262795694,0.09956037,0.102810687,0.292268763
0.262823473,0.099592514,0.10279513,0.292339161
0.262850967,0.099624663,0.102779588,0.29240939
0.262878175,0.099656818,0.102764062,0.292479448
0.262905099,0.099688977,0.102748552,0.29254933
0.262931739,0.099721142,0.102733061,0.292619032
0.262958095,0.099753311,0.102717588,0.292688548
0.262984168,0.099785485,0.102702134,0.292757875
0.263009961,0.099817662,0.102686701,0.292827008
0.263035473,0.099849842,0.102671288,0.292895942
0.263060706,0.099882024,0.102655897,0.292964674
0.263085662,0.099914209,0.102640527,0.293033198
0.26311034,0.099946395,0.10262518,0.293101512
0.263134741,0.09997858,0.102609856,0.293169612
0.263158867,0.100010766,0.102594555,0.293237493
0.263182716,0.10004295,0.102579277,0.293305153
0.263206288,0.100075131,0.102564023,0.293372587
0.263229585,0.100107309,0.102548794,0.293439793
0.263252606,0.100139482,0.102533591,0.293506766
0.263275352,0.100171649,0.102518414,0.293573503
0.263297826,0.100203809,0.102503264,0.293640003
0.263320027,0.100235962,0.102488143,0.293706261
0.263341958,0.100268106,0.102473052,0.293772275
0.26336362,0.10030024,0.102457992,0.293838041
0.263385014,0.100332363,0.102442963,0.293903557
0.263406142,0.100364476,0.102427967,0.293968817
0.263427007,0.100396575,0.102413004,0.294033819
0.263447608,0.100428662,0.102398075,0.294098558
0.263467948,0.100460734,0.102383182,0.294163033
0.263488027,0.10049279,0.102368324,0.294227239
0.263507847,0.100524829,0.102353503,0.294291172
0.263527407,0.10055685,0.10233872,0.29435483
0.263546707,0.100588851,0.102323977,0.294418209
0.263565749,0.10062083,0.102309274,0.294481305
0.263584533,0.100652787,0.102294614,0.294544116
0.263603059,0.100684719,0.102279997,0.294606638
0.263621329,0.100716625,0.102265426,0.29466887
0.263639343,0.100748502,0.102250902,0.294730809
0.263657103,0.100780351,0.102236427,0.294792452
0.263674609,0.100812168,0.102222003,0.294853795
0.263691863,0.100843954,0.102207631,0.294914837
0.263708865,0.100875706,0.102193312,0.294975575
0.263725617,0.100907423,0.102179049,0.295036005
0.26374212,0.100939103,0.102164843,0.295096126
0.263758374,0.100970746,0.102150695,0.295155935
0.263774381,0.101002349,0.102136606,0.295215429
0.26379014,0.101033911,0.102122578,0.295274606
0.263805653,0.101065431,0.102108612,0.295333463
0.263820917,0.101096908,0.102094708,0.295391997
0.263835935,0.10112834,0.102080869,0.295450207
0.263850706,0.101159725,0.102067094,0.295508089
0.263865231,0.101191064,0.102053386,0.295565644
0.26387951,0.101222353,0.102039746,0.295622869
0.263893543,0.101253593,0.102026174,0.295679765
0.263907333,0.101284781,0.102012674,0.295736333
0.263920878,0.101315916,0.101999245,0.295792571
0.263934181,0.101346998,0.101985889,0.295848482
0.263947242,0.101378026,0.101972608,0.295904064
0.263960063,0.101408998,0.101959402,0.295959318
0.263972645,0.101439913,0.101946273,0.296014245
0.26398499,0.101470772,0.101933222,0.296068847
0.263997097,0.101501573,0.101920249,0.296123125
0.264008969,0.101532315,0.101907357,0.29617708
0.264020604,0.101562998,0.101894544,0.296230715
0.264032004,0.10159362,0.101881814,0.296284033
0.264043168,0.101624183,0.101869166,0.296337035
0.264054097,0.101654684,0.101856601,0.296389722
0.264064789,0.101685123,0.10184412,0.296442098
0.264075248,0.1017155,0.101831725,0.296494163
0.264085473,0.101745812,0.101819416,0.29654592
0.264095466,0.10177606,0.101807196,0.296597371
0.264105229,0.101806243,0.101795065,0.296648519
0.264114763,0.10183636,0.101783025,0.296699364
0.264124069,0.101866411,0.101771077,0.29674991
0.264133151,0.101896395,0.101759222,0.296800156
0.264142009,0.101926311,0.101747462,0.296850104
0.264150645,0.101956159,0.101735797,0.296899756
0.264159062,0.101985937,0.101724229,0.296949113
0.26416726,0.102015644,0.101712759,0.296998175
0.264175241,0.10204528,0.101701387,0.297046945
0.264183006,0.102074844,0.101690115,0.297095423
0.264190555,0.102104335,0.101678944,0.29714361
0.264197889,0.102133751,0.101667874,0.297191506
0.264205008,0.102163092,0.101656907,0.297239113
0.264211913,0.102192357,0.101646043,0.297286431
0.264218605,0.102221545,0.101635285,0.297333461
0.264225086,0.102250655,0.101624633,0.297380203
0.264231358,0.102279686,0.101614089,0.29742666
0.264237423,0.102308638,0.101603655,0.29747283
0.264243281,0.10233751,0.101593332,0.297518715
0.264248934,0.102366301,0.101583121,0.297564315
0.264254384,0.10239501,0.101573025,0.29760963
0.264259634,0.102423636,0.101563043,0.297654659
0.264264685,0.102452178,0.101553178,0.297699403
0.264269538,0.102480636,0.10154343,0.297743861
0.264274195,0.102509006,0.101533801,0.297788034
0.264278658,0.10253729,0.101524292,0.297831921
0.264282928,0.102565484,0.101514903,0.297875522
0.264287005,0.102593589,0.101505635,0.297918836
0.264290892,0.102621602,0.101496491,0.297961862
