raw_ch1,raw_ch2,raw_ch3,raw_ch4,processed_ch1,processed_ch2,processed_ch3,processed_ch4
0.35452412661050536,-0.11817470887016848,0.038326932606541124,-0.3449423934588701,0.2757987228587457,0.087248190014394,0.1461006118435677,0.3834767751833974
0.4503414581268582,-0.028745199454905845,0.12136861992071357,-0.47269883548067393,0.2758168339181692,0.0872567146855391,0.14608157153197732,0.38348300463090307
0.49505621283448964,-0.01596955525272547,0.1117868867690783,-0.5493527006937562,0.2758350883900032,0.08726521542774601,0.1460623990622892,0.3834896840496183
0.2076042182854311,0.06387822101090188,0.060684309960356786,-0.43756581392467786,0.2758534867672207,0.08727369212659165,0.146043095281398,0.3834968129415758
0.16608337462834488,0.047908665758176414,0.047908665758176414,-0.36729977081268583,0.27587202966889485,0.08728214459347468,0.14602366097003086,0.38350439089862287
0.13095035307234884,0.04471475470763132,0.02235737735381566,-0.3130032829534192,0.27589071767840767,0.08729057257456549,0.14600409681112567,0.3835124175454785
0.09901124256689792,0.0,-0.012775644202180378,-1.6352824578790883,0.27590955119633215,0.08729897575437368,0.14598440335256527,0.38352089256918837
0.12456253097125865,0.08304168731417244,0.01596955525272547,-0.038326932606541124,0.27592853036917486,0.08730735374414551,0.1459645809813367,0.3835298160051356
0.1117868867690783,0.07665386521308225,0.04152084365708622,0.08623559836471753,0.27594765506590807,0.08731570608588927,0.14594462991325272,0.38353918835726986
0.08942950941526263,0.019163466303270562,0.028745199454905845,0.08942950941526263,0.27596692487436064,0.08732403227609342,0.14592455020014414,0.3835490101889582
0.012775644202180378,-0.006387822101090189,0.019163466303270562,0.12775644202180375,0.2759863390890653,0.08733233176715614,0.14590434174189404,0.38355928166494563
-0.45353536917740334,-0.035133021555996034,-0.17885901883052527,0.5429648785926661,0.2760058967135378,0.0873406039382486,0.14588400430354242,0.38357000247852463
-0.948591582011893,-0.12775644202180375,-0.46950492443012876,0.9262342046580774,0.276025596628881,0.08734884808641206,0.14586353759940032,0.3835811720845182
-0.6771091427155599,-0.2107981293359762,-0.306615460852329,0.7090482532210107,0.2760454379846118,0.08735706347798372,0.1458429414782488,0.3835927900858741
-0.29703372770069375,-0.16608337462834488,-0.14053208622398414,0.5269953233399406,0.27606542050255023,0.08736524944053889,0.14582221607156076,0.3836048565158164
0.11498079781962338,-0.1117868867690783,0.009581733151635281,0.2555128840436075,0.2760855443794709,0.08737340542617349,0.1458013617454855,0.3836173717962759
0.3193911050545094,-0.10859297571853319,0.04471475470763132,-0.04471475470763132,0.2761058099512037,0.08738153100338446,0.14578037891873605,0.3836303364534776
0.5046379459861249,-0.11498079781962338,0.12456253097125865,-0.3257789271555996,0.27612621750845096,0.08738962581388951,0.14575926792725286,0.3836437508128418
0.5685161669970267,-0.03193911050545094,0.18524684093161545,-0.47908665758176416,0.27614676738653965,0.08739768953878059,0.14573802901605595,0.38365761488063094
0.29064590559960357,0.07665386521308225,0.1501138193756194,-0.5014440349355798,0.2761674601311582,0.0874057218673837,0.14571666240807749,0.38367192846547854
0.1469199083250743,0.08942950941526263,0.11817470887016848,-0.4056267034192269,0.2761882965018315,0.08741372246971058,0.14569516835737303,0.3836866913578282
0.1117868867690783,0.07345995416253714,0.09901124256689792,-0.3353606603072349,0.27620927729078143,0.08742169099466522,0.14567354714530154,0.38370190338549026
0.08623559836471753,0.05429648785926659,0.07345995416253714,-0.33216674925668976,0.2762304031215891,0.08742962707908292,0.14565179904405468,0.38371756435318966
0.08623559836471753,0.08623559836471753,-0.03193911050545094,0.05749039890981169,0.27625167433910214,0.08743753034366358,0.14562992427615273,0.38373367393928287
0.0031939110505450944,0.1533077304261645,0.38965714816650143,0.6164248327552032,0.27627309096350355,0.08744540039607103,0.14560792300855013,0.3837502316071335
-0.028745199454905845,0.12456253097125865,0.2587067950941526,0.49505621283448964,0.2762946526525775,0.08745323686391598,0.14558579544342895,0.38376723664540086
-0.1117868867690783,0.05110257680872151,0.18524684093161545,0.3449423934588701,0.27631635867482124,0.08746103942565653,0.14556354194885843,0.38378468832680657
-0.11498079781962338,0.035133021555996034,0.1501138193756194,0.38646323711595637,0.27633820793087577,0.0874688077922337,0.1455411630826973,0.38380258597328637
-0.48866839073339935,-0.0031939110505450944,-0.1117868867690783,0.7058543421704658,0.2763601990468649,0.08747654165012157,0.14551865951363394,0.38382092892194825
-1.02205153617443,-0.10859297571853319,-0.43756581392467786,0.948591582011893,0.2763823306112817,0.08748424061919406,0.14549603197466354,0.38383971662581345
-0.7793142963330029,-0.12775644202180375,-0.3641058597621407,0.7409873637264618,0.27640460158422075,0.08749190426467084,0.14547328133796741,0.38385894891212524
-0.19482857408325072,-0.14053208622398414,-0.13733817517343905,0.3002276387512388,0.2764270115949804,0.08749953215392853,0.14545040873298892,0.383878626121303
0.17566510777998018,-0.08304168731417244,-0.07984777626362735,0.009581733151635281,0.2764495608048832,0.08750712390467237,0.14542741552862967,0.38389874890412945
0.39604497026759167,-0.1469199083250743,-0.09901124256689792,-0.3641058597621407,0.2764722495312603,0.0875146791931277,0.14540430318054645,0.3839193178259433
0.6387822101090188,-0.18844075198216054,-0.047908665758176414,-0.5653222559464817,0.2764950780929245,0.08752219775530203,0.14538107310406592,0.38394033316521153
0.6994665200693755,-0.16608337462834488,0.07665386521308225,-0.6707213206144698,0.27651804697352383,0.08752967941599035,0.14535772662477456,0.3839617950563958
0.24273723984142714,0.08304168731417244,0.07026604311199207,-0.6675274095639246,0.2765411570220193,0.08753712411390248,0.1453342649626338,0.3839837037579526
0.1565016414767096,0.08304168731417244,0.047908665758176414,-0.5621283448959365,0.2765644094119357,0.08754453187699353,0.14531068922778465,0.38400605981165326
0.12456253097125865,0.07026604311199207,0.04152084365708622,-0.7633447410802774,0.2765878053815257,0.08755190276701835,0.14528700041550877,0.38402886407460624
0.09581733151635283,0.08304168731417244,-0.10859297571853319,-1.36060610753221,0.27661134599667,0.08755923684103024,0.14526319939943544,0.38405211779700005
0.38965714816650143,0.09901124256689792,0.025551288404360755,-0.22996159563924676,0.27663503207472584,0.08756653414251343,0.14523928693845187,0.38407582281239167
0.36729977081268583,0.1117868867690783,0.12456253097125865,0.047908665758176414,0.27665886426239394,0.08757379471148495,0.1452152636903049,0.38409998148690383
0.16927728567888997,0.07345995416253714,0.07345995416253714,0.08304168731417244,0.27668284316664843,0.0875810185987526,0.14519113022376018,0.3841245962377862
0.012775644202180378,0.05110257680872151,0.0031939110505450944,0.06387822101090188,0.27670696936134315,0.08758820586358479,0.1451668870253291,0.38414966905888237
-0.18524684093161545,0.06387822101090188,-0.047908665758176414,0.4247901697224975,0.2767312432486833,0.08759535655043395,0.1451425344784337,0.38417520139516464
-0.7026604311199207,-0.09262342046580772,-0.2938398166501486,0.7377934526759168,0.27675566500906845,0.08760247067036118,0.1451180728552677,0.3842011943057421
-1.0635723798315164,-0.2076042182854311,-0.4663110133795837,0.84638642839445,0.2767802348597402,0.08760954821887136,0.14509350242421246,0.38422764880632404
-0.7186299863726462,-0.23634941774033696,-0.3130032829534192,0.5493527006937562,0.2768049535116395,0.08761658924283197,0.14506882365486568,0.38425456620179116
-0.17566510777998018,-0.17247119672943506,-0.035133021555996034,0.19163466303270565,0.27682982240121073,0.08762359392357584,0.14504403732805737,0.3842819481504037
0.14053208622398414,-0.10220515361744302,0.07345995416253714,-0.038326932606541124,0.2768548434545428,0.08763056260710013,0.14501914442864583,0.38430979640445273
0.3800754150148662,-0.13414426412289396,0.12136861992071357,-0.33216674925668976,0.2768800186753844,0.08763749576247046,0.1449941459579504,0.3843381124656336
0.4503414581268582,-0.02235737735381566,0.1596955525272547,-0.4854744796828543,0.2769053499793119,0.08764439391866817,0.14496904285569506,0.3843668974611405
0.440759724975223,0.028745199454905845,0.12136861992071357,-0.5717100780475718,0.27693083929382317,0.08765125760616051,0.14494383602783822,0.3843961522933746
0.12456253097125865,0.07984777626362735,0.07984777626362735,-0.39923888131813673,0.2769564886534044,0.0876580873049764,0.144918526372719,0.38442587784741566
0.08623559836471753,0.060684309960356786,0.060684309960356786,-0.3257789271555996,0.2769823001162185,0.08766488342696052,0.14489311476049196,0.3844560750547134
0.07026604311199207,0.047908665758176414,0.047908665758176414,-0.33216674925668976,0.2770082755667381,0.08767164632949133,0.14486760198975693,0.3844867448122458
0.05749039890981169,0.038326932606541124,-0.2491250619425173,-1.6033433473736372,0.2770344165654321,0.08767837631972557,0.14484198877236742,0.3845178880069881
0.07026604311199207,0.08623559836471753,0.19163466303270565,0.035133021555996034,0.2770607242953659,0.08768507364643718,0.14481627578823608,0.3845495058139991
0.07665386521308225,0.07984777626362735,0.17885901883052527,0.22676768458870167,0.27708719955631644,0.08769173850649978,0.14479046377226934,0.3845815998359421
0.0,0.04471475470763132,0.11498079781962338,0.27787026139742316,0.27711384276674755,0.08769837106268788,0.14476455354556914,0.3846141717573531
-0.04152084365708622,0.035133021555996034,0.05110257680872151,0.2938398166501486,0.27714065395160853,0.08770497144360373,0.14473854597298214,0.38464722299187465
-0.3353606603072349,-0.0031939110505450944,-0.14053208622398414,0.6387822101090188,0.27716763275229284,0.08771153971923228,0.14471244189880783,0.3846807546777886
-0.878325538899901,-0.07984777626362735,-0.3768815039643211,1.0380210914271557,0.27719477859385994,0.08771807587721084,0.14468624214156858,0.3847147679013867
-0.6387822101090188,-0.16927728567888997,-0.3161971940039643,0.814447317888999,0.27722209105414874,0.08772457983683388,0.1446599476008809,0.38474926404106474
-0.3161971940039643,-0.21718595143706637,-0.2107981293359762,0.4918623017839445,0.27724957016977353,0.08773105152054282,0.14463355938787836,0.3847842450107316
-0.06707213206144698,-0.19482857408325072,-0.047908665758176414,0.1628894635777998,0.2772772163791262,0.08773749094862882,0.14460707883005133,0.3848197131520321
0.08623559836471753,-0.1469199083250743,0.012775644202180378,-0.14053208622398414,0.2773050301940886,0.0877438982941167,0.14458050733958763,0.3848556708625819
0.4152084365708622,-0.12456253097125865,0.09262342046580772,-0.4215962586719524,0.277333011945584,0.08775027387378531,0.1445538462650219,0.3848921202759157
0.5940674554013875,-0.03193911050545094,0.1501138193756194,-0.5365770564915758,0.27736116181440995,0.0877566180964225,0.1445270968351043,0.38492906321359943
0.35133021555996036,0.07345995416253714,0.13414426412289396,-0.5780979001486619,0.2773894800532133,0.08776293139586448,0.14450026019833176,0.38496650136064525
0.17566510777998018,0.09581733151635283,0.09262342046580772,-0.4854744796828543,0.27741796710702277,0.08776921418178499,0.14447333747480565,0.3850044364473435
0.13733817517343905,0.07345995416253714,0.07345995416253714,-0.39923888131813673,0.2774466234985083,0.08777546683263808,0.14444632975941885,0.3850428702994497
0.1053990646679881,0.060684309960356786,0.05429648785926659,-0.35133021555996036,0.27747544963023935,0.08778168970630876,0.144419238088273,0.38508180477151466
0.07665386521308225,0.12775644202180375,-0.17885901883052527,-0.7186299863726462,0.27750444565775734,0.08778788314164397,0.14439206341552463,0.3851212416809856
-0.006387822101090189,0.22676768458870167,0.09901124256689792,0.08942950941526263,0.27753361142522837,0.08779404748032721,0.14436480663258486,0.3851611828192942
0.01596955525272547,0.18205292988107036,0.09262342046580772,0.1628894635777998,0.27756294641144275,0.08780018313252251,0.14433746860059196,0.3852016299016665
-0.006387822101090189,0.10220515361744302,0.09262342046580772,0.1565016414767096,0.27759244968353114,0.08780629063280028,0.14431005014841528,0.38524258436809944
0.0031939110505450944,0.04152084365708622,0.09581733151635283,0.22996159563924676,0.27762211987525026,0.08781237062015117,0.14428255205094673,0.38528404722680193
-0.35771803766105054,-0.07984777626362735,-0.1533077304261645,0.6579456764122893,0.27765195521844677,0.08781842376245888,0.1442549750265756,0.38532601909433667
-0.8304168731417244,-0.27148243929633303,-0.4471475470763132,1.02205153617443,0.2776819537277347,0.0878244507189194,0.14422731978994693,0.38536850044931137
-0.6898847869177402,-0.22676768458870167,-0.373687592913776,0.9134585604558969,0.2777121135765985,0.08783045220089147,0.14419958719303944,0.38541149204025593
-0.1501138193756194,-0.1565016414767096,-0.09262342046580772,0.4152084365708622,0.27774243339915583,0.08783642906692662,0.14417177836022452,0.38545499517418913
0.1533077304261645,-0.10220515361744302,0.025551288404360755,0.09262342046580772,0.27777291220986516,0.08784238233970444,0.14414389464520042,0.385499011602347
0.3161971940039643,-0.16608337462834488,-0.012775644202180378,-0.24273723984142714,0.27780354909274924,0.08784831314892003,0.1441159374370851,0.38554354310654027
0.48866839073339935,-0.12775644202180375,-0.035133021555996034,-0.43756581392467786,0.2778343430595251,0.0878542226874293,0.14408790800237042,0.38558859118481437
0.5365770564915758,0.009581733151635281,0.05429648785926659,-0.5589344338453914,0.2778652931655553,0.08786011219309423,0.14405980743685065,0.3856341570567035
0.19802248513379583,0.08942950941526263,0.1533077304261645,-0.48228056863230917,0.27789639865815746,0.08786598290715641,0.14403163668685956,0.3856802418464843
0.12456253097125865,0.06707213206144698,0.12775644202180375,-0.39604497026759167,0.2779276589456591,0.08787183602557315,0.1440033966059762,0.3857268467063693
0.09901124256689792,0.08304168731417244,0.02235737735381566,-0.7952838515857285,0.2779590734027722,0.08787767268941456,0.14397508800341333,0.3857739728420303
0.08623559836471753,0.04471475470763132,-0.1117868867690783,-1.089123668235877,0.2779906411911772,0.08788349399455539,0.14394671163793107,0.3858216216259501
0.10859297571853319,0.0031939110505450944,0.49505621283448964,-0.2587067950941526,0.2780223611842694,0.08788930098177415,0.14391826822882758,0.3858697948181409
0.17885901883052527,0.02235737735381566,0.6771091427155599,0.16608337462834488,0.27805423196290824,0.08789509460511118,0.14388975863091838,0.3859184945456106
0.12456253097125865,-0.07665386521308225,0.45672928022794845,0.1628894635777998,0.2780862518476881,0.08790087570846748,0.14386118412791826,0.3859677229303351
0.12456253097125865,-0.060684309960356786,0.3481363045094153,0.12136861992071357,0.2781184189304101,0.08790664503808501,0.14383254659200262,0.3860174817371735
-0.012775644202180378,0.01596955525272547,0.19802248513379583,0.4439536360257681,0.2781507310649582,0.08791240326841371,0.14380384839722402,0.3860677722762753
-0.7186299863726462,-0.07984777626362735,-0.13414426412289396,0.7920899405351833,0.2781831858821171,0.08791815100565745,0.1437750922163941,0.38611859553394007
-1.1370323339940533,-0.1501138193756194,-0.4247901697224975,0.9549794041129831,0.2782157810365378,0.08792388879343108,0.14374628086906127,0.3861699524982584
-0.7218238974231912,-0.2107981293359762,-0.3130032829534192,0.7345995416253717,0.2782485146940718,0.08792961716492842,0.14371741731481352,0.38622184452264974
-0.18205292988107036,-0.14053208622398414,-0.11498079781962338,0.41201452552031714,0.27828138581546474,0.0879353367207793,0.14368850471764236,0.3862742734631055
0.01596955525272547,-0.060684309960356786,-0.09262342046580772,0.08942950941526263,0.27831439390796786,0.0879410481615028,0.14365954640493064,0.3863272414823346
0.2874519945490585,-0.09262342046580772,-0.05429648785926659,-0.24593115089197226,0.27834753854547756,0.08794675224752012,0.14363054572216843,0.38638075067808125
0.4279840807730426,0.009581733151635281,-0.035133021555996034,-0.4503414581268582,0.2783808191408731,0.08795244973481534,0.14360150591533344,0.386434802830749
0.4311779918235877,0.047908665758176414,-0.038326932606541124,-0.5717100780475718,0.2784142350442371,0.08795814132738151,0.14357243007506199,0.3864893994335115
0.2076042182854311,0.11498079781962338,-0.1053990646679881,-0.46950492443012876,0.2784477856937945,0.08796382765575103,0.14354332111846846,0.38654454188119447
0.1596955525272547,0.09262342046580772,-0.09262342046580772,-0.38965714816650143,0.2784814706057736,0.08796950929507401,0.14351418180707712,0.38660023158851464
0.13095035307234884,0.07984777626362735,-0.08942950941526263,-0.35771803766105054,0.2785152892369802,0.08797518680173258,0.14348501478206982,0.38665646996259295
0.1117868867690783,0.019163466303270562,-0.303421549801784,-0.7697325631813676,0.2785492408588747,0.08798086071942918,0.14345582260421985,0.3867132583558565
0.060684309960356786,0.06387822101090188,0.060684309960356786,-0.19482857408325072,0.27858332449142853,0.08798653155061643,0.1434266078138591,0.3867705981107432
-0.047908665758176414,0.10220515361744302,0.05110257680872151,-0.08942950941526263,0.27861753885938323,0.08799219973580337,0.1433973729577781,0.3868284905456662
0.0031939110505450944,0.05429648785926659,-0.019163466303270562,-0.05429648785926659,0.27865188234802857,0.08799786566591566,0.1433681205237295,0.3868869367335357
0.07984777626362735,0.03193911050545094,-0.01596955525272547,-0.04152084365708622,0.27868635296992905,0.0880035296960039,0.1433388528497756,0.3869459372468898
-0.27787026139742316,0.0031939110505450944,-0.1565016414767096,0.41201452552031714,0.27872094838408373,0.08800919212571538,0.14330957209314293,0.38700549207973567
-0.8112534068384538,-0.10220515361744302,-0.4471475470763132,0.85277425049554,0.27875566605584245,0.08801485317083392,0.14328028030020276,0.3870656008111209
-0.6419761211595639,-0.19482857408325072,-0.33216674925668976,0.6355882990584737,0.27879050359013385,0.08802051298188918,0.14325097958641303,0.3871262629672874
-0.3353606603072349,-0.19163466303270565,-0.18205292988107036,0.4088206144697721,0.2788254590274656,0.08802617172480393,0.1432216722985075,0.38718747831375083
0.038326932606541124,-0.12775644202180375,-0.01596955525272547,0.12456253097125865,0.2788605308169054,0.08803182966238603,0.14319236099565447,0.3872492468161163
0.2587067950941526,-0.1053990646679881,0.009581733151635281,-0.1501138193756194,0.27889571752438136,0.08803748716937043,0.14316304827752982,0.38731156835618674
0.4184023476214073,-0.10220515361744302,0.060684309960356786,-0.43756581392467786,0.2789310176244039,0.0880431446922746,0.14313373662042853,0.38737444249714004
0.4982501238850346,-0.035133021555996034,0.11817470887016848,-0.5301892343904856,0.27896642955439754,0.08804880270249188,0.1431044283219016,0.38743786849141015
0.29703372770069375,0.07984777626362735,0.12456253097125865,-0.4215962586719524,0.2790019518758462,0.08805446165755096,0.14307512553734697,0.3875018454597412
0.17885901883052527,0.09581733151635283,0.09901124256689792,-0.3193911050545094,0.2790375833124541,0.08806012197781946,0.14304583033453686,0.38756637250840476
0.14053208622398414,0.07665386521308225,0.07984777626362735,-0.2619007061446977,0.2790733226278216,0.08806578405105496,0.14301654471394085,0.3876314486846672
0.1117868867690783,0.05749039890981169,0.06387822101090188,-0.23954332879088208,0.2791091684686962,0.08807144824367462,0.142987270593857,0.38769707286078287
0.11817470887016848,0.07026604311199207,-0.14372599727452925,-0.1469199083250743,0.2791451192691138,0.08807711489425507,0.14295800979270884,0.3877632436356372
0.07345995416253714,0.11498079781962338,0.19163466303270565,-0.01596955525272547,0.2791811732092047,0.08808278430621594,0.14292876404682048,0.38782995924543406
-0.009581733151635281,0.11817470887016848,0.1533077304261645,0.10859297571853319,0.2792173281848891,0.08808845676407874,0.14289953506463263,0.38789721745983985
-0.04152084365708622,0.05749039890981169,0.03193911050545094,0.1469199083250743,0.27925358176483556,0.08809413255810349,0.14287032455751253,0.38796501551505924
0.02235737735381566,-0.006387822101090189,0.035133021555996034,0.18205292988107036,0.27928993115279444,0.08809981197612259,0.1428411341969278,0.3880333501347835
-0.3161971940039643,-0.035133021555996034,-0.13414426412289396,0.5589344338453914,0.2793263732042875,0.08810549525693584,0.14281196554516715,0.3881022176338736
-0.8687438057482655,-0.1596955525272547,-0.4279840807730426,0.9006829162537164,0.27936290459458474,0.08811118256144257,0.14278282007483864,0.38817161414785345
-0.6994665200693755,-0.14372599727452925,-0.3704936818632309,0.7697325631813676,0.279399522185164,0.08811687401152367,0.1427536993250691,0.38824153599107086
-0.1628894635777998,-0.10859297571853319,-0.09262342046580772,0.3002276387512388,0.27943622333573337,0.0881225697594618,0.14272460506008747,0.3883119799050128
0.14053208622398414,-0.08942950941526263,0.09262342046580772,0.04471475470763132,0.2794730058306326,0.08812827001364348,0.14269553924776282,0.38838294293778425
0.2139920403865213,-0.12456253097125865,0.1053990646679881,-0.21718595143706637,0.27950986754748225,0.08813397501909137,0.1426665039023814,0.388454422067231
0.3832693260654113,-0.1053990646679881,0.12456253097125865,-0.36729977081268583,0.27954680626390505,0.08813968504231995,0.14263750097749706,0.3885264139409903
0.46950492443012876,-0.1053990646679881,0.10220515361744302,-0.41201452552031714,0.27958381971519675,0.08814540037309804,0.14260853235248944,0.3885989149000808
0.23954332879088208,0.09262342046580772,0.08623559836471753,-0.45353536917740334,0.27962090573067727,0.08815112132340207,0.14257959983940688,0.38867192113422244
0.17247119672943506,0.08942950941526263,0.06387822101090188,-0.3800754150148662,0.2796580622595001,0.088156848217743,0.14255070517119114,0.38874542879391577
0.14053208622398414,0.07345995416253714,0.0031939110505450944,-0.712242164271556,0.27969528725624093,0.08816258138087178,0.1425218499722059,0.3888194340507141
0.1053990646679881,0.07345995416253714,-0.09262342046580772,-1.2807583312685829,0.2797325785458246,0.08816832112475913,0.14249303572370411,0.3888939332580347
0.1469199083250743,0.05749039890981169,0.16608337462834488,-0.28425808349851334,0.279769933749608,0.08817406773548019,0.1424642637622763,0.38896892323985627
0.16927728567888997,0.1628894635777998,0.24593115089197226,0.13414426412289396,0.2798073502679301,0.08817982147111607,0.14243553534437786,0.38904440133427276
0.10220515361744302,0.08304168731417244,0.2139920403865213,0.1628894635777998,0.2798448252935267,0.08818558258437938,0.142406851746536,0.3891203650039543
0.01596955525272547,0.009581733151635281,0.1533077304261645,0.1469199083250743,0.2798823558065501,0.08819135133962594,0.14237821432997785,0.3891968114263985
-0.18524684093161545,0.02235737735381566,0.07665386521308225,0.4279840807730426,0.27991993853513925,0.0881971279783642,0.14234962452766695,0.3892737373818814
-0.7729264742319127,-0.11498079781962338,-0.27148243929633303,0.7441812747770069,0.2799575700083152,0.08820291267020888,0.14232108379235106,0.38935113938644533
-1.1434201560951436,-0.2076042182854311,-0.46950492443012876,0.8623559836471754,0.27999524688082517,0.08820870553006095,0.14229259361951077,0.38942901398938906
-0.6866908758671952,-0.19802248513379583,-0.3353606603072349,0.5525466117443013,0.2800329664282616,0.08821450670537061,0.14226415568749506,0.3895073580788708
-0.04152084365708622,-0.1533077304261645,-0.1053990646679881,0.18524684093161545,0.28007072675662764,0.08822031645827173,0.14223577196294895,0.3895861689390238
0.21718595143706637,-0.10220515361744302,-0.006387822101090189,0.006387822101090189,0.28010852649182316,0.0882261351806365,0.14220744461501852,0.38966544398085035
0.34174848240832506,-0.1501138193756194,0.035133021555996034,-0.23315550668979185,0.2801463643364934,0.08823196335610081,0.14217917581027117,0.38974518037164085
0.40243279236868185,-0.047908665758176414,0.08623559836471753,-0.3481363045094153,0.2801842389312445,0.08823780151930112,0.14215096756927537,0.38982537486208696
0.4503414581268582,0.025551288404360755,0.060684309960356786,-0.4599231912784935,0.2802221489615944,0.08824365021700234,0.1421228217421757,0.3899060238751627
0.2203798624876115,0.09901124256689792,0.028745199454905845,-0.3704936818632309,0.2802600932539203,0.08824950996059934,0.1420947400294311,0.38998712368309046
0.16608337462834488,0.07984777626362735,0.02235737735381566,-0.306615460852329,0.28029807074238283,0.08825538120531687,0.14206672397878214,0.39006867050029176
0.13095035307234884,0.05429648785926659,0.0,-0.3832693260654113,0.2803360803339281,0.08826126436524162,0.14203877495945227,0.3901506604696089
0.5429648785926661,0.038326932606541124,-0.19163466303270565,-1.1849409997522298,0.28037412081931007,0.08826715981762316,0.14201089415623247,0.39023308970986037
0.20121639618434092,0.10859297571853319,0.1565016414767096,0.047908665758176414,0.2804121909377063,0.0882730678889032,0.14198308262447534,0.39031595452740675
0.20441030723488604,0.03193911050545094,0.13733817517343905,0.14053208622398414,0.2804502894659011,0.08827898885424797,0.14195534137846216,0.39039925147088517
0.14053208622398414,-0.04471475470763132,0.07345995416253714,0.20441030723488604,0.2804884151705471,0.08828492294203213,0.14192767142988932,0.3904829770273823
-0.012775644202180378,0.01596955525272547,-0.07984777626362735,0.3098093719028741,0.28052656668097614,0.08829087031788951,0.14190007375753197,0.3905671273501022
-0.5238014122893954,0.04471475470763132,-0.2938398166501486,0.712242164271556,0.2805647424227302,0.08829683106193467,0.14187254928295975,0.39065169830649743
-0.983724603567889,-0.028745199454905845,-0.5014440349355798,0.9422037599108027,0.28060294076450365,0.08830280516056123,0.14184509895126243,0.3907366857555467
-0.6834969648166501,-0.11817470887016848,-0.3193911050545094,0.6419761211595639,0.28064116040863635,0.08830879251720943,0.14181772391352154,0.39082208588809725
-0.27787026139742316,-0.1469199083250743,-0.1565016414767096,0.39923888131813673,0.2806794006823225,0.08831479299012406,0.14179042564086397,0.39090789538110604
0.06707213206144698,-0.11817470887016848,-0.012775644202180378,0.07345995416253714,0.28071766140340465,0.0883208064498698,0.14176320583758265,0.390994111218203
0.2491250619425173,-0.13733817517343905,0.05749039890981169,-0.19163466303270565,0.28075594250173563,0.08832683281955368,0.1417360662411579,0.3910807303357054
0.39604497026759167,-0.1469199083250743,0.12775644202180375,-0.4247901697224975,0.28079424379388246,0.08833287208537953,0.14170900848169074,0.39116774937993787
0.38965714816650143,-0.05110257680872151,0.16608337462834488,-0.5269953233399406,0.2808325650259639,0.08833892429282747,0.1416820340689203,0.3912551647311427
0.2619007061446977,0.06387822101090188,0.14372599727452925,-0.5174135901883052,0.28087090599510417,0.08834498952005305,0.14165514445074884,0.3913429726958291
0.1501138193756194,0.11498079781962338,0.1117868867690783,-0.4279840807730426,0.28090926655904935,0.08835106783721206,0.14162834105600927,0.3914311696565046
0.1117868867690783,0.06387822101090188,0.08942950941526263,-0.35452412661050536,0.28094764652589105,0.08835715929267764,0.14160162528870845,0.3915197520853458
0.09581733151635283,0.05110257680872151,0.07026604311199207,-0.3353606603072349,0.28098604552368395,0.08836326391769089,0.14157499849428584,0.39160871646691464
0.07984777626362735,0.07665386521308225,-0.0031939110505450944,-0.5621283448959365,0.28102446291787997,0.08836938171550889,0.14154846191902265,0.3916980592344761
0.11498079781962338,0.13733817517343905,0.5461587896432111,0.3002276387512388,0.28106289777797183,0.08837551265536205,0.14152201671517634,0.3917877767851233
0.1117868867690783,0.05429648785926659,0.39604497026759167,0.27787026139742316,0.28110134887650334,0.08838165669336051,0.1414956640892229,0.39187786549404474
0.04471475470763132,0.009581733151635281,0.2650946171952428,0.21718595143706637,0.28113981469893595,0.08838781378010155,0.1414694055171064,0.39196832163444917
-0.04471475470763132,0.047908665758176414,0.17885901883052527,0.2587067950941526,0.28117829343271944,0.08839398382495313,0.14144324279702958,0.39205914126764285
-0.4056267034192269,0.03193911050545094,-0.14372599727452925,0.6387822101090188,0.2812167829704677,0.08840016665783902,0.1414171779257602,0.3921503202302776
-0.9677550483151636,-0.12136861992071357,-0.48228056863230917,0.9805306925173439,0.2812552810825315,0.0884063620299203,0.14139121299914134,0.3922418543165503
-0.7377934526759168,-0.1533077304261645,-0.40243279236868185,0.84638642839445,0.2812937858169768,0.08841256965377416,0.14136535026695263,0.39233373962870294
-0.07984777626362735,-0.18844075198216054,-0.1501138193756194,0.35452412661050536,0.28133229580815533,0.08841878926915271,0.1413395922491885,0.3924259728217972
0.303421549801784,-0.1628894635777998,-0.05429648785926659,0.04471475470763132,0.2813708101534118,0.0884250207051989,0.1413139417056824,0.3925185509658073
0.36729977081268583,-0.13095035307234884,-0.04152084365708622,-0.2587067950941526,0.28140932808221375,0.08843126390738545,0.14128840144912666,0.39261147113588857
0.440759724975223,-0.05110257680872151,-0.05110257680872151,-0.4854744796828543,0.2814478488389422,0.08843751891740442,0.14126297417902534,0.3927047301342932
0.373687592913776,0.038326932606541124,-0.047908665758176414,-0.613230921704658,0.281486371764461,0.0884437858144909,0.14123766241772598,0.39279832455165736
0.17247119672943506,0.07026604311199207,0.012775644202180378,-0.5078318570366699,0.28152489633808175,0.0884500646518343,0.14121246849966454,0.39289225099395164
0.11817470887016848,0.05749039890981169,0.006387822101090189,-0.4215962586719524,0.2815634220879908,0.08845635542673745,0.14118739456050014,0.3929865062156308
0.09901124256689792,0.038326932606541124,-0.09262342046580772,-0.878325538899901,0.2816019484321565,0.088462658080584,0.1411624425252175,0.3930810871382752
0.07984777626362735,0.04471475470763132,-0.16608337462834488,-0.6355882990584737,0.2816404745551685,0.08846897249665361,0.14113761413409595,0.3931759909226005
0.019163466303270562,-0.009581733151635281,0.012775644202180378,-0.2619007061446977,0.28167899934728596,0.08847529848718058,0.14111291100314796,0.3932712150559267
-0.07026604311199207,0.11817470887016848,0.1501138193756194,0.025551288404360755,0.2817175213670453,0.08848163578649561,0.1410883346551999,0.39336675720705666
-0.019163466303270562,0.11817470887016848,0.047908665758176414,0.1117868867690783,0.2817560388171734,0.0884879840745303,0.14106388651221466,0.3934626148739719
0.047908665758176414,0.04152084365708622,-0.01596955525272547,0.12136861992071357,0.2817945495379136,0.08849434302031244,0.14103956788157979,0.3935587851159756
-0.12456253097125865,0.09901124256689792,-0.01596955525272547,0.4631171023290387,0.28183305101593836,0.08850071229667407,0.14101537992442725,0.39365526452014726
-0.6643334985133795,0.012775644202180378,-0.2235737735381566,0.7665386521308226,0.28187154047401297,0.08850709156015925,0.14099132363312775,0.3937520493865725
-1.0539906466798812,-0.09262342046580772,-0.45353536917740334,0.9166524715064419,0.28191001517246217,0.08851348042940986,0.14096739991408913,0.3938491360750667
-0.7058543421704658,-0.17885901883052527,-0.3704936818632309,0.5876796333002972,0.2819484728711213,0.08851987848982922,0.14094360978709342,0.39394652133945834
-0.0031939110505450944,-0.25231897299306244,-0.1053990646679881,0.24273723984142714,0.28198691206090726,0.08852628535310096,0.14091995453909667,0.3940442023980989
0.16608337462834488,-0.1565016414767096,0.0,0.07026604311199207,0.2820253316971831,0.08853270074844455,0.14089643566781584,0.394142176672987
0.3704936818632309,-0.2107981293359762,0.047908665758176414,-0.28425808349851334,0.28206373077077124,0.0885391245725628,0.14087305467839675,0.3942404414278908
0.46950492443012876,-0.05429648785926659,0.09262342046580772,-0.3704936818632309,0.2821021081852685,0.08854555687395266,0.14084981293430635,0.39433899359691454
0.4215962586719524,0.07026604311199207,0.18844075198216054,-0.4279840807730426,0.282140462905758,0.0885519977930162,0.14082671164737012,0.3944378298528889
0.2107981293359762,0.06387822101090188,0.1053990646679881,-0.4599231912784935,0.2821787940711491,0.08855844748708853,0.14080375194328376,0.3945369467530623
0.17247119672943506,0.06707213206144698,0.08304168731417244,-0.38646323711595637,0.28221710093649055,0.0885649060819876,0.14078093490601098,0.39463634083368243
0.13733817517343905,0.038326932606541124,0.05429648785926659,-0.39923888131813673,0.2822553827217839,0.08857137365830046,0.14075826156005639,0.3947360086323777
0.14053208622398414,0.05110257680872151,-0.3161971940039643,-0.2810641724479683,0.28229363849103606,0.08857785024314463,0.14073573284963964,0.3948359466571003
0.09262342046580772,0.1469199083250743,0.2076042182854311,-0.2203798624876115,0.28233186709594416,0.08858433580916784,0.14071334969721416,0.39493615131731785
0.01596955525272547,0.1565016414767096,0.22996159563924676,-0.1117868867690783,0.2823700671381151,0.08859083030998366,0.1406911131023843,0.3950366188211622
-0.012775644202180378,0.060684309960356786,0.17885901883052527,-0.012775644202180378,0.2824082369134198,0.08859733373262127,0.14066902417964527,0.3951373450477457
-0.09262342046580772,0.009581733151635281,0.12775644202180375,0.01596955525272547,0.2824463743609994,0.08860384609881863,0.14064708412791402,0.39523832541697324
-0.4918623017839445,0.006387822101090189,-0.047908665758176414,0.35452412661050536,0.282484477102637,0.08861036740179766,0.14062529416999478,0.39533955482603084
-0.8368046952428146,-0.1501138193756194,-0.3609119487115956,0.7665386521308226,0.2825225426734673,0.08861689755363852,0.1406036555041351,0.3954410277820013
-0.613230921704658,-0.2587067950941526,-0.2650946171952428,0.5844857222497523,0.2825605688973671,0.08862343642177468,0.1405821693449344,0.3955427387381958
-0.34174848240832506,-0.2076042182854311,-0.11498079781962338,0.3768815039643211,0.28259855413183965,0.08862998394389517,0.14056083701696695,0.3956446823750302
0.07665386521308225,-0.1628894635777998,-0.028745199454905845,0.09581733151635283,0.2826364971712587,0.08863654022090899,0.1405396599441084,0.3957468535757465
0.32258501610505447,-0.16608337462834488,0.009581733151635281,-0.12456253097125865,0.282674396950747,0.0886431055235152,0.14051863951867707,0.3958492471667526
0.5014440349355798,-0.17247119672943506,0.02235737735381566,-0.33216674925668976,0.2827122523761299,0.08864968025605953,0.14049777697826352,0.3959518576893562
0.5206075012388504,-0.025551288404360755,0.035133021555996034,-0.43437190287413274,0.2827500624093873,0.08865626492219589,0.14047707335524978,0.39605467938292843
0.306615460852329,0.07665386521308225,0.05429648785926659,-0.43437190287413274,0.28278782622769033,0.08866286007196188,0.1404565294784006,0.39615770633409125
0.18205292988107036,0.08623559836471753,0.07345995416253714,-0.35452412661050536,0.2828255432292353,0.08866946623921784,0.14043614599574689,0.39626093261424195
0.1469199083250743,0.06707213206144698,0.05749039890981169,-0.29703372770069375,0.2828632128788029,0.08867608391713573,0.14041592340051437,0.396364352303448
0.11498079781962338,0.047908665758176414,0.04152084365708622,-0.2619007061446977,0.28290083453700016,0.0886827135606298,0.1403958620455413,0.3964679594287874
0.1053990646679881,0.10220515361744302,-0.07345995416253714,-0.6739152316650149,0.2829384073595674,0.08868935558227227,0.14037596214235942,0.39657174792777256
0.13414426412289396,0.1628894635777998,0.7729264742319127,0.07026604311199207,0.28297593025574785,0.08869601036216694,0.14035622382973806,0.39667571170094795
0.13414426412289396,0.07345995416253714,0.574903989098117,0.14053208622398414,0.28301340188223867,0.08870267828543808,0.1403366474367588,0.39677984460624294
0.060684309960356786,0.01596955525272547,0.3704936818632309,0.14053208622398414,0.28305082065023457,0.08870935975627303,0.1403172337995925,0.3968841402932759
-0.02235737735381566,0.028745199454905845,0.24273723984142714,0.22676768458870167,0.2830881847077047,0.08871605515341237,0.1402979843203253,0.39698859206291437
-0.36729977081268583,0.009581733151635281,-0.038326932606541124,0.6451700322101089,0.2831254919226118,0.08872276477155647,0.14027890076091726,0.39709319291616946
-0.9645611372646183,-0.09901124256689792,-0.4152084365708622,1.0028880698711595,0.2831627400281376,0.08872948880045774,0.14025998502226059,0.3971979358127878
-0.7250178084737363,-0.14053208622398414,-0.4088206144697721,0.8719377167988107,0.2831999270108807,0.08873622735343084,0.140241239099002,0.3973028140740669
-0.10859297571853319,-0.1628894635777998,-0.18524684093161545,0.4184023476214073,0.283237051430677,0.088742980532438,0.14022266518073437,0.39740782166057415
0.2076042182854311,-0.10859297571853319,-0.07345995416253714,0.11817470887016848,0.28327411230806615,0.08874974848841281,0.1402042656734433,0.3975129530607746
0.2810641724479683,-0.19482857408325072,-0.07345995416253714,-0.23954332879088208,0.28331110877006294,0.0887565314454174,0.1401860430567194,0.39761820289967614
0.3641058597621407,-0.1117868867690783,-0.05749039890981169,-0.4088206144697721,0.2833480398809673,0.08876332970588167,0.14016799972878116,0.39772356563838157
0.36729977081268583,-0.019163466303270562,-0.028745199454905845,-0.5142196791377601,0.2833849046971876,0.08877014363939206,0.14015013793364348,0.3978290355633757
0.2076042182854311,0.07984777626362735,-0.09581733151635283,-0.4631171023290387,0.2834217023393785,0.08877697363153855,0.14013245973855445,0.39793460694171895
0.1501138193756194,0.06707213206144698,-0.09581733151635283,-0.38646323711595637,0.28345843196526943,0.08878382002834663,0.14011496703959384,0.39804027413298765
0.11817470887016848,0.05429648785926659,-0.13733817517343905,-0.7537630079286421,0.28349509266054107,0.08879068312204275,0.14009766159435605,0.3981460316216208
0.08623559836471753,0.07345995416253714,-0.24593115089197226,-0.4311779918235877,0.2835316833299466,0.08879756315588154,0.14008054507355833,0.3982518740721792
0.06707213206144698,0.08942950941526263,-0.05429648785926659,-0.303421549801784,0.28356820263003696,0.08880446032735795,0.1400636191161389,0.39835779636825475
0.07026604311199207,0.1533077304261645,0.11817470887016848,-0.18205292988107036,0.2836046489298619,0.08881137480618469,0.14004688534056872,0.3984637934958149
0.07665386521308225,0.07665386521308225,0.07026604311199207,-0.047908665758176414,0.2836410202911738,0.08881830676740941,0.14003034529981934,0.3985698603188915
0.05749039890981169,-0.02235737735381566,0.07026604311199207,-0.025551288404360755,0.2836773144656591,0.0888252564014657,0.14001400043707168,0.3986759913771482
-0.13095035307234884,0.006387822101090189,-0.0031939110505450944,0.3193911050545094,0.28371352890305845,0.08883222387314292,0.139997852059131,0.3987821807744264
-0.6387822101090188,-0.10220515361744302,-0.28425808349851334,0.6866908758671952,0.28374966082554,0.08883920927011875,0.13998190132726362,0.3988884222589427
-0.983724603567889,-0.17885901883052527,-0.4663110133795837,0.8879072720515362,0.2837857074971485,0.08884621261096957,0.13996614934200854,0.39899470953983607
-0.6930786979682854,-0.20121639618434092,-0.34174848240832506,0.6547517653617443,0.2838216666496315,0.08885323392218072,0.1399505973392454,0.39910103666799823
0.0031939110505450944,-0.2076042182854311,-0.08623559836471753,0.27787026139742316,0.28385753669946073,0.08886027332717046,0.13993524682256925,0.39920739819157164
0.22676768458870167,-0.13733817517343905,-0.01596955525272547,0.025551288404360755,0.28389331650577077,0.08886733109219315,0.139920099478395,0.3993137889564577
0.373687592913776,-0.1469199083250743,0.0031939110505450944,-0.24593115089197226,0.2839290049849904,0.08887440761747493,0.13990515696559375,0.3994202037366175
0.47269883548067393,-0.04152084365708622,0.0,-0.3130032829534192,0.2839646010113131,0.08888150339237215,0.13989042075885488,0.39952663701296887
0.4439536360257681,0.04152084365708622,-0.02235737735381566,-0.38965714816650143,0.2840001035579415,0.08888861893211601,0.13987589209305837,0.3996330830058721
0.1596955525272547,0.09901124256689792,0.10859297571853319,-0.4184023476214073,0.28403551179281833,0.08889575471866935,0.13986157197029908,0.39973953581204197
0.1117868867690783,0.07665386521308225,0.08942950941526263,-0.35133021555996036,0.28407082499688535,0.08890291118143122,0.13984746120539876,0.39984598950345573
0.09262342046580772,0.05429648785926659,0.05110257680872151,-0.41201452552031714,0.2841060423756564,0.08891008871035438,0.13983356047594675,0.3999524381610904
0.11817470887016848,0.006387822101090189,-0.24273723984142714,-0.4088206144697721,0.2841411629152192,0.08891728765249961,0.1398198703524115,0.4000588758781816
0.14372599727452925,0.1053990646679881,0.18844075198216054,-0.2619007061446977,0.2841761853412083,0.08892450828766829,0.13980639134721587,0.40016529675726015
0.1533077304261645,0.13095035307234884,0.2139920403865213,-0.13095035307234884,0.28421110813680267,0.08893175083159541,0.13979312399140925,0.4002716948563234
0.18524684093161545,0.019163466303270562,0.13414426412289396,0.02235737735381566,0.28424592957650935,0.08893901547273358,0.13978006887521896,0.40037806404856746
0.09901124256689792,0.006387822101090189,0.07345995416253714,0.038326932606541124,0.28428064775171197,0.08894630237665839,0.13976722662251428,0.4004843978526472
-0.4279840807730426,0.025551288404360755,-0.09581733151635283,0.43756581392467786,0.28431526059706314,0.08895361163794677,0.13975459782710906,0.4005906893561658
-1.0028880698711595,-0.09901124256689792,-0.38646323711595637,0.8431925173439048,0.284349766039283,0.08896094324766009,0.13974218302620856,0.40069693137159557
-0.8974890052031714,-0.19163466303270565,-0.306615460852329,0.5844857222497523,0.2843841623700323,0.08896829712771448,0.13972998278754303,0.40080311680045844
-0.41201452552031714,-0.20121639618434092,-0.18524684093161545,0.3800754150148662,0.2844184486046427,0.08897567321746733,0.13971799783735248,0.40090923890393343
0.08942950941526263,-0.20441030723488604,-0.06707213206144698,0.13414426412289396,0.2844526244445605,0.08898307156135996,0.13970622906746333,0.40101529124038005
0.3002276387512388,-0.11498079781962338,-0.035133021555996034,-0.05749039890981169,0.28448668989532194,0.08899049234821535,0.13969467741046498,0.4011212673795083
0.373687592913776,0.07665386521308225,0.1501138193756194,-0.5142196791377601,0.28452064496538587,0.08899793588507558,0.13968334371444394,0.4012271606708874
0.3130032829534192,0.07026604311199207,0.13414426412289396,-0.4471475470763132,0.2845544896392571,0.08900540253009998,0.13967222871110677,0.40133296425910675
0.25231897299306244,0.06387822101090188,0.10859297571853319,-0.3641058597621407,0.2845882239414635,0.08901289263210323,0.1396613330517067,0.40143867126535443
0.20121639618434092,0.04471475470763132,0.08623559836471753,-0.303421549801784,0.2846218479211079,0.08902040649915963,0.13965065732820048,0.4015442748808775
0.2076042182854311,0.09901124256689792,0.07984777626362735,-0.21718595143706637,0.28465536158081645,0.08902794438716417,0.13964020205487873,0.4016497683049376
0.2874519945490585,0.047908665758176414,0.07984777626362735,-0.16927728567888997,0.2846887648287586,0.08903550650247251,0.13962996764259092,0.4017551446337904
0.27148243929633303,-0.0031939110505450944,0.08623559836471753,-0.1628894635777998,0.2847220574876229,0.08904309300203576,0.13961995438605462,0.40186039676259977
0.19482857408325072,-0.0031939110505450944,0.047908665758176414,-0.05110257680872151,0.2847552393262929,0.08905070396638497,0.139610162459718,0.4019655173093473
0.13414426412289396,-0.0031939110505450944,-0.0031939110505450944,0.1533077304261645,0.2847883100475045,0.08905833936041373,0.13960059190352242,0.4020704985563774
-0.09901124256689792,-0.04471475470763132,-0.009581733151635281,0.1596955525272547,0.28482126921924517,0.08906599901703263,0.13959124258854846,0.4021753324250357
-0.12456253097125865,0.006387822101090189,0.03193911050545094,0.12775644202180375,0.28485411619957357,0.08907368264733644,0.13958211418416905,0.40228001049736944
-0.39285105921704655,0.0031939110505450944,-0.1053990646679881,0.4982501238850346,0.2848868501247161,0.08908138985154777,0.13957320615970792,0.40238452407856573
-0.983724603567889,-0.09901124256689792,-0.4247901697224975,0.8368046952428146,0.28491947006895624,0.08908912012270044,0.13956451785799584,0.40248886437228093
-0.7984777626362735,-0.1053990646679881,-0.38965714816650143,0.648363943260654,0.2849519754182411,0.0890968728734205,0.1395560486692678,0.40259302279909037
-0.21718595143706637,-0.11498079781962338,-0.1565016414767096,0.1117868867690783,0.28498436618613077,0.08910464749128841,0.13954779820993635,0.4026969912057394
0.17247119672943506,-0.1565016414767096,0.019163466303270562,-0.16608337462834488,0.28501664292151796,0.08911244338744057,0.1395397663256207,0.40280076171452944
0.373687592913776,-0.17566510777998018,0.06707213206144698,-0.3641058597621407,0.28504880635055163,0.08912026003141615,0.13953195292098441,0.4029043264088031
0.5397709675421208,-0.06707213206144698,0.11817470887016848,-0.4311779918235877,0.28508085719902254,0.08912809697555475,0.13952435780899888,0.40300767722351805
0.613230921704658,-0.035133021555996034,0.1469199083250743,-0.511025768087215,0.2851127963067766,0.08913595383671075,0.13951698068702997,0.4031108060662844
0.18524684093161545,0.09581733151635283,0.11817470887016848,-0.35452412661050536,0.28514462478252495,0.08914383023721659,0.13950982118183328,0.4032137049552627
0.09901124256689792,0.08623559836471753,0.08304168731417244,-0.28425808349851334,0.2851763439518185,0.08915172576871577,0.13950287887716287,0.40331636604248605
0.07665386521308225,0.08623559836471753,0.01596955525272547,-0.475892746531219,0.2852079551142144,0.08915964000133281,0.1394961532937239,0.40341878155069666
0.060684309960356786,0.08942950941526263,-0.10220515361744302,-0.32258501610505447,0.2852394593250742,0.089167572499177,0.1394896438438482,0.40352094373897845
0.038326932606541124,0.09581733151635283,0.2587067950941526,0.19163466303270565,0.2852708573034528,0.08917552282448601,0.13948334982642044,0.40362284490011674
-0.03193911050545094,0.1628894635777998,0.4982501238850346,0.5238014122893954,0.2853021494020117,0.0891834905475654,0.13947727053298917,0.40372447732097216
-0.10220515361744302,0.10220515361744302,0.4982501238850346,0.39285105921704655,0.28533333559598684,0.08919147527168571,0.1394714054579931,0.40382583328269556
-0.11498079781962338,0.047908665758176414,0.3449423934588701,0.1565016414767096,0.285364415503861,0.08919947664553553,0.13946575448825657,0.4039269051155626
-0.1533077304261645,0.07665386521308225,0.13414426412289396,0.3704936818632309,0.28539538843798823,0.0892074943356596,0.1394603179245664,0.40402768516836524
-0.6547517653617443,-0.03193911050545094,-0.24593115089197226,0.6962726090188306,0.285426253506893,0.08921552798453188,0.13945509633837078,0.4041281657678125
-1.0284393582755202,-0.16927728567888997,-0.5014440349355798,0.8336107841922695,0.2854570098825626,0.08922357719677795,0.13945009045360948,0.40422833937917635
-0.7537630079286421,-0.19482857408325072,-0.38965714816650143,0.5557405227948463,0.28548765722414765,0.08923164157530805,0.139445301200473,0.40432819888002325
-0.012775644202180378,-0.22996159563924676,-0.1533077304261645,0.19802248513379583,0.2855181959064657,0.08923972079975417,0.1394407298167041,0.40442773763873857
0.3098093719028741,-0.14372599727452925,-0.06707213206144698,-0.05110257680872151,0.28554862678429344,0.08924781469405395,0.139436377787365,0.40452694927850624
0.4279840807730426,-0.13414426412289396,-0.035133021555996034,-0.36729977081268583,0.2855789508110812,0.08925592323335943,0.1394322466485433,0.4046258273463583
0.5876796333002972,-0.07345995416253714,0.025551288404360755,-0.5142196791377601,0.2856091689576276,0.08926404649804674,0.13942833782078398,0.4047243652014719
0.6611395874628344,-0.09262342046580772,0.04152084365708622,-0.6228126548562933,0.2856392823922062,0.08927218461488322,0.1394246525338094,0.4048225561784057
0.16608337462834488,0.08304168731417244,-0.03193911050545094,-0.4854744796828543,0.2856692926247138,0.08928033771550077,0.1394211918083419,0.40492039381032674
0.12136861992071357,0.07665386521308225,-0.035133021555996034,-0.40243279236868185,0.2856992014210043,0.08928850591868813,0.1394179564583069,0.4050178719158923
0.09901124256689792,0.060684309960356786,-0.025551288404360755,-0.4439536360257681,0.28572901053590555,0.08929668932253884,0.1394149470939525,0.40511498454397277
0.08623559836471753,0.025551288404360755,-0.373687592913776,-1.1018993124380576,0.2857587214931676,0.08930488798963251,0.1394121641545677,0.40521172595967236
0.12456253097125865,0.028745199454905845,0.3098093719028741,0.3641058597621407,0.2857883355097355,0.08931310192166188,0.1394096080341892,0.4053080908033549
0.12456253097125865,0.01596955525272547,0.3161971940039643,0.40243279236868185,0.2858178534950452,0.08932133103324685,0.13940727925648988,0.40540407419334173
-0.17247119672943506,-0.035133021555996034,0.20441030723488604,0.2555128840436075,0.2858472760756747,0.08932957513698692,0.13940517856070841,0.40549967155008454
-0.18205292988107036,-0.07984777626362735,0.12456253097125865,0.07026604311199207,0.2858766036329004,0.08933783394728526,0.1394033068596338,0.4055948783179396
-0.39604497026759167,-0.038326932606541124,-0.1533077304261645,0.45672928022794845,0.2859058363625085,0.08934610710171258,0.139401665139929,0.4056896897896011
-0.8431925173439048,-0.03193911050545094,-0.4599231912784935,0.8942950941526264,0.2859349744277734,0.08935439417771347,0.13940025441251336,0.4057841011404722
-0.7697325631813676,-0.08304168731417244,-0.39923888131813673,0.6419761211595639,0.2859640182580658,0.08936269469115161,0.1393990757995228,0.4058781077142934
-0.45353536917740334,-0.09901124256689792,-0.23634941774033696,0.33855457135777994,0.2859929688283681,0.08937100810321864,0.13939813067414683,0.40597170527941556
0.07345995416253714,-0.09581733151635283,-0.07984777626362735,0.060684309960356786,0.2860218276422513,0.0893793338503813,0.13939742066423197,0.406064889938634
0.4056267034192269,-0.18205292988107036,-0.0031939110505450944,-0.11817470887016848,0.2860505964398079,0.08938767138032482,0.1393969474916283,0.40615765779142854
0.5876796333002972,-0.2203798624876115,0.038326932606541124,-0.373687592913776,0.2860792769899207,0.08939602019810991,0.1393967127845146,0.40625000467885164
0.5812918111992071,-0.0031939110505450944,0.1533077304261645,-0.5078318570366699,0.28610787117442876,0.08940437990941068,0.139396717982587,0.4063419261967507
0.3161971940039643,0.12136861992071357,0.06707213206144698,-0.6260065659068385,0.2861363811551482,0.08941275020162853,0.13939696435150822,0.4064334179072253
0.1596955525272547,0.1628894635777998,0.028745199454905845,-0.5461587896432111,0.2861648093502113,0.08942113078950807,0.1393974530212129,0.4065244755599179
0.12456253097125865,0.08942950941526263,0.02235737735381566,-0.4471475470763132,0.2861931582271522,0.08942952141193317,0.1393981849702218,0.40661509519427147
0.10220515361744302,0.060684309960356786,0.01596955525272547,-0.3800754150148662,0.286221430092257,0.0894379218491381,0.13939916098029947,0.4067052731030791
0.05749039890981169,0.047908665758176414,-0.07345995416253714,-0.4631171023290387,0.28624962697346884,0.08944633189458102,0.1394003816156355,0.4067950057342629
0.13733817517343905,0.11817470887016848,0.3161971940039643,-0.09901124256689792,0.28627775057343113,0.08945475131554771,0.13940184726194854,0.40688428960102446
0.3257789271555996,-0.02235737735381566,0.2619007061446977,-0.03193911050545094,0.28630580228566965,0.08946317984587536,0.13940355824798378,0.406973121146857
0.2810641724479683,-0.04152084365708622,0.1565016414767096,-0.009581733151635281,0.286333783294794,0.08947161718435391,0.13940551497738185,0.4070614965337733
0.1501138193756194,0.025551288404360755,0.07665386521308225,0.1565016414767096,0.2863616946855849,0.08948006297155783,0.13940771794668513,0.40714941148154316
-0.4247901697224975,0.02235737735381566,-0.1533077304261645,0.6707213206144698,0.28638953747502655,0.08948851676521173,0.139410167661516,0.40723686130802594
-1.1785531776511398,-0.07026604311199207,-0.4503414581268582,1.0539906466798812,0.28641731271726556,0.08949697803386591,0.13941286460225602,0.40732384124230203
-0.8942950941526264,-0.10859297571853319,-0.4215962586719524,0.9581733151635283,0.2864450218709977,0.08950544617444754,0.1394158093396376,0.4074103469184841
-0.2491250619425173,-0.1565016414767096,-0.20121639618434092,0.5461587896432111,0.2864726671509419,0.08951392055792495,0.13941900269472726,0.4074963747281314
0.06707213206144698,-0.14053208622398414,-0.0031939110505450944,0.07984777626362735,0.286500251401367,0.08952240058719241,0.13942244573580947,0.4075819217465454
0.2619007061446977,-0.18524684093161545,-0.03193911050545094,-0.306615460852329,0.2865277776229009,0.08953088574197385,0.13942613959014105,0.40766698532506357
0.4184023476214073,-0.13095035307234884,-0.04152084365708622,-0.49505621283448964,0.2865552486776651,0.0895393756026194,0.13943008525197384,0.40775156275414265
0.4599231912784935,0.028745199454905845,0.04471475470763132,-0.5014440349355798,0.2865826673358851,0.08954786984202641,0.13943428350727646,0.4078356512497722
0.2235737735381566,0.12136861992071357,0.09262342046580772,-0.511025768087215,0.2866100364186455,0.08955636817787355,0.13943873494024714,0.4079192481104558
0.1501138193756194,0.09901124256689792,0.07345995416253714,-0.43437190287413274,0.28663735880161223,0.08956487032963852,0.13944343996134695,0.4080023508111467
0.13095035307234884,0.09901124256689792,-0.04152084365708622,-0.4247901697224975,0.28666463727766567,0.08957337601889916,0.13944839882934465,0.4080849569965796
0.09901124256689792,0.07026604311199207,-0.07665386521308225,-0.5653222559464817,0.28669187441745997,0.08958188497950392,0.1394536116523478,0.4081670644487702
0.17885901883052527,0.05110257680872151,0.05110257680872151,-0.47908665758176416,0.2867190725057226,0.08959039694474075,0.1394590783798878,0.4082486710969943
0.32897283820614465,0.06387822101090188,0.17566510777998018,-0.2139920403865213,0.2867462335579317,0.0895989116223719,0.1394647988136694,0.4083297750272779
0.3704936818632309,-0.09581733151635283,0.1053990646679881,-0.05429648785926659,0.2867733594185298,0.08960742868087931,0.13947077264686192,0.40841037436581495
0.2810641724479683,-0.08304168731417244,0.025551288404360755,0.02235737735381566,0.28680045188563963,0.08961594775846528,0.1394769994965935,0.40849046704054137
-0.01596955525272547,0.07345995416253714,0.0031939110505450944,0.39604497026759167,0.28682751274118135,0.0896244684793167,0.13948347887698836,0.4085700506052499
-0.7665386521308226,0.04152084365708622,-0.2107981293359762,0.7825082073835481,0.2868545436996537,0.08963299045325206,0.13949021015074736,0.4086491223221222
-1.2296557544598612,-0.05110257680872151,-0.4184023476214073,0.9996941588206144,0.28688154655956616,0.08964151325717035,0.1394971925812078,0.40872767952623146
-0.9326220267591674,-0.12456253097125865,-0.306615460852329,0.8176412289395442,0.28690852367608927,0.08965003642297814,0.13950442550730793,0.4088057200566183
-0.1596955525272547,-0.13414426412289396,-0.07665386521308225,0.4088206144697721,0.2869354782950954,0.08965855945997184,0.13951190847526843,0.40888324245008306
0.12775644202180375,-0.08623559836471753,0.035133021555996034,0.006387822101090189,0.2869624143157105,0.08966708189753314,0.13951964117771037,0.40896024574909606
0.28425808349851334,-0.13095035307234884,0.02235737735381566,-0.45672928022794845,0.28698933576380353,0.08967560330552646,0.1395276232774115,0.4090367290955325
0.40243279236868185,-0.06387822101090188,0.047908665758176414,-0.7090482532210107,0.2870162465153376,0.08968412328751309,0.13953585428145707,0.40911269151893437
0.3161971940039643,0.04471475470763132,0.07026604311199207,-0.7569569189791873,0.2870431503393001,0.08969264146080272,0.13954433351003387,0.4091881321068602
0.17885901883052527,0.09262342046580772,0.09901124256689792,-0.3353606603072349,0.28707005097820903,0.08970115742726235,0.13955306011667248,0.40926305026348375
0.13733817517343905,0.07345995416253714,0.07984777626362735,-0.2650946171952428,0.28709695210171876,0.08970967075756318,0.13956203312175955,0.40933744570381114
0.1117868867690783,0.060684309960356786,0.05429648785926659,-0.32897283820614465,0.28712385718723926,0.08971818099698012,0.13957125143256227,0.409411318226394
0.14372599727452925,0.028745199454905845,-0.23634941774033696,-0.18205292988107036,0.28715076943029466,0.08972668766338628,0.13958071385491908,0.4094846675236761
0.17247119672943506,0.10859297571853319,0.18844075198216054,0.08304168731417244,0.28717769171963525,0.0897351902329409,0.13959041914116585,0.4095574930867834
0.1053990646679881,0.10220515361744302,0.2587067950941526,0.3193911050545094,0.2872046266510569,0.08974368814576535,0.13960036607308426,0.40962979412639455
-0.035133021555996034,0.04471475470763132,0.13414426412289396,0.2107981293359762,0.2872315765256043,0.08975218083128064,0.13961055351664955,0.4097015695504834
-0.1501138193756194,-0.038326932606541124,0.02235737735381566,0.13414426412289396,0.28725854331328093,0.08976066770968226,0.13962098040150897,0.40977281800479826
-0.5621283448959365,-0.09262342046580772,-0.20121639618434092,0.4311779918235877,0.28728552867849033,0.08976914816685504,0.13963164564431665,0.4098435378954377
-0.8687438057482655,-0.16608337462834488,-0.4503414581268582,0.6962726090188306,0.2873125342066037,0.08977762155654775,0.1396425481359602,0.40991372747003096
-0.6643334985133795,-0.20121639618434092,-0.35133021555996036,0.4854744796828543,0.2873395617802097,0.08978608725620921,0.1396536868771155,0.40998338503493614
-0.14053208622398414,-0.16608337462834488,-0.17247119672943506,0.29703372770069375,0.28736661379243944,0.08979454473980977,0.13966506112361443,0.41005250911612856
0.3257789271555996,-0.14053208622398414,-0.03193911050545094,0.0031939110505450944,0.2873936929935535,0.08980299361428679,0.13967667035568282,0.4101210983637921
0.39923888131813673,-0.12136861992071357,0.03193911050545094,-0.18844075198216054,0.2874208022103758,0.08981143360600685,0.13968851410200112,0.41018915128996614
0.3353606603072349,-0.08304168731417244,0.1628894635777998,-0.373687592913776,0.2874479442520357,0.08981986452274666,0.13970059179131009,0.41025666609719524
0.1053990646679881,-0.006387822101090189,0.2491250619425173,-0.4663110133795837,0.28747512192648145,0.08982828620579074,0.139712902741294,0.4103236407402111
0.20121639618434092,0.09262342046580772,0.12456253097125865,-0.48228056863230917,0.2875023379697048,0.08983669847601604,0.13972544624393585,0.41039007311840636
0.19802248513379583,0.10220515361744302,0.06387822101090188,-0.39604497026759167,0.28752959493230773,0.08984510110739509,0.13973822161245672,0.4104559612182808
0.1565016414767096,0.07345995416253714,0.047908665758176414,-0.33216674925668976,0.2875568951373696,0.08985349384537193,0.13975122812966953,0.41052130313599006
0.12775644202180375,0.060684309960356786,0.038326932606541124,-0.28425808349851334,0.2875842406779095,0.08986187642648572,0.13976446496632006,0.41058609701187904
0.13733817517343905,0.05749039890981169,-0.14053208622398414,-0.3193911050545094,0.2876116333940532,0.08987024856867003,0.13977793114428233,0.410650340946329
0.11817470887016848,0.13414426412289396,0.20121639618434092,-0.23634941774033696,0.2876390748456671,0.08987860996016991,0.13979162556671734,0.41071403294568004
0.028745199454905845,0.1469199083250743,0.1565016414767096,-0.09581733151635283,0.2876665662910289,0.08988696028135267,0.13980554709311765,0.4107771708742945
0.0031939110505450944,0.07026604311199207,0.09581733151635283,-0.05429648785926659,0.2876941086442843,0.08989529924437062,0.13981969459061003,0.41083975235990167
0.006387822101090189,0.0,0.012775644202180378,0.07345995416253714,0.28772170241296724,0.08990362659298501,0.13983406690974645,0.4109017746736712
-0.3800754150148662,0.012775644202180378,-0.23634941774033696,0.6228126548562933,0.28774934769059196,0.08991194204406767,0.1398486628276742,0.4109632347107265
-0.9230402936075321,-0.08623559836471753,-0.5046379459861249,1.0763480240336967,0.28777704434351575,0.08992024523098474,0.1398634810857404,0.4110241292345512
-0.7314056305748264,-0.08623559836471753,-0.33216674925668976,1.0124698030227948,0.2878047924212838,0.08992853570623477,0.13987852056874311,0.4110844553707785
-0.1501138193756194,-0.1501138193756194,-0.02235737735381566,0.47269883548067393,0.2878325924828148,0.08993681298972425,0.13989378043989534,0.41114421100217174
0.23954332879088208,-0.17247119672943506,0.14372599727452925,-0.009581733151635281,0.28786044550679885,0.08994507662582758,0.13990926005353937,0.41120339469482725
0.29064590559960357,-0.17885901883052527,0.12456253097125865,-0.3641058597621407,0.28788835256558665,0.08995332623642903,0.13992495877668404,0.4112620052490255
0.5142196791377601,-0.2203798624876115,0.1117868867690783,-0.5365770564915758,0.287916314673475,0.08996156156383359,0.13994087591404267,0.4113200413662951
0.5685161669970267,-0.08623559836471753,0.05110257680872151,-0.5908735443508424,0.28794433288710874,0.08996978249043713,0.13995701070403843,0.4113775016977595
0.2076042182854311,0.09581733151635283,0.07665386521308225,-0.4184023476214073,0.28797240844867583,0.08997798901423973,0.13997336229575194,0.4114343850419809
0.12456253097125865,0.08623559836471753,0.060684309960356786,-0.3353606603072349,0.28800054275795395,0.08998618118863899,0.13998992971669053,0.4114906904007052
0.10220515361744302,0.07665386521308225,-0.05110257680872151,-0.7250178084737363,0.28802873716859334,0.08999435907461371,0.14000671185776187,0.4115464169191927
0.07665386521308225,0.07984777626362735,-0.028745199454905845,-0.25231897299306244,0.288056992795128,0.09000252272238282,0.140023707464374,0.41160156387965124
0.11498079781962338,0.12456253097125865,0.12456253097125865,-0.14053208622398414,0.288085310430545,0.09001067216879327,0.14004091513016875,0.4116561306830333
0.14372599727452925,0.2076042182854311,0.23954332879088208,-0.21718595143706637,0.288113690537446,0.09001880746005549,0.14005833332945003,0.4117101166802215
0.05749039890981169,0.13095035307234884,0.1628894635777998,-0.1501138193756194,0.28814213326624144,0.09002692870249637,0.14007596050217605,0.4117635209865309
0.0031939110505450944,0.04152084365708622,0.16608337462834488,0.012775644202180378,0.28817063845056473,0.09003503608902579,0.14009379512677209,0.41181634240232906
-0.02235737735381566,-0.06707213206144698,0.035133021555996034,0.2938398166501486,0.28819920555805956,0.09004312985758224,0.14011183571738633,0.4118685793726397
-0.5780979001486619,-0.13095035307234884,-0.2938398166501486,0.5333831454410307,0.28822783369540117,0.090051210232969,0.1401300807810714,0.41192023002706585
-1.0444089135282455,-0.1501138193756194,-0.5046379459861249,0.7537630079286421,0.28825652185582584,0.09005927742641687,0.1401485288562029,0.4119712924027093
-0.7250178084737363,-0.09262342046580772,-0.38646323711595637,0.48866839073339935,0.2882852693946941,0.09006733167588808,0.1401671786817228,0.4120217647400019
-0.16608337462834488,-0.05749039890981169,-0.06387822101090188,0.05749039890981169,0.2883140763330995,0.0900753732582567,0.14018602932657095,0.41207164558330284
0.19482857408325072,-0.2235737735381566,0.07665386521308225,-0.2746763503468781,0.28834294318247067,0.09008340247135334,0.14020508009880198,0.4121209335854369
0.5238014122893954,-0.39604497026759167,0.10220515361744302,-0.4311779918235877,0.28837187057694347,0.09009141967369463,0.14022433033673093,0.412169627274362
0.43437190287413274,-0.2587067950941526,0.1117868867690783,-0.4088206144697721,0.28840085915949026,0.09009942541397027,0.140243779290495,0.4122177250476822
0.29703372770069375,-0.012775644202180378,0.10220515361744302,-0.2874519945490585,0.288429909681585,0.09010742051180072,0.14026342611479176,0.4122652252879221
0.1469199083250743,0.14372599727452925,0.03193911050545094,-0.2139920403865213,0.28845902301174287,0.0901154059739062,0.14028326987656037,0.41231212637780074
0.1117868867690783,0.11817470887016848,0.02235737735381566,-0.18205292988107036,0.28848819998961645,0.09012338286008305,0.14030330952891487,0.4123584266054064
0.09581733151635283,0.10220515361744302,0.0031939110505450944,-0.18205292988107036,0.2885174412624137,0.09013135223837328,0.14032354386391704,0.41240412406228893
0.04152084365708622,0.08304168731417244,-0.4088206144697721,-0.1628894635777998,0.2885467471847947,0.090139315188792,0.14034397151335265,0.41244921658675016
0.04152084365708622,0.1533077304261645,0.038326932606541124,-0.13733817517343905,0.28857611776518105,0.09014727279588287,0.14036459105073007,0.41249370173925987
0.18844075198216054,0.11498079781962338,0.08942950941526263,-0.19802248513379583,0.28860555264445953,0.09015522615219376,0.14038540108082603,0.4125375767894201
0.1596955525272547,0.02235737735381566,0.06707213206144698,-0.16608337462834488,0.2886350511334039,0.090163176366014,0.1404064001969333,0.41258083871953816
0.12136861992071357,-0.028745199454905845,-0.019163466303270562,-0.1117868867690783,0.2886646122831657,0.09017112452886801,0.1404275868934458,0.41262348423589684
-0.3800754150148662,0.01596955525272547,-0.10859297571853319,0.3641058597621407,0.28869423493984064,0.09017907165515093,0.14044895952863629,0.41266550977988087
-0.849580339444995,-0.05110257680872151,-0.23634941774033696,0.7377934526759168,0.28872391787408413,0.0901870186458999,0.14047051634236826,0.41270691162875667
-0.7761203852824579,-0.1533077304261645,-0.09262342046580772,0.5940674554013875,0.2887536600891441,0.09019496630007352,0.14049225552476022,0.41274768615190194
-0.32897283820614465,-0.18205292988107036,0.038326932606541124,0.4311779918235877,0.2887834611139728,0.09020291537441598,0.1405141752602873,0.412787830047733
0.07665386521308225,-0.14372599727452925,0.07345995416253714,0.1596955525272547,0.2888133209613186,0.09021086666302595,0.14053627368507354,0.4128273403354262
0.23315550668979185,-0.1117868867690783,0.07345995416253714,-0.07026604311199207,0.2888432397951397,0.09021882103828653,0.14055854882668078,0.41286621412301605
0.4247901697224975,-0.10859297571853319,0.047908665758176414,-0.28425808349851334,0.288873217680866,0.09022677943557376,0.14058099858902032,0.4129044483585868
0.43437190287413274,0.009581733151635281,0.028745199454905845,-0.38646323711595637,0.2889032546119053,0.09023474281074192,0.14060362075110486,0.4129420397537141
0.24273723984142714,0.07665386521308225,0.05749039890981169,-0.35452412661050536,0.2889333506431123,0.0902427120899663,0.1406264129531872,0.41297898488777923
0.13095035307234884,0.07665386521308225,0.05110257680872151,-0.2682885282457879,0.2889635058995704,0.09025068813429198,0.14064937268869881,0.41301528032356655
0.10220515361744302,0.05110257680872151,0.035133021555996034,-0.21718595143706637,0.288993720440499,0.0902586717384029,0.14067249730960912,0.41305092261174603
0.08623559836471753,0.038326932606541124,0.03193911050545094,-0.19802248513379583,0.28902399410964785,0.09026666363682527,0.1406957840280153,0.4130859082178366
0.18524684093161545,0.019163466303270562,-0.18524684093161545,-0.2587067950941526,0.2890543264637582,0.09027466448967125,0.14071922992328054,0.4131202334568529
0.19482857408325072,0.12136861992071357,0.17885901883052527,-0.29064590559960357,0.28908471678523406,0.09028267486893304,0.1407428319944362,0.41315389448396633
0.07026604311199207,0.17247119672943506,0.1501138193756194,-0.23954332879088208,0.2891151641267361,0.09029069528574347,0.14076658724260058,0.4131868873282351
0.1117868867690783,-0.012775644202180378,0.10220515361744302,-0.1596955525272547,0.28914566731311425,0.09029872624620668,0.14079049271070748,0.4132192079082169
0.12456253097125865,-0.19482857408325072,-0.02235737735381566,-0.1117868867690783,0.28917622490353345,0.09030676827453654,0.14081454545253755,0.4132508519877906
-0.3704936818632309,-0.07665386521308225,-0.1501138193756194,0.5014440349355798,0.2892068352014647,0.0903148219086609,0.14083874247479036,0.41328181513580703
-0.9965002477700692,-0.16608337462834488,-0.39285105921704655,1.0476028245787907,0.28923749642593394,0.09032288771163247,0.14086308074336631,0.41331209287003
-0.7026604311199207,-0.19163466303270565,-0.2938398166501486,0.9453976709613479,0.28926820707810097,0.09033096629457604,0.1408875573071208,0.41334168105979907
-0.2203798624876115,-0.12136861992071357,-0.07345995416253714,0.5269953233399406,0.28929896623579576,0.09033905834264966,0.14091216941959378,0.4133705763038869
0.038326932606541124,-0.08623559836471753,-0.012775644202180378,0.4247901697224975,0.2893297734355531,0.09034716462113224,0.14093691449364296,0.41339877593737134
0.303421549801784,-0.047908665758176414,-0.060684309960356786,0.12456253097125865,0.28936062828773734,0.09035528593449739,0.1409617899376853,0.4134262777226264
0.48228056863230917,-0.006387822101090189,-0.012775644202180378,-0.2682885282457879,0.28939153027473896,0.0903634230617703,0.14098679303996817,0.4134530795101135
0.5557405227948463,-0.05110257680872151,0.038326932606541124,-0.47269883548067393,0.2894224788659884,0.09037157670250617,0.14101192093774984,0.4134791790589754
0.1628894635777998,0.09262342046580772,0.13414426412289396,-0.43437190287413274,0.2894534736971346,0.09037974745698456,0.14103717062403262,0.41350457407194136
0.08942950941526263,0.1117868867690783,0.1117868867690783,-0.35452412661050536,0.28948451454570895,0.09038793585179149,0.14106253898599083,0.4135292623194698
0.07345995416253714,0.08623559836471753,0.0,-0.8240290510406343,0.28951560111677505,0.09039614238320032,0.14108802284834332,0.41355324172452507
0.05110257680872151,0.06707213206144698,-0.07984777626362735,-0.3257789271555996,0.2895467328484333,0.09040436753732363,0.14111361896573174,0.4135765104527435
0.02235737735381566,0.07026604311199207,0.09581733151635283,-0.20441030723488604,0.2895779088291476,0.09041261177969778,0.1411393239923995,0.4135990669424723
0.019163466303270562,0.1565016414767096,0.2587067950941526,-0.03193911050545094,0.28960912776583764,0.09042087554596484,0.14116513450699805,0.41362090972229293
-0.035133021555996034,0.10220515361744302,0.17885901883052527,-0.006387822101090189,0.2896403879636516,0.09042915926233354,0.14119104709871655,0.4136420371235051
-0.025551288404360755,0.02235737735381566,0.08623559836471753,-0.07984777626362735,0.28967168732278564,0.09043746336632512,0.1412170584359635,0.41366244708619015
-0.14053208622398414,0.05110257680872151,-0.009581733151635281,0.2587067950941526,0.2897030233579365,0.09044578828058436,0.14124316524042277,0.4136821371187642
-0.6611395874628344,-0.060684309960356786,-0.3130032829534192,0.5844857222497523,0.2897343932998803,0.09045413436613556,0.14126936421740072,0.4137011044224137
-1.025245447224975,-0.14053208622398414,-0.5174135901883052,0.8112534068384538,0.289765794401257,0.09046250191528854,0.14129565210549624,0.41371934617431605
-0.6962726090188306,-0.1565016414767096,-0.35771803766105054,0.5461587896432111,0.28979722439073663,0.09047089119404117,0.14132202587727918,0.4137368598559351
-0.04152084365708622,-0.12775644202180375,-0.12136861992071357,0.14053208622398414,0.2898286816984787,0.09047930249860635,0.1413484828795848,0.4137536433818385
0.2203798624876115,-0.07665386521308225,-0.009581733151635281,-0.035133021555996034,0.2898601652094076,0.09048773617984811,0.14137502074127697,0.4137696948918645
0.2491250619425173,-0.11498079781962338,0.04471475470763132,-0.18205292988107036,0.2898916738562839,0.09049619262349426,0.14140163715009826,0.4137850124059353
0.3161971940039643,-0.05749039890981169,0.06387822101090188,-0.24593115089197226,0.28992320645545716,0.09050467221955764,0.1414283296957882,0.41379959364620383
0.4056267034192269,-0.05749039890981169,0.1053990646679881,-0.4088206144697721,0.2899547617659425,0.09051317533966029,0.14145509583765853,0.41381343608832505
0.2491250619425173,0.060684309960356786,0.12775644202180375,-0.3641058597621407,0.28998633857716594,0.09052170231411175,0.14148193293905933,0.4138265371085133
0.19163466303270565,0.05429648785926659,0.10220515361744302,-0.3098093719028741,0.2900179357230713,0.09053025341461196,0.14150883831024724,0.4138388940967455
0.1533077304261645,0.04152084365708622,0.07665386521308225,-0.36729977081268583,0.2900495520058876,0.09053882884773505,0.1415358092280379,0.41385050448511507
0.10859297571853319,0.025551288404360755,-0.2491250619425173,-0.39923888131813673,0.2900811860924455,0.09054742874698465,0.14156284294125876,0.413861365740235
0.06387822101090188,0.1053990646679881,0.1053990646679881,-0.4215962586719524,0.2901128364353438,0.09055605316591403,0.14158993670173015,0.41387147538600333
-0.012775644202180378,0.12136861992071357,0.14053208622398414,-0.2746763503468781,0.2901445012080815,0.09056470209698075,0.14161708779998894,0.41388083103339846
0.06387822101090188,0.02235737735381566,0.13414426412289396,-0.1565016414767096,0.2901761782480725,0.0905733755079998,0.1416442935587691,0.41388943034251147
0.07665386521308225,-0.09901124256689792,0.060684309960356786,-0.1053990646679881,0.2902078650321104,0.09058207335023451,0.14167155130467693,0.41389727089848277
-0.4215962586719524,-0.03193911050545094,-0.14053208622398414,0.45353536917740334,0.2902395587263398,0.09059079553827738,0.14169885834372298,0.4139043501042827
-0.951785493062438,-0.10220515361744302,-0.41201452552031714,0.8879072720515362,0.290271256398386,0.09059954193921228,0.1417262119773716,0.413910665271521
-0.849580339444995,-0.18205292988107036,-0.3609119487115956,0.7345995416253717,0.2903029554241513,0.09060831238942273,0.14175360962016173,0.4139162139464696
-0.3609119487115956,-0.20121639618434092,-0.2874519945490585,0.5876796333002972,0.2903346538382656,0.0906171067500113,0.14178104895242802,0.4139209942150112
0.1053990646679881,-0.14372599727452925,-0.14372599727452925,0.2746763503468781,0.29036635028901286,0.09062592497519921,0.1418085279569447,0.41392500472020377
0.28425808349851334,-0.12456253097125865,0.06387822101090188,-0.11817470887016848,0.2903980436754586,0.09063476713547303,0.14183604481483988,0.41392824441534604
0.5078318570366699,-0.16927728567888997,0.2107981293359762,-0.3832693260654113,0.29042973288734764,0.0906436333943613,0.14186359776923607,0.4139307122716528
0.5972613664519327,-0.038326932606541124,0.2682885282457879,-0.4215962586719524,0.29046141685812427,0.0906525239800222,0.14189118507781423,0.4139324071588635
0.35133021555996036,0.08304168731417244,0.16608337462834488,-0.39285105921704655,0.2904930947491543,0.09066143915080506,0.141918805065511,0.4139333279225232
0.17885901883052527,0.09262342046580772,0.09901124256689792,-0.303421549801784,0.2905247659898982,0.0906703791524197,0.14194645615999515,0.413933473474821
0.13733817517343905,0.07026604311199207,0.07984777626362735,-0.24593115089197226,0.29055643011651117,0.09067934419925666,0.14197413683953505,0.41393284277779246
0.11498079781962338,0.060684309960356786,0.06707213206144698,-0.2107981293359762,0.2905880865655371,0.0906883344754558,0.14200184555085177,0.4139314347582864
0.1117868867690783,0.08623559836471753,-0.13095035307234884,-0.18844075198216054,0.29061973455213114,0.09069735012917274,0.1420295806641099,0.41392924822278065
0.12775644202180375,0.1533077304261645,0.18205292988107036,-0.18524684093161545,0.2906513730283656,0.09070639127620074,0.14205734048265342,0.41392628179983143
0.12775644202180375,0.05110257680872151,0.16608337462834488,-0.13095035307234884,0.29068300067927927,0.09071545802544656,0.14208512329270787,0.41392253390508627
0.1469199083250743,-0.09901124256689792,0.12136861992071357,-0.11498079781962338,0.2907146159350741,0.09072455049195778,0.1421129274064134,0.4139180027090577
0.09581733151635283,-0.060684309960356786,0.09262342046580772,-0.006387822101090189,0.29074621698376485,0.09073366878073111,0.14214075115817695,0.41391268609033605
-0.3481363045094153,-0.02235737735381566,-0.09262342046580772,0.43437190287413274,0.29077780179260565,0.09074281296307089,0.1421685928662126,0.41390658160997224
-1.0348271803766105,-0.09262342046580772,-0.41201452552031714,0.8016716736868186,0.29080936825355413,0.09075198305549724,0.14219645082834645,0.4138996866440047
-0.8176412289395442,-0.09581733151635283,-0.32897283820614465,0.7282117195242814,0.29084091455750205,0.09076117901566785,0.14222432342250083,0.41389199872677457
-0.23315550668979185,-0.07984777626362735,-0.08942950941526263,0.3002276387512388,0.2908724395398471,0.09077040076522044,0.14225220923268733,0.41388351584728117
0.21718595143706637,-0.09901124256689792,0.04471475470763132,0.05749039890981169,0.2909039426065504,0.09077964821132219,0.14228010702418767,0.41387423639443205
0.45353536917740334,-0.06387822101090188,0.01596955525272547,-0.16608337462834488,0.2909354233851471,0.09078892124966421,0.14230801558056444,0.4138641588269562
0.6260065659068385,-0.05429648785926659,0.025551288404360755,-0.3193911050545094,0.29096688157303674,0.09079821975537422,0.14233593356677618,0.4138532814165733
0.5876796333002972,-0.06387822101090188,0.07026604311199207,-0.4215962586719524,0.29099831707366824,0.09080754356605704,0.14236385948217406,0.4138416022487137
0.1469199083250743,0.06387822101090188,0.10220515361744302,-0.3161971940039643,0.2910297301255428,0.09081689246881937,0.14239179167384214,0.41382911936303896
0.06387822101090188,0.07665386521308225,0.07984777626362735,-0.25231897299306244,0.2910611211856038,0.09082626620078137,0.14241972837627945,0.4138158308370649
0.06387822101090188,0.06387822101090188,-0.012775644202180378,-0.21718595143706637,0.29109249063984244,0.09083566445637554,0.14244766773502318,0.41380173475146953
0.047908665758176414,0.08304168731417244,-0.060684309960356786,-0.5301892343904856,0.2911238385806495,0.09084508689329814,0.14247560779071108,0.4137868291396136
0.14372599727452925,0.08623559836471753,0.1533077304261645,-0.2235737735381566,0.2911551647399599,0.09085453313836872,0.14250354646403554,0.41377111202521905
0.2682885282457879,-0.006387822101090189,0.18205292988107036,-0.1565016414767096,0.29118646852690716,0.0908640027889787,0.14253148159619536,0.41375458146005484
0.08623559836471753,-0.1117868867690783,-0.025551288404360755,-0.09901124256689792,0.2912177491130461,0.0908734954009429,0.14255941101215272,0.41373723543264
-0.23315550668979185,-0.08304168731417244,-0.22676768458870167,-0.09901124256689792,0.29124900548783084,0.09088301048396076,0.14258733253719402,0.41371907172074057
-0.23954332879088208,-0.02235737735381566,-0.2076042182854311,0.2682885282457879,0.29128023647093954,0.0908925475159809,0.1426152440024222,0.4137000878231352
-0.6355882990584737,-0.047908665758176414,-0.29703372770069375,0.7345995416253717,0.291311440782743,0.0909021059391303,0.14264314330508715,0.4136802810468201
-1.050796735629336,-0.06707213206144698,-0.3609119487115956,1.0667662908820614,0.29134261728212235,0.09091168513596594,0.14267102850001792,0.41365964881592304
-0.7697325631813676,-0.08942950941526263,-0.1533077304261645,0.8208351399900891,0.2913737653438843,0.09092128442864778,0.14269889786578585,0.41363818911103944
-0.07984777626362735,-0.09262342046580772,0.1501138193756194,0.2938398166501486,0.29140488506950224,0.09093090310405381,0.14272674989045755,0.4136159007041617
0.2203798624876115,-0.08304168731417244,0.14053208622398414,-0.012775644202180378,0.29143597705800117,0.09094054043756584,0.14275458317917444,0.41359278294656393
0.3800754150148662,-0.12136861992071357,0.06707213206144698,-0.24273723984142714,0.2914670419990641,0.09095019570566931,0.14278239636569118,0.4135688353051806
0.4631171023290387,-0.03193911050545094,0.12456253097125865,-0.38965714816650143,0.2914980805288711,0.09095986819001696,0.14281018806238105,0.41354405707407915
0.47908665758176416,0.019163466303270562,0.13733817517343905,-0.46950492443012876,0.2915290933447194,0.0909695571604428,0.1428379568375967,0.4135184474162038
0.1628894635777998,0.08942950941526263,0.07665386521308225,-0.3800754150148662,0.29156008130295674,0.09097926183912308,0.14286570121963568,0.4134920055352948
0.11817470887016848,0.09262342046580772,0.05749039890981169,-0.3193911050545094,0.2915910453465068,0.09098898139063076,0.1428934196947845,0.4134647307607636
0.10220515361744302,0.05749039890981169,0.035133021555996034,-0.28425808349851334,0.29162198631537783,0.09099871494795513,0.14292111067392643,0.41343662251267727
0.09262342046580772,0.04152084365708622,-0.12775644202180375,-0.306615460852329,0.29165290479452244,0.0910084616257593,0.14294877246093843,0.4134076802274966
0.07345995416253714,0.1117868867690783,0.09262342046580772,-0.2555128840436075,0.2916838010552388,0.09101822050904738,0.14297640326080738,0.41337790330970897
0.038326932606541124,0.13733817517343905,0.07345995416253714,-0.14372599727452925,0.2917146750333627,0.09102799066084384,0.14300400120922907,0.4133472910959805
-0.04152084365708622,0.05429648785926659,0.019163466303270562,-0.08304168731417244,0.29174552630508216,0.0910377711556718,0.14303156437458076,0.4133158427834905
-0.019163466303270562,-0.05110257680872151,0.025551288404360755,0.009581733151635281,0.2917763540631944,0.09104756108749046,0.14305909072315134,0.4132835573199558
-0.32258501610505447,-0.06387822101090188,-0.13414426412289396,0.5078318570366699,0.2918071571305216,0.09105735953800338,0.14308657809174133,0.4132504333448539
-0.7697325631813676,-0.13414426412289396,-0.4088206144697721,0.9134585604558969,0.2918379341114003,0.09106716555721103,0.14311402423941466,0.41321646935011824
-0.712242164271556,-0.20441030723488604,-0.2682885282457879,0.7282117195242814,0.2918686837302004,0.09107697819612573,0.1431414270017929,0.41318166407676843
-0.38965714816650143,-0.16608337462834488,-0.047908665758176414,0.5078318570366699,0.2918994051504299,0.09108679657567484,0.14316878441629036,0.41314601683932306
0.047908665758176414,-0.12456253097125865,0.09581733151635283,0.12136861992071357,0.29193009797877434,0.09109661993595852,0.14319609467371588,0.4131095274921525
0.22676768458870167,-0.06387822101090188,0.1117868867690783,-0.2555128840436075,0.29196076197709875,0.09110644762420907,0.143223355980539,0.41307219612476126
0.4152084365708622,-0.07026604311199207,0.04152084365708622,-0.5269953233399406,0.2919913968189253,0.0911162790381887,0.14325056648727366,0.4130340228095238
0.574903989098117,0.0031939110505450944,0.07665386521308225,-0.6930786979682854,0.29202200211958446,0.09112611356649135,0.14327772427234634,0.412995007630633
0.3257789271555996,0.05749039890981169,0.09262342046580772,-0.4599231912784935,0.2920525776201714,0.09113595054432132,0.14330482732870634,0.41295515089803236
0.14372599727452925,0.07026604311199207,0.07665386521308225,-0.2810641724479683,0.2920831232543168,0.0911457892343771,0.14333187356486163,0.41291445325106646
0.09901124256689792,0.05110257680872151,0.05749039890981169,-0.22676768458870167,0.29211363900586423,0.0911556288373715,0.14335886081455043,0.41287291553452343
0.08623559836471753,0.038326932606541124,0.04471475470763132,-0.19802248513379583,0.292144124703132,0.09116546850640049,0.14338578682991224,0.41283053859427915
0.17247119672943506,-0.019163466303270562,-0.1117868867690783,-0.12775644202180375,0.29217457990449014,0.0911753073401021,0.14341264926891958,0.41278732313675076
0.17885901883052527,0.060684309960356786,0.07984777626362735,0.11817470887016848,0.29220500389445647,0.09118514436667699,0.1434394457037033,0.41274326964867103
0.006387822101090189,0.13733817517343905,0.025551288404360755,0.27787026139742316,0.2922353957147623,0.09119497855070537,0.14346617363677808,0.41269837835584583
0.025551288404360755,0.035133021555996034,-0.03193911050545094,0.3130032829534192,0.2922657541394014,0.0912048088294855,0.14349283048831735,0.41265264925760303
0.0,0.028745199454905845,0.012775644202180378,0.19802248513379583,0.2922960775948866,0.09121463413212162,0.14351941356112205,0.41260608221563916
-0.3130032829534192,0.01596955525272547,-0.06707213206144698,0.4152084365708622,0.29232636413153323,0.09122445335047336,0.14354592002037192,0.41255867701459226
-0.9326220267591674,-0.10220515361744302,-0.3704936818632309,0.747375185827552,0.29235661158657905,0.0912342653074983,0.1435723469326649,0.41251043344231464
-0.7026604311199207,-0.13733817517343905,-0.29064590559960357,0.6739152316650149,0.2923868179785788,0.0912440687754923,0.1435986914022546,0.41246135149659063
-0.20121639618434092,-0.13095035307234884,-0.03193911050545094,0.22676768458870167,0.29241698184505494,0.09125386253446369,0.14362495071000336,0.41241143157611737
0.07345995416253714,-0.1053990646679881,0.09581733151635283,-0.047908665758176414,0.29244710216448405,0.09126364541968213,0.14365112229329416,0.4123606743912219
0.28425808349851334,-0.17566510777998018,0.09581733151635283,-0.3161971940039643,0.2924771780005421,0.09127341633604619,0.14367720361701417,0.41230908066060507
0.4184023476214073,-0.1053990646679881,0.11498079781962338,-0.5557405227948463,0.29250720830518656,0.09128317426356825,0.14370319210465013,0.41225665095496844
0.4631171023290387,-0.05110257680872151,0.08942950941526263,-0.6387822101090188,0.29253719200113654,0.0912929182541205,0.14372908514395416,0.4122033858437626
0.22676768458870167,0.07345995416253714,0.09901124256689792,-0.39604497026759167,0.29256712812380425,0.0913026473955159,0.14375488009622686,0.41214928612965057
0.14372599727452925,0.10220515361744302,0.07665386521308225,-0.306615460852329,0.29259701581833836,0.09131236077061557,0.14378057429126004,0.41209435290940605
0.11817470887016848,0.06707213206144698,-0.038326932606541124,-0.4152084365708622,0.29262685419660783,0.09132205745042955,0.1438061650134192,0.4120385874600522
0.08942950941526263,0.07665386521308225,-0.05429648785926659,-0.306615460852329,0.2926566421900399,0.09133173650183528,0.14383164947777755,0.4119819911302253
-0.0031939110505450944,0.07665386521308225,0.012775644202180378,-0.27148243929633303,0.29268637846350837,0.09134139698437131,0.14385702480387266,0.41192456529902644
-0.08304168731417244,0.12775644202180375,0.17566510777998018,-0.060684309960356786,0.2927160613596675,0.09135103795017073,0.14388228800965425,0.4118663113123947
-0.1501138193756194,0.06707213206144698,0.16927728567888997,0.09901124256689792,0.29274568887817976,0.09136065845840015,0.14390743605430115,0.41180723035448724
-0.27148243929633303,-0.025551288404360755,0.14053208622398414,-0.07665386521308225,0.2927752587293869,0.09137025757835474,0.14393246591429443,0.41174732331716357
-0.1501138193756194,0.006387822101090189,0.09262342046580772,0.13733817517343905,0.29280476843590253,0.09137983435608997,0.14395737462307365,0.4116865907398311
-0.5333831454410307,-0.05110257680872151,-0.14372599727452925,0.5589344338453914,0.2928342154301086,0.09138938776925759,0.1439821592535725,0.4116250328614051
-0.9070707383548067,-0.1533077304261645,-0.373687592913776,0.8559681615460852,0.2928635972232103,0.09139891672249313,0.14400681692047584,0.4115626498476614
-0.6707213206144698,-0.1565016414767096,-0.23634941774033696,0.6451700322101089,0.29289291171285703,0.09140842010306144,0.1440313448639007,0.41149944215313955
-0.1533077304261645,-0.12775644202180375,0.035133021555996034,0.24273723984142714,0.29292215738881106,0.09141789685442235,0.14405574052367676,0.4114354107376387
0.1596955525272547,-0.16608337462834488,0.07026604311199207,0.047908665758176414,0.2929513331686003,0.0914273460137224,0.14408000147631023,0.41137055691746915
0.4503414581268582,-0.23315550668979185,0.028745199454905845,-0.16608337462834488,0.29298043806607393,0.09143676672613797,0.14410412529519664,0.4113048820101732
0.47908665758176416,-0.04471475470763132,0.025551288404360755,-0.28425808349851334,0.2930094710859757,0.09144615826236549,0.14412810946402735,0.41123838710321675
0.49505621283448964,0.07345995416253714,0.019163466303270562,-0.475892746531219,0.2930384313578394,0.09145551999754718,0.14415195134685482,0.4111710730767346
0.2619007061446977,0.09581733151635283,0.025551288404360755,-0.3768815039643211,0.2930673182473223,0.09146485134331409,0.14417564817409254,0.4111029407672611
0.20121639618434092,0.09901124256689792,0.019163466303270562,-0.3130032829534192,0.29309613130492607,0.0914741517065434,0.14419919703801964,0.4110339910926979
0.16927728567888997,0.047908665758176414,-0.0031939110505450944,-0.29703372770069375,0.293124870110304,0.09148342049168041,0.14422259489239098,0.4109642250533486
0.1565016414767096,0.08304168731417244,-0.23315550668979185,-0.2619007061446977,0.29315353413452927,0.09149265709777767,0.1442458385693544,0.41089364366473075
0.12456253097125865,0.19482857408325072,0.11498079781962338,-0.2107981293359762,0.29318212266942145,0.09150186091681795,0.14426892484826057,0.4108222478958007
0.12775644202180375,0.18524684093161545,0.14053208622398414,-0.10859297571853319,0.2932106347929185,0.09151103137711805,0.14429185054033294,0.4107500386078835
-0.019163466303270562,0.1117868867690783,0.1533077304261645,-0.025551288404360755,0.2932390693368924,0.09152016800546157,0.14431461251857372,0.4106770164646795
0.028745199454905845,-0.025551288404360755,0.1053990646679881,-0.0031939110505450944,0.29326742483855134,0.09152927042988604,0.1443372077089129,0.41060318181938665
-0.35771803766105054,-0.06387822101090188,-0.1596955525272547,0.4599231912784935,0.29329569951612544,0.09153833831298193,0.1443596330824226,0.4105285346632582
-0.884713361000991,-0.1053990646679881,-0.4215962586719524,0.8719377167988107,0.2933238914162522,0.09154737129090207,0.14438188568098054,0.41045307479351983
-0.814447317888999,-0.2235737735381566,-0.3832693260654113,0.5493527006937562,0.2933519987978241,0.09155636898310644,0.14440396272829248,0.4103768021933492
-0.38646323711595637,-0.23634941774033696,-0.21718595143706637,0.3193911050545094,0.293380020493821,0.09156533107014617,0.1444258617646965,0.41029971729579084
0.06707213206144698,-0.18844075198216054,-0.08942950941526263,0.035133021555996034,0.29340795590058594,0.09157425738128162,0.14444758065012941,0.41022182087703335
0.2203798624876115,-0.13095035307234884,-0.047908665758176414,-0.1053990646679881,0.2934358046357892,0.09158314792511038,0.14446911742012183,0.41014311373013085
0.39604497026759167,-0.12136861992071357,0.05749039890981169,-0.21718595143706637,0.29346356625377484,0.09159200285209418,0.1444904701262187,0.4100635964184034
0.5493527006937562,-0.06387822101090188,0.1053990646679881,-0.373687592913776,0.2934912402534527,0.09160082239237406,0.1445116367549078,0.4099832692467277
0.3641058597621407,0.05110257680872151,0.11817470887016848,-0.43437190287413274,0.29351882625084996,0.09160960679859892,0.14453261522594843,0.4099021323971847
0.18524684093161545,0.07345995416253714,0.1117868867690783,-0.3609119487115956,0.29354632405996767,0.09161835630017338,0.1445534034256072,0.4098201860887455
0.14053208622398414,0.05429648785926659,0.08942950941526263,-0.303421549801784,0.29357373358498806,0.09162707107985424,0.14457399922979275,0.4097374306498023
0.11498079781962338,0.035133021555996034,0.07026604311199207,-0.2650946171952428,0.29360105463862457,0.0916357512677059,0.14459440049997063,0.40965386648705804
0.06707213206144698,0.060684309960356786,-0.10859297571853319,-0.2938398166501486,0.2936282868162086,0.09164439693330964,0.14461460506587953,0.4095694940169578
0.035133021555996034,0.11817470887016848,0.14053208622398414,-0.21718595143706637,0.29365542942832584,0.09165300808582234,0.1446346107239636,0.40948431361829396
-0.012775644202180378,0.13414426412289396,0.1565016414767096,-0.10859297571853319,0.2936824814490912,0.0916615847042829,0.14465441526484285,0.409398325589601
-0.08942950941526263,0.07345995416253714,0.1117868867690783,-0.03193911050545094,0.293709441481049,0.09167012677977225,0.14467401650712722,0.4093115300646717
-0.1596955525272547,0.03193911050545094,0.05429648785926659,0.07026604311199207,0.29373630776790766,0.09167863432170749,0.14469341229982047,0.4092239269001584
-0.45353536917740334,0.0,-0.16608337462834488,0.4982501238850346,0.29376307828888926,0.09168710731496738,0.1447126004941333,0.409135515643112
-0.919846382556987,-0.14053208622398414,-0.48866839073339935,0.8942950941526264,0.2937897509901296,0.09169554567555943,0.14473157896914074,0.40904629572250256
-0.5653222559464817,-0.2203798624876115,-0.38646323711595637,0.7409873637264618,0.293816324136364,0.0917039492733622,0.14475034578477036,0.40895626684561803
-0.05429648785926659,-0.16927728567888997,-0.19482857408325072,0.2555128840436075,0.29384279651027057,0.09171231802393312,0.14476889934585374,0.4088654292867598
0.25231897299306244,-0.1117868867690783,-0.05110257680872151,-0.02235737735381566,0.29386916722895046,0.09172065195999228,0.14478723838510482,0.40877378377402396
0.2587067950941526,-0.12775644202180375,-0.0031939110505450944,-0.2555128840436075,0.2938954354275788,0.09172895122365658,0.1448053617784673,0.40868133111249133
0.4503414581268582,-0.07665386521308225,0.2139920403865213,-0.38965714816650143,0.2939216001632838,0.09173721602052225,0.14482326837764542,0.40858807194900826
0.43756581392467786,0.019163466303270562,0.373687592913776,-0.38646323711595637,0.2939476605202509,0.09174544657541228,0.14484095700582578,0.40849400682501963
0.27787026139742316,0.060684309960356786,0.14053208622398414,-0.32258501610505447,0.2939736157217529,0.0917536430848305,0.14485842658739623,0.4083991363168094
0.19802248513379583,0.19163466303270565,0.08623559836471753,-0.27787026139742316,0.2939994651258557,0.09176180569457093,0.1448756762206132,0.40830346107902865
0.1565016414767096,0.038326932606541124,0.02235737735381566,-0.3641058597621407,0.2940252081094721,0.09176993453324249,0.144892705094775,0.4082069818097441
0.12775644202180375,0.025551288404360755,-0.07984777626362735,-0.4279840807730426,0.2940508439401071,0.09177802973846114,0.14490951236368046,0.4081096992388856
0.14053208622398414,0.012775644202180378,-0.060684309960356786,-0.27148243929633303,0.29407637169753664,0.09178609141627038,0.14492609708626367,0.408011614164399
0.12136861992071357,0.12456253097125865,0.09262342046580772,-0.16927728567888997,0.2941017902396796,0.09179411959351236,0.1449424582274558,0.4079127274473782
-0.009581733151635281,0.11817470887016848,0.09901124256689792,-0.1565016414767096,0.2941270981804731,0.09180211423455205,0.1449585946778695,0.4078130399131529
-0.04152084365708622,0.07345995416253714,0.05749039890981169,-0.13095035307234884,0.29415229384499925,0.09181007529414935,0.14497450527039643,0.4077125522314664
-0.13414426412289396,0.1533077304261645,0.02235737735381566,0.25231897299306244,0.29417737522476417,0.09181800274632836,0.14499018877617728,0.4076112648594165
-0.6451700322101089,0.05110257680872151,-0.2107981293359762,0.680303053766105,0.2942023400420623,0.09182589658747081,0.14500564389200676,0.4075091781041562
-1.0060819809217045,-0.07345995416253714,-0.35452412661050536,0.9677550483151636,0.2942271860422937,0.0918337568270131,0.14502086929275587,0.40740629237838044
-0.6292004769573835,-0.24273723984142714,-0.2076042182854311,0.7154360753221011,0.29425191143210444,0.09184158347952738,0.14503586376502586,0.4073026085784645
-0.06707213206144698,-0.2810641724479683,0.047908665758176414,0.3481363045094153,0.29427651508784863,0.09184937661494352,0.14505062628615398,0.4071981282878973
0.2587067950941526,-0.2810641724479683,-0.025551288404360755,0.2139920403865213,0.29430099631652595,0.09185713646935229,0.14506515594607702,0.4070928536178194
0.4982501238850346,-0.3353606603072349,-0.1596955525272547,-0.2650946171952428,0.29432535450946784,0.09186486353731876,0.14507945181460097,0.40698678686926126
0.49505621283448964,-0.11498079781962338,-0.06707213206144698,-0.5142196791377601,0.2943495890907884,0.09187255859847401,0.1450935128960028,0.40687993033015013
0.46950492443012876,0.035133021555996034,0.08623559836471753,-0.5301892343904856,0.29437369967187477,0.09188022265507373,0.1451073381501083,0.4067722863160048
0.16608337462834488,0.1053990646679881,0.14372599727452925,-0.33855457135777994,0.2943976861184782,0.0918878567974109,0.14512092650223302,0.40666385730870885
0.12136861992071357,0.11498079781962338,0.11817470887016848,-0.27787026139742316,0.29442154843215024,0.09189546210411684,0.14513427685204164,0.4065546459846901
0.09901124256689792,0.06707213206144698,0.07984777626362735,-0.2746763503468781,0.2944452865425617,0.0919030396298708,0.14514738809245034,0.4064446551074584
0.12136861992071357,0.03193911050545094,-0.24273723984142714,-0.2810641724479683,0.2944689001565978,0.09191059040874135,0.14516025912020059,0.4063338874181792
0.09901124256689792,0.07026604311199207,0.14053208622398414,-0.20121639618434092,0.2944923887089937,0.09191811542723477,0.1451728888626157,0.40622234558727766
-0.07345995416253714,0.060684309960356786,0.2203798624876115,-0.09262342046580772,0.2945157513557764,0.091925615600874,0.14518527632274178,0.4061100321711596
-0.2235737735381566,-0.0031939110505450944,0.20121639618434092,0.035133021555996034,0.2945389869771096,0.09193309176999097,0.14519742060738997,0.40599694952274884
-0.08304168731417244,0.019163466303270562,0.1117868867690783,0.09262342046580772,0.29456209420512397,0.09194054468603113,0.14520932093218306,0.4058830996853017
-0.3481363045094153,0.03193911050545094,-0.1565016414767096,0.4854744796828543,0.2945850714744715,0.09194797498698389,0.1452209765996602,0.4057684843750109
-0.8208351399900891,-0.006387822101090189,-0.39923888131813673,0.8751316278493557,0.2946079171479945,0.0919553831877306,0.14523238698729327,0.4056531051768537
-0.7090482532210107,-0.06707213206144698,-0.40243279236868185,0.5780979001486619,0.2946306298039041,0.091962769685995,0.14524355163011332,0.4055369639134664
-0.2619007061446977,-0.13095035307234884,-0.2810641724479683,0.29703372770069375,0.2946532085089972,0.09197013478549235,0.14525447035720673,0.40542006288300525
0.2076042182854311,-0.2076042182854311,-0.10859297571853319,-0.009581733151635281,0.29467565277631497,0.09197747875605163,0.1452651433235022,0.4053024047317284
0.45672928022794845,-0.35771803766105054,-0.047908665758176414,-0.060684309960356786,0.2946979623043427,0.09198480193627233,0.14527557088640017,0.40518399210241907
0.35771803766105054,-0.27787026139742316,0.03193911050545094,-0.2107981293359762,0.2947201368457142,0.09199210485764354,0.14528575343100064,0.4050648273650611
0.22996159563924676,-0.060684309960356786,0.08304168731417244,-0.3130032829534192,0.29474217623603843,0.09199938831230611,0.14529569125495193,0.4049449125808997
0.25231897299306244,0.09901124256689792,0.1628894635777998,-0.4247901697224975,0.29476408037904595,0.0920066532876055,0.1453053845480676,0.40482424963715385
0.20121639618434092,0.13414426412289396,0.1565016414767096,-0.3800754150148662,0.29478584916099504,0.09201390083873415,0.1453148334420284,0.4047028404113419
0.1628894635777998,0.1053990646679881,0.13095035307234884,-0.3130032829534192,0.29480748238159504,0.09202113202885642,0.14532403807100866,0.4045806868668971
0.13095035307234884,0.07665386521308225,0.09901124256689792,-0.27148243929633303,0.29482897970427235,0.09202834792914481,0.14533299859089224,0.40445779104939517
0.1469199083250743,0.09901124256689792,-0.11817470887016848,-0.33216674925668976,0.29485034060788207,0.09203554961017375,0.14534171515898323,0.4043341550300666
0.1628894635777998,0.1469199083250743,0.34174848240832506,-0.3353606603072349,0.2948715643592885,0.0920427381306758,0.14535018793410473,0.40420978087521897
0.09262342046580772,0.1053990646679881,0.3353606603072349,-0.19163466303270565,0.29489265000956444,0.09204991455116796,0.14535841715877773,0.40408467064670744
0.0031939110505450944,0.04471475470763132,0.09581733151635283,-0.1117868867690783,0.2949135963742359,0.0920570799455038,0.14536640326627934,0.4039588263604312
-0.02235737735381566,0.009581733151635281,-0.07026604311199207,-0.019163466303270562,0.29493440197160614,0.09206423537026856,0.14537414686713068,0.403832249871454
-0.373687592913776,-0.0031939110505450944,-0.1117868867690783,0.43756581392467786,0.29495506499174806,0.09207138180412526,0.14538164862068223,0.40370494278014835
-0.9453976709613479,-0.07345995416253714,-0.2491250619425173,0.8176412289395442,0.29497558346291874,0.09207852010543847,0.1453889091556872,0.40357690653677325
-0.6100370106541129,-0.060684309960356786,-0.09901124256689792,0.7218238974231912,0.29499595564548464,0.09208565101689029,0.14539592910048274,0.40344814278104796
-0.08942950941526263,-0.09262342046580772,0.07984777626362735,0.27148243929633303,0.2950161803175721,0.09209277520027652,0.14540270911638256,0.4033186536320441
0.19163466303270565,-0.12136861992071357,0.13733817517343905,0.028745199454905845,0.2950362566360258,0.09209989327198098,0.1454092498654117,0.40318844161503536
0.25231897299306244,-0.21718595143706637,0.047908665758176414,-0.19482857408325072,0.2950561837996242,0.0921070058443577,0.14541555196807512,0.4030575093160851
0.28425808349851334,-0.18524684093161545,0.006387822101090189,-0.3449423934588701,0.2950759609007602,0.0921141135874228,0.14542161597693967,0.40292585913605805
0.3098093719028741,-0.09901124256689792,0.012775644202180378,-0.3641058597621407,0.2950955869665491,0.09212121727688184,0.14542744233090657,0.40279349331280284
0.25231897299306244,0.08623559836471753,0.006387822101090189,-0.2874519945490585,0.29511506101624935,0.09212831777902797,0.14543303130592347,0.40266041405192243
0.19163466303270565,0.12456253097125865,-0.0031939110505450944,-0.24273723984142714,0.2951343820665259,0.09213541599483288,0.1454383829939847,0.40252662357889235
0.1596955525272547,0.06707213206144698,-0.08304168731417244,-0.2682885282457879,0.295153549084788,0.0921425128246919,0.14544349730749276,0.40239212410176545
0.11817470887016848,0.05749039890981169,-0.2107981293359762,-0.2810641724479683,0.2951725609189172,0.09214960915410873,0.14544837402183658,0.40225691776924033
0.11817470887016848,0.05429648785926659,-0.10220515361744302,-0.2810641724479683,0.29519141623587064,0.09215670583004887,0.14545301286111334,0.4021210066670662
0.06707213206144698,0.1117868867690783,0.04471475470763132,-0.18524684093161545,0.2952101134776643,0.09216380364169406,0.14545741355623257,0.40198439282315473
-0.05110257680872151,0.07345995416253714,0.1053990646679881,-0.10859297571853319,0.2952286508248931,0.09217090332867221,0.14546157582276942,0.40184707817188436
-0.08942950941526263,0.04152084365708622,0.14053208622398414,-0.08623559836471753,0.2952470261652009,0.09217800559502225,0.14546549932529534,0.40170906446993415
-0.1628894635777998,0.07665386521308225,0.060684309960356786,0.22676768458870167,0.29526523709131136,0.09218511110040993,0.1454691836867321,0.4015703532230783
-0.6866908758671952,-0.01596955525272547,-0.19163466303270565,0.6323943880079286,0.29528328099633294,0.09219222044069192,0.14547262850928527,0.4014309457323907
-1.050796735629336,-0.11817470887016848,-0.39923888131813673,0.9326220267591674,0.2953011553708927,0.09219933413960464,0.14547583341880102,0.40129084334924786
-0.7601508300297324,-0.14372599727452925,-0.2810641724479683,0.6675274095639246,0.2953188582503257,0.09220645266713544,0.1454787981818389,0.40115004785269
-0.047908665758176414,-0.10220515361744302,-0.038326932606541124,0.2938398166501486,0.2953363884456047,0.09221357648537327,0.1454815227976768,0.4010085616487015
0.2555128840436075,-0.11817470887016848,0.006387822101090189,0.12775644202180375,0.295353745298593,0.09222070608250461,0.14548400742215553,0.40086638760142607
0.4184023476214073,-0.29064590559960357,0.060684309960356786,-0.12136861992071357,0.295370928279519,0.0922278419908232,0.14548625219183872,0.4007235286711212
0.38965714816650143,-0.09262342046580772,0.12456253097125865,-0.3641058597621407,0.2953879368622281,0.09223498482912655,0.1454882571278744,0.40057998766754005
0.4439536360257681,0.03193911050545094,0.012775644202180378,-0.5397709675421208,0.2954047706242582,0.09224213532095805,0.14549002214758835,0.4004357672594556
0.2555128840436075,0.07665386521308225,0.07026604311199207,-0.3449423934588701,0.2954214293144147,0.092249294227062,0.14549154708361728,0.4002908701485193
0.20121639618434092,0.07665386521308225,0.05429648785926659,-0.28425808349851334,0.2954379128081349,0.0922564622668987,0.1454928316712673,0.40014529918288727
0.17566510777998018,0.047908665758176414,0.04152084365708622,-0.306615460852329,0.29545422099104773,0.09226364009976336,0.14549387553917772,0.3999990573122209
0.18844075198216054,0.05749039890981169,-0.2682885282457879,-0.25231897299306244,0.29547035365121677,0.09227082832689497,0.14549467823039203,0.3998521474961922
0.2555128840436075,0.09581733151635283,0.07984777626362735,-0.11817470887016848,0.2954863104382616,0.09227802748738648,0.14549523926537297,0.3997045726413231
0.1053990646679881,0.09581733151635283,0.13095035307234884,-0.012775644202180378,0.2955020908694504,0.09228523806836417,0.1454955581996751,0.39955633551139685
-0.1053990646679881,-0.01596955525272547,0.038326932606541124,0.012775644202180378,0.2955176943153451,0.09229246052117923,0.14549563461155257,0.399407438592751
-0.14372599727452925,-0.09581733151635283,-0.09262342046580772,0.12775644202180375,0.29553311994620285,0.09229969525450557,0.14549546804996036,0.3992578839920416
-0.3704936818632309,-0.08623559836471753,-0.16927728567888997,0.7282117195242814,0.29554836672062684,0.09230694262230965,0.14549505801148735,0.399107673491553
-0.7888960294846381,-0.09262342046580772,-0.303421549801784,0.983724603567889,0.2955634335250166,0.0923142029370178,0.1454944039846337,0.3989568088681006
-0.7282117195242814,-0.17566510777998018,-0.20121639618434092,0.606843099603568,0.29557831947708074,0.0923214764982121,0.1454935055486042,0.3988052923483767
-0.3609119487115956,-0.17885901883052527,-0.006387822101090189,0.39923888131813673,0.295593024197223,0.0923287636328947,0.1454923624263548,0.3986531268275497
0.1565016414767096,-0.12456253097125865,0.17247119672943506,0.21718595143706637,0.2956075477872311,0.09233606474064704,0.14549097442320058,0.3985003156991094
0.3768815039643211,-0.08623559836471753,0.1053990646679881,0.1053990646679881,0.29562189056886784,0.09234338030224881,0.1454893413438872,0.3983468625244871
0.4311779918235877,-0.05749039890981169,0.05749039890981169,-0.3130032829534192,0.29563605290445116,0.09235071083846462,0.14548746297334533,0.3981927707851767
0.45353536917740334,0.02235737735381566,0.06387822101090188,-0.6228126548562933,0.2956500352326511,0.09235805685190727,0.14548533906578517,0.39803804383916763
0.24593115089197226,0.07345995416253714,0.05429648785926659,-0.6100370106541129,0.2956638381527574,0.0923654187818843,0.14548296930928667,0.3978826851012033
0.1628894635777998,0.10220515361744302,0.047908665758176414,-0.4631171023290387,0.29567746238906023,0.09237279699269692,0.14548035330146755,0.3977266982719357
0.13095035307234884,0.05110257680872151,0.038326932606541124,-0.3768815039643211,0.29569090864717507,0.09238019179423151,0.14547749054006331,0.3975700874006903
0.1053990646679881,0.025551288404360755,0.028745199454905845,-0.3193911050545094,0.2957041774733264,0.09238760345358257,0.14547438041336616,0.39741285678083693
0.10859297571853319,0.019163466303270562,0.11498079781962338,-0.27148243929633303,0.2957172691767339,0.0923950321716226,0.14547102219793215,0.397255010811036
0.1053990646679881,-0.05110257680872151,0.303421549801784,-0.13414426412289396,0.29573018379927235,0.09240247805286511,0.14546741510231953,0.3970965538809451
0.13095035307234884,-0.04471475470763132,0.23954332879088208,-0.0031939110505450944,0.29574292111003875,0.09240994110020864,0.14546355838048,0.39693749024736963
0.05110257680872151,0.02235737735381566,0.14372599727452925,0.025551288404360755,0.29575548060899376,0.09241742122551737,0.14545945143897832,0.3967778238843653
0.0031939110505450944,0.07345995416253714,0.009581733151635281,0.025551288404360755,0.29576786150990514,0.09242491825541298,0.14545509382888985,0.39661755836297224
-0.373687592913776,0.06387822101090188,-0.2555128840436075,0.4311779918235877,0.2957800627257683,0.09243243193914348,0.14545048515357048,0.39645669684620843
-0.983724603567889,-0.10859297571853319,-0.5174135901883052,0.7888960294846381,0.29579208301990234,0.09243996197083758,0.14544562506740896,0.39629524228322843
-0.7537630079286421,-0.1565016414767096,-0.4088206144697721,0.6834969648166501,0.2958039214107248,0.0924475080243643,0.14544051344739645,0.39613319777839745
-0.27148243929633303,-0.17566510777998018,-0.10859297571853319,0.2746763503468781,0.295815577524541,0.09245506980120538,0.14543515055261552,0.3959705668728689
0.12456253097125865,-0.18205292988107036,-0.006387822101090189,-0.012775644202180378,0.29582705152346134,0.09246264708217304,0.1454295369542775,0.39580735347066537
0.3481363045094153,-0.18524684093161545,-0.05749039890981169,-0.2682885282457879,0.29583834375207335,0.09247023976284627,0.14542367330547193,0.3956435615131893
0.4631171023290387,-0.08304168731417244,-0.0031939110505450944,-0.3481363045094153,0.29584945453826866,0.09247784785879133,0.14541756016865576,0.39547919476517873
0.45353536917740334,0.035133021555996034,0.09901124256689792,-0.5174135901883052,0.29586038426330863,0.0924854714656293,0.14541119796661697,0.3953142568723223
0.23315550668979185,0.10859297571853319,0.1053990646679881,-0.39923888131813673,0.29587113347486815,0.09249311068888526,0.14540458700090836,0.3951487515370622
0.1565016414767096,0.25231897299306244,0.07984777626362735,-0.3130032829534192,0.29588170285226023,0.09250076561910496,0.14539772749344906,0.39498268261746583
0.12456253097125865,0.07984777626362735,-0.012775644202180378,-0.4184023476214073,0.29589209305124653,0.09250843638514009,0.14539061960709362,0.39481605410628023
0.10220515361744302,0.04471475470763132,-0.006387822101090189,-0.5429648785926661,0.29590230455940125,0.09251612319051442,0.14538326341711902,0.39464887010228517
0.09581733151635283,0.05749039890981169,0.006387822101090189,-0.19802248513379583,0.2959123376201969,0.09252382626247761,0.14537565886220485,0.39448113483980113
0.0031939110505450944,0.18844075198216054,0.14372599727452925,-0.08304168731417244,0.29592219219291954,0.09253154579602242,0.1453678057280139,0.3943128526467237
0.05429648785926659,0.08623559836471753,0.22676768458870167,0.04471475470763132,0.2959318679111147,0.09253928197225891,0.14535970370203338,0.394144027753259
0.0031939110505450944,0.0,0.1533077304261645,0.14372599727452925,0.2959413640445316,0.09254703498821715,0.14535135247937805,0.39397466410039067
0.019163466303270562,-0.07026604311199207,0.07665386521308225,0.41201452552031714,0.2959506794802505,0.09255480502259555,0.14534275182829734,0.3938047653088763
-0.4918623017839445,-0.14053208622398414,-0.07984777626362735,0.6355882990584737,0.2959598127621821,0.09256259219312052,0.1453339015626511,0.3936343348413425
-0.919846382556987,-0.24273723984142714,-0.3098093719028741,0.884713361000991,0.2959687623154247,0.09257039659206108,0.14532480150001634,0.39346337630555556
-0.814447317888999,-0.20441030723488604,-0.2682885282457879,0.6930786979682854,0.29597752687897744,0.0925782183819582,0.14531545151181446,0.3932918937727905
-0.006387822101090189,-0.18205292988107036,-0.09581733151635283,0.29703372770069375,0.2959861058144152,0.09258605787065392,0.14530585161705076,0.39311989191475527
0.17247119672943506,-0.09262342046580772,-0.11498079781962338,-0.0031939110505450944,0.2959944989496758,0.09259391551564931,0.1452960019803922,0.39294737581913414
0.303421549801784,-0.1628894635777998,-0.13095035307234884,-0.3257789271555996,0.2960027061806282,0.0926017918759132,0.14528590282509027,0.3927743506207719
0.39604497026759167,-0.06707213206144698,0.04471475470763132,-0.43437190287413274,0.29601072730345573,0.09260968756384454,0.14527555437045772,0.3926008212940683
0.3449423934588701,0.05429648785926659,0.12775644202180375,-0.5429648785926661,0.296018562109295,0.09261760321004398,0.1452649568067759,0.39242679274315545
0.17566510777998018,0.12456253097125865,0.06387822101090188,-0.41201452552031714,0.29602621046869465,0.09262553942773077,0.1452541102798723,0.39225226999151674
0.14053208622398414,0.1117868867690783,0.047908665758176414,-0.33855457135777994,0.2960336722804576,0.09263349680119258,0.14524301488212707,0.3920772582583389
0.12456253097125865,0.08623559836471753,0.025551288404360755,-0.303421549801784,0.29604094734725495,0.09264147590528465,0.14523167063190742,0.39190176289997747
0.08942950941526263,0.06707213206144698,-0.32258501610505447,-0.2619007061446977,0.2960480352770389,0.09264947731226904,0.14522007746908475,0.3917257893073029
0.08623559836471753,0.16608337462834488,0.047908665758176414,-0.1053990646679881,0.2960549354333002,0.09265750158095373,0.14520823531944807,0.39154934281242576
0.09901124256689792,0.1469199083250743,0.13095035307234884,0.13733817517343905,0.29606164690931197,0.09266554927100472,0.14519614415899648,0.3913724285873795
0.01596955525272547,0.060684309960356786,0.10220515361744302,0.13095035307234884,0.2960681685127038,0.09267362097461321,0.1451838039960227,0.391195051548175
-0.035133021555996034,0.0031939110505450944,0.06707213206144698,-0.07984777626362735,0.29607449874292063,0.09268171730228185,0.14517121482694711,0.3910172163055018
-0.4311779918235877,-0.01596955525272547,-0.10859297571853319,0.3002276387512388,0.2960806357987149,0.09268983881360415,0.14515837661601616,0.3908389271647164
-0.919846382556987,-0.10859297571853319,-0.3704936818632309,0.7058543421704658,0.2960865777639152,0.09269798596337218,0.14514528931390797,0.3906601882261575
-0.8431925173439048,-0.18844075198216054,-0.33216674925668976,0.5078318570366699,0.2960923230200758,0.09270615912355963,0.14513195296336445,0.39048100363351224
-0.38646323711595637,-0.17566510777998018,-0.17885901883052527,0.3257789271555996,0.2960978706063901,0.09271435866729,0.1451183678327146,0.3903013777943695
0.07345995416253714,-0.12775644202180375,-0.035133021555996034,0.11817470887016848,0.2961032201851584,0.09272258504248825,0.14510453442222,0.3901213153487404
0.2587067950941526,-0.1117868867690783,0.035133021555996034,-0.05110257680872151,0.29610837168157056,0.09273083878291614,0.14509045332648984,0.3899408209356319
0.40243279236868185,-0.11498079781962338,0.06387822101090188,-0.3002276387512388,0.29611332499967463,0.09273912047581531,0.14507612508955778,0.38975989898131763
0.5429648785926661,0.006387822101090189,0.12456253097125865,-0.43756581392467786,0.2961180800342707,0.09274743072266371,0.14506155015242972,0.38957855367561056
0.3832693260654113,0.07345995416253714,0.12456253097125865,-0.46950492443012876,0.29612263683474116,0.09275577009439749,0.1450467288811127,0.38939678913030373
0.18205292988107036,0.09901124256689792,0.09581733151635283,-0.3800754150148662,0.2961269956763967,0.09276413909693144,0.14503166161147749,0.3892146095535533
0.14053208622398414,0.035133021555996034,0.08304168731417244,-0.3130032829534192,0.29613115695073056,0.0927725381730441,0.14501634866377164,0.3890320193029144
0.09901124256689792,0.019163466303270562,0.05110257680872151,-0.2619007061446977,0.296135120978757,0.09278096770732619,0.1450007903241891,0.3888490228257859
0.13733817517343905,-0.019163466303270562,-0.08304168731417244,-0.29064590559960357,0.2961388878826349,0.09278942800019824,0.14498498681779629,0.3886656245705704
0.39604497026759167,0.07026604311199207,0.1628894635777998,-0.18205292988107036,0.2961424575692611,0.09279791924267078,0.14496893830350752,0.3884818289230397
0.38646323711595637,0.05429648785926659,0.21718595143706637,-0.07984777626362735,0.29614582983512233,0.09280644152393058,0.14495264491636375,0.3882976401459014
0.2746763503468781,-0.04471475470763132,0.18844075198216054,-0.08304168731417244,0.2961490045145073,0.09281499485393704,0.1449361068418353,0.3881130622848042
0.29703372770069375,-0.05749039890981169,0.13414426412289396,-0.07984777626362735,0.29615198153612143,0.09282357917270083,0.14491932436422214,0.38792809907435755
-0.13414426412289396,0.0031939110505450944,-0.009581733151635281,0.3800754150148662,0.2961547608710744,0.09283219434430061,0.14490229784420608,0.38774275392286633
-0.9358159378097126,-0.08942950941526263,-0.32897283820614465,0.8623559836471754,0.29615734251565307,0.09284084014761301,0.14488502766312353,0.3875570300698497
-0.7601508300297324,-0.1533077304261645,-0.2746763503468781,0.8176412289395442,0.2961597266872891,0.09284951628973116,0.1448675142449787,0.38737093094405906
-0.2555128840436075,-0.3609119487115956,-0.11498079781962338,0.306615460852329,0.2961619141083364,0.09285822248212391,0.1448497581512256,0.38718446048910166
0.019163466303270562,-0.23954332879088208,-0.04152084365708622,0.019163466303270562,0.2961639059722629,0.09286695857418384,0.14483176008974644,0.3869976231192616
0.08623559836471753,-0.13733817517343905,-0.0031939110505450944,-0.09262342046580772,0.2961657035681189,0.09287572464755302,0.14481352079776527,0.3868104233408617
0.2810641724479683,-0.0031939110505450944,-0.009581733151635281,-0.12775644202180375,0.2961673079746744,0.09288452097588527,0.14479504091771564,0.3866228654140285
0.4439536360257681,0.060684309960356786,-0.06387822101090188,-0.2555128840436075,0.2961687200536375,0.09289334788927048,0.14477632094056045,0.3864349532646974
0.14053208622398414,0.12775644202180375,0.08942950941526263,-0.40243279236868185,0.2961699406028553,0.09290220567295092,0.14475736121362193,0.3862466905745982
0.05429648785926659,0.20121639618434092,0.07984777626362735,-0.35133021555996036,0.2961709704079746,0.0929110945726088,0.14473816198224673,0.3860580809318309
0.038326932606541124,0.08942950941526263,-0.009581733151635281,-0.4279840807730426,0.2961718101136718,0.09292001486067064,0.14471872341753758,0.38586912795801653
0.028745199454905845,0.07345995416253714,-0.060684309960356786,-0.43437190287413274,0.2961724600673749,0.09292896686511641,0.14469904560507144,0.38567983537751876
0.08623559836471753,0.047908665758176414,0.10859297571853319,-0.25231897299306244,0.29617292025413167,0.09293795092992475,0.14467912852887588,0.3854902070395449
0.17247119672943506,0.1053990646679881,0.21718595143706637,-0.13414426412289396,0.2961731903131254,0.09294696736505137,0.14465897210381815,0.38530024686272435
0.1117868867690783,0.05429648785926659,0.2076042182854311,-0.17566510777998018,0.2961732695990206,0.09295601643240398,0.14463857625870025,0.3851099586966455
0.08942950941526263,0.01596955525272547,0.16927728567888997,-0.19163466303270565,0.29617315723247434,0.09296509834501199,0.1446179410152222,0.384919346202318
-0.1117868867690783,0.05749039890981169,0.07345995416253714,0.11817470887016848,0.2961728521014097,0.09297421324708437,0.14459706650362353,0.3847284128151429
-0.7601508300297324,-0.02235737735381566,-0.3130032829534192,0.5461587896432111,0.2961723529082791,0.09298336119131555,0.14457595293176911,0.3845371617754759
-1.0156637140733398,-0.11498079781962338,-0.4982501238850346,0.8368046952428146,0.29617165844709004,0.0929925421400247,0.14455460062323253,0.3843455962929475
-0.7888960294846381,-0.14053208622398414,-0.38646323711595637,0.6643334985133795,0.2961707680613631,0.09300175599683758,0.14453301017447168,0.38415371986394076
-0.25231897299306244,-0.07345995416253714,-0.1117868867690783,0.3257789271555996,0.2961696818967621,0.09301100265514066,0.14451118257145337,0.3839615364943724
0.2235737735381566,-0.07345995416253714,-0.03193911050545094,0.10859297571853319,0.29616840070793055,0.09302028201951855,0.1444891190994319,0.3837690505932274
0.45672928022794845,-0.2746763503468781,-0.012775644202180378,-0.16927728567888997,0.2961669254860237,0.09302959400493191,0.1444668211208515,0.3835762666530023
0.35452412661050536,-0.13733817517343905,0.047908665758176414,-0.3449423934588701,0.29616525728914606,0.09303893857756519,0.14444428990684396,0.38338318901526036
0.3832693260654113,-0.025551288404360755,0.0031939110505450944,-0.40243279236868185,0.2961633972767326,0.093048315800248,0.14442152657948393,0.383189821864974
