raw_ch1,raw_ch2,raw_ch3,raw_ch4,processed_ch1,processed_ch2,processed_ch3,processed_ch4
0.12136861992071357,-0.14372599727452925,-0.18524684093161545,0.05110257680872151,0.052539144700148366,0.10997619839384533,0.5777285301939344,0.909305412782631
0.04152084365708622,-0.18205292988107036,-0.14372599727452925,-0.01596955525272547,0.05257137181543813,0.10996214087473762,0.5797019275781446,0.911516749738954
0.03193911050545094,-0.19163466303270565,0.060684309960356786,-0.07026604311199207,0.05260318229841197,0.1099480589805282,0.5816738965152277,0.9137233482378525
0.047908665758176414,-0.09262342046580772,0.07026604311199207,0.07984777626362735,0.05263457859791496,0.10993395501568898,0.5836444006874637,0.9159251563843583
-0.03193911050545094,0.04471475470763132,0.08942950941526263,0.17566510777998018,0.05266556318416528,0.10991983186070471,0.5856134027550011,0.9181221214075714
-0.04471475470763132,0.05429648785926659,0.2139920403865213,0.45353536917740334,0.05269613852995377,0.10990569263587792,0.5875808643068292,0.9203141901935463
-0.035133021555996034,0.028745199454905845,0.11498079781962338,0.475892746531219,0.05272630711048741,0.10989154038846297,0.5895467461612962,0.9225013103214591
-0.07665386521308225,0.08304168731417244,-0.035133021555996034,-0.22996159563924676,0.052756071411207625,0.10987737796229731,0.5915110085951948,0.9246834311409389
-0.060684309960356786,0.12456253097125865,0.06707213206144698,-0.4247901697224975,0.05278543395939967,0.10986320804548447,0.5934736111387343,0.9268605040638465
-0.04152084365708622,0.1501138193756194,0.3257789271555996,-0.4311779918235877,0.05281439735847012,0.10984903337086227,0.5954345123739812,0.9290324823537115
-0.060684309960356786,0.08623559836471753,0.2746763503468781,-0.009581733151635281,0.05284296428736849,0.10983485693854128,0.5973936704053191,0.9311993209946285
0.035133021555996034,-0.012775644202180378,-0.1565016414767096,-0.1117868867690783,0.05287113747768135,0.10982068203204519,0.5993510436328227,0.9333609760937824
0.05429648785926659,-0.04152084365708622,-0.41201452552031714,-0.07665386521308225,0.052898919697470126,0.1098065119777463,0.6013065910749227,0.9355174037690128
0.012775644202180378,-0.038326932606541124,-0.1565016414767096,0.2139920403865213,0.052926313735365965,0.10979234988286919,0.6032602724286176,0.9376685595464349
-0.04152084365708622,-0.04152084365708622,-0.12136861992071357,-0.009581733151635281,0.05295332237375687,0.10977819854772884,0.6052120480334027,0.9398143984450388
0.02235737735381566,-0.09262342046580772,0.06387822101090188,-0.05429648785926659,0.05297994836320821,0.10976406051061918,0.6071618783709609,0.941954874998301
0.0031939110505450944,-0.12775644202180375,-0.2139920403865213,0.1533077304261645,0.05300619440527667,0.10974993817995586,0.609109723435864,0.9440899430214237
0.02235737735381566,-0.14053208622398414,-0.33855457135777994,0.10859297571853319,0.05303206312843312,0.1097358340552157,0.6110555427375804,0.9462195555948711
0.02235737735381566,-0.1533077304261645,0.0,0.22676768458870167,0.05305755706757562,0.10972175095022749,0.6129992957863596,0.9483436653714088
0.012775644202180378,-0.12775644202180375,-0.03193911050545094,-0.01596955525272547,0.05308267866780823,0.10970769212483097,0.6149409420778911,0.9504622248364889
-0.028745199454905845,-0.07345995416253714,0.17247119672943506,-0.3704936818632309,0.05310743029454798,0.10969366128016625,0.6168804404325203,0.9525751863974643
-0.038326932606541124,-0.012775644202180378,0.05110257680872151,-0.12775644202180375,0.053131814243477,0.10967966237956646,0.618817748653923,0.9546825025839375
-0.04471475470763132,0.02235737735381566,-0.07026604311199207,0.038326932606541124,0.05315583276708555,0.10966569934114692,0.6207528236487461,0.9567841262466843
-0.04152084365708622,0.05749039890981169,0.12775644202180375,0.23634941774033696,0.05317948810876103,0.10965177578906926,0.6226856214454046,0.9588800103267754
-0.04152084365708622,0.1117868867690783,0.17885901883052527,0.16927728567888997,0.053202782522767285,0.10963789503697147,0.6246160972431973,0.9609701076175913
-0.009581733151635281,0.1533077304261645,-0.019163466303270562,0.14053208622398414,0.05322571826997556,0.10962406030127571,0.6265442056360055,0.963054370939185
0.0031939110505450944,0.08942950941526263,-0.3353606603072349,0.12456253097125865,0.05324829758256638,0.10961027497215253,0.6284699007657965,0.965132753240861
-0.04471475470763132,0.06387822101090188,-0.047908665758176414,-0.1533077304261645,0.053270522619740836,0.10959654271308762,0.6303931365022898,0.9672052074479864
-0.08304168731417244,0.035133021555996034,0.41201452552031714,-0.2203798624876115,0.05329239547838228,0.10958286731878454,0.6323138667645347,0.9692716864148025
-0.047908665758176414,-0.019163466303270562,0.38646323711595637,-0.18524684093161545,0.05331391827132683,0.10956925247995575,0.6342320460087074,0.9713321431103945
-0.04152084365708622,-0.04471475470763132,0.3768815039643211,0.05110257680872151,0.053335093187612106,0.10955570160860278,0.6361476299631683,0.9733865307526456
0.03193911050545094,-0.060684309960356786,0.006387822101090189,0.038326932606541124,0.05335592247837705,0.10954221778692401,0.6380605759742629,0.9754348025479442
0.07026604311199207,-0.07984777626362735,-0.5238014122893954,-0.02235737735381566,0.05337640842065633,0.10952880383933378,0.6399708425310565,0.977476911161081
0.06387822101090188,-0.1469199083250743,-0.4503414581268582,-0.038326932606541124,0.053396553324019574,0.10951546248831219,0.6418783890776907,0.9795128083354737
0.07665386521308225,-0.18205292988107036,-0.2874519945490585,0.08304168731417244,0.053416359572978356,0.10950219659269816,0.6437831766915693,0.9815424448174264
0.02235737735381566,-0.1533077304261645,-0.28425808349851334,0.11498079781962338,0.05343582965114968,0.10948900942829395,0.6456851684207833,0.9835657705105042
0.012775644202180378,-0.10220515361744302,-0.09901124256689792,-0.1053990646679881,0.053454966105210014,0.10947590483564165,0.6475843286881708,0.9855827347437189
-0.012775644202180378,-0.05749039890981169,0.08942950941526263,-0.08942950941526263,0.053473771463977804,0.10946288711040425,0.6494806223811129,0.9875932864773816
-0.03193911050545094,0.009581733151635281,0.08304168731417244,-0.006387822101090189,0.05349224817795116,0.10944996070912993,0.6513740140532589,0.9895973742987672
-0.009581733151635281,0.05749039890981169,0.009581733151635281,0.28425808349851334,0.05351039861087053,0.10943712994487632,0.6532644673964723,0.9915949463471508
-0.04471475470763132,0.14053208622398414,-0.19802248513379583,-0.05110257680872151,0.05352822505375506,0.1094243988756365,0.6551519450396183,0.993585950503366
-0.03193911050545094,0.13414426412289396,-0.06387822101090188,-0.10220515361744302,0.053545729743503426,0.10941177148381069,0.6570364086555643,0.9955703346507748
-0.05110257680872151,0.09901124256689792,0.14053208622398414,-0.019163466303270562,0.0535629148907662,0.10939925194816788,0.6589178192018356,0.9975480465417736
-0.038326932606541124,0.09262342046580772,0.3832693260654113,-0.28425808349851334,0.053579782706569594,0.10938684473097408,0.6607961371898574,0.999519033572147
0.01596955525272547,0.028745199454905845,0.35133021555996036,-0.16927728567888997,0.05359633540857073,0.10937455445943406,0.6626713233232439,1.0014832430329417
-0.05749039890981169,0.0031939110505450944,0.3130032829534192,-0.08304168731417244,0.05361257520568061,0.1093623857046888,0.6645433393714136,1.003440622554334
-0.06387822101090188,-0.019163466303270562,0.12456253097125865,-0.33216674925668976,0.05362850429968225,0.10935034273460245,0.6664121484631433,1.0053911202173544
0.006387822101090189,-0.08942950941526263,0.1628894635777998,-0.4088206144697721,0.05364412491393259,0.10933842938688738,0.6682777145732698,1.0073346847599824
0.07665386521308225,-0.13414426412289396,-0.17566510777998018,-0.1501138193756194,0.053659439298469794,0.10932664919478928,0.6701400018271877,1.0092712661900634
0.038326932606541124,-0.11817470887016848,-0.5940674554013875,0.2938398166501486,0.053674449720680466,0.10931500568219471,0.6719989744471674,1.0112008160450559
0.04152084365708622,-0.11817470887016848,-0.47269883548067393,0.40243279236868185,0.05368915847684686,0.10930350259728512,0.6738545977052921,1.0131232871972278
0.038326932606541124,-0.12456253097125865,-0.22676768458870167,0.04471475470763132,0.05370356789233816,0.10929214398284728,0.6757068390245766,1.0150386338288815
0.0,-0.1053990646679881,0.047908665758176414,-0.17885901883052527,0.0537176802922916,0.10928093416489873,0.6775556678256835,1.0169468112317774
-0.01596955525272547,-0.05110257680872151,0.09262342046580772,-0.03193911050545094,0.05373149795602557,0.10926987769673635,0.6794010541777793,1.0188477751268854
-0.06387822101090188,-0.01596955525272547,0.028745199454905845,0.02235737735381566,0.05374502308575525,0.1092589791950409,0.6812429675608255,1.0207414810314983
-0.006387822101090189,-0.012775644202180378,0.17247119672943506,-0.11817470887016848,0.05375825782606044,0.10924824308621547,0.6830813763986163,1.0226278839035474
-0.08942950941526263,0.06707213206144698,0.19482857408325072,-0.3609119487115956,0.053771204306166324,0.109237673419486,0.6849162482072165,1.024506938223833
-0.025551288404360755,0.09581733151635283,-0.13414426412289396,0.025551288404360755,0.05378386467276599,0.10922727388732016,0.686747550019228,1.0263785985943379
0.047908665758176414,0.05110257680872151,-0.13095035307234884,0.04152084365708622,0.05379624111034484,0.1092170479931388,0.6885752486336185,1.028242820030952
0.009581733151635281,0.060684309960356786,0.09901124256689792,0.05429648785926659,0.053808335826084325,0.10920699915519978,0.6903993105186746,1.0300995574708975
-0.028745199454905845,0.07665386521308225,-0.25231897299306244,0.10220515361744302,0.0538201510063028,0.10919713068656084,0.6922197016937517,1.031948765268262
-0.04471475470763132,0.04471475470763132,-0.24593115089197226,0.025551288404360755,0.05383168878875739,0.10918744576792706,0.6940363879444688,1.0337903971661724
0.04471475470763132,-0.02235737735381566,-0.04152084365708622,0.19482857408325072,0.053842951275269946,0.10917794742095613,0.695849335163985,1.035624406438357
0.006387822101090189,0.0031939110505450944,-0.04152084365708622,0.08942950941526263,0.05385394055611186,0.10916863840450017,0.6976585091915791,1.037450746084775
-0.07026604311199207,-0.009581733151635281,0.1565016414767096,0.13095035307234884,0.05386465870847691,0.10915952107083025,0.6994638752310316,1.039269369058626
-0.02235737735381566,-0.02235737735381566,0.1596955525272547,0.09262342046580772,0.05387510779497965,0.10915059727941114,0.7012653976500236,1.0410802283299796
-0.0031939110505450944,-0.07665386521308225,0.22996159563924676,0.08623559836471753,0.05388528986855847,0.10914186842543805,0.7030630403372373,1.04288327680138
0.009581733151635281,-0.17566510777998018,0.19163466303270565,0.05429648785926659,0.05389520693743127,0.10913333563343777,0.7048567671451649,1.0446784671885723
0.01596955525272547,-0.23634941774033696,0.05429648785926659,0.08623559836471753,0.05390486091308499,0.10912500015346994,0.7066465420495456,1.0464657518923473
0.060684309960356786,-0.17566510777998018,-0.11817470887016848,0.1565016414767096,0.05391425360776296,0.10911686382837534,0.7084323288947839,1.0482450829796557
0.028745199454905845,-0.05749039890981169,-0.3609119487115956,-0.18524684093161545,0.05392338678383385,0.10910892929544228,0.7102140911568952,1.0500164124065283
-0.019163466303270562,0.009581733151635281,-0.19163466303270565,-0.05110257680872151,0.05393226219518616,0.10910119971957999,0.7119917923103972,1.051779692311849
0.025551288404360755,0.047908665758176414,-0.14053208622398414,-0.0031939110505450944,0.05394088157771578,0.1090936782967238,0.7137653963378345,1.0535348749669264
-0.04471475470763132,0.10220515361744302,0.009581733151635281,0.006387822101090189,0.05394924662561759,0.10908636796656562,0.7155348675376189,1.0552819123229484
-0.07026604311199207,0.08942950941526263,0.13733817517343905,0.13414426412289396,0.05395735900953069,0.10907927147434883,0.7173001698454562,1.05702075565302
-0.05110257680872151,0.08942950941526263,0.1053990646679881,0.08304168731417244,0.053965220430271445,0.10907239155093632,0.7190612664392865,1.0587513556593993
-0.05110257680872151,0.1117868867690783,0.19802248513379583,-0.22676768458870167,0.05397283265813181,0.10906573100646669,0.7208181198498456,1.060473662873162
-0.07984777626362735,0.06387822101090188,0.18205292988107036,-0.2235737735381566,0.05398019754043077,0.10905929274942835,0.7225706923000216,1.0621876281091402
-0.012775644202180378,-0.012775644202180378,-0.16927728567888997,-0.22676768458870167,0.053987316999363516,0.10905307972789041,0.7243189460006616,1.063893202911647
0.009581733151635281,-0.06707213206144698,0.012775644202180378,-0.08623559836471753,0.05399419300116999,0.10904709476584312,0.7260628431768275,1.065590339765989
0.009581733151635281,-0.07665386521308225,0.13095035307234884,0.038326932606541124,0.0540008274803496,0.10904134044842953,0.7278023457412673,1.0672789918308876
-0.03193911050545094,-0.028745199454905845,0.02235737735381566,0.16608337462834488,0.05400722228106044,0.10903581915516501,0.7295374149218476,1.0689591124265303
0.025551288404360755,-0.07345995416253714,-0.17566510777998018,-0.0031939110505450944,0.054013379159285654,0.10903053309860475,0.7312680111523214,1.0706306547578794
0.04152084365708622,-0.09901124256689792,-0.2682885282457879,0.12136861992071357,0.05401929981447782,0.10902548433109695,0.7329940943116865,1.0722935718694357
0.04471475470763132,-0.12456253097125865,-0.17247119672943506,-0.025551288404360755,0.054024985919897316,0.10902067484685124,0.7347156242626142,1.073947816579024
0.028745199454905845,-0.14372599727452925,-0.04152084365708622,-0.20121639618434092,0.054030439145283306,0.10901610677179313,0.7364325611830458,1.0755933414780765
0.006387822101090189,-0.12775644202180375,0.060684309960356786,-0.1628894635777998,0.05403566115443721,0.10901178252943777,0.7381448652352282,1.077230099171584
0.006387822101090189,-0.05749039890981169,0.02235737735381566,-0.047908665758176414,0.054040653566167426,0.10900770488625505,0.7398524959525484,1.0788580425831595
-0.009581733151635281,0.05749039890981169,-0.10859297571853319,0.06707213206144698,0.05404541790710425,0.10900387681736284,0.7415554119145721,1.0804771249229603
-0.038326932606541124,0.07345995416253714,0.019163466303270562,-0.12136861992071357,0.05404995559718924,0.10900030129238852,0.743253570751348,1.082087299387497
-0.006387822101090189,0.05429648785926659,0.04471475470763132,-0.1628894635777998,0.054054267971295415,0.10899698115724016,0.7449469291954232,1.0836885190985301
-0.02235737735381566,0.04152084365708622,-0.05429648785926659,-0.17247119672943506,0.054058356298911515,0.10899391910576901,0.7466354430322144,1.0852807373770053
-0.07984777626362735,0.06387822101090188,-0.025551288404360755,-0.028745199454905845,0.054062221797135275,0.10899111764445783,0.7483190670570627,1.0868639079653484
-0.038326932606541124,0.038326932606541124,0.09581733151635283,0.035133021555996034,0.05406586567774788,0.10898857906068884,0.7499977551131571,1.0884379848649497
-0.01596955525272547,0.028745199454905845,0.16608337462834488,0.38646323711595637,0.05406928919431925,0.10898630540348123,0.7516714602585297,1.0900029221109542
-0.019163466303270562,0.035133021555996034,0.2076042182854311,0.39604497026759167,0.05407249361917047,0.10898429843624906,0.7533401351666688,1.0915586742858991
-0.0031939110505450944,-0.006387822101090189,0.13414426412289396,0.19163466303270565,0.05407548018163794,0.10898255957545826,0.7550037325968907,1.0931051975567947
-0.0031939110505450944,-0.02235737735381566,0.13733817517343905,0.04471475470763132,0.05407825002488999,0.10898108983778061,0.7566622055846918,1.0946424499454923
-0.047908665758176414,-0.0031939110505450944,-0.0031939110505450944,0.009581733151635281,0.05408080419216264,0.10897988979412371,0.7583155072499476,1.0961703904781201
-0.06387822101090188,-0.04152084365708622,-0.306615460852329,-0.22996159563924676,0.05408314366187113,0.10897895955279141,0.7599635905244528,1.0976889782629649
0.04471475470763132,-0.1501138193756194,-0.3768815039643211,-0.43756581392467786,0.05408526942282307,0.10897829885180171,0.7616064084115887,1.0991981725472468
0.05749039890981169,-0.19163466303270565,-0.28425808349851334,-0.24273723984142714,0.054087182526676554,0.10897790736590286,0.7632439148722758,1.1006979336733107
0.04471475470763132,-0.1533077304261645,-0.2810641724479683,-0.32258501610505447,0.054088884094883445,0.1089777851338171,0.7648760654887897,1.10218822386122
0.019163466303270562,-0.09262342046580772,-0.2650946171952428,-0.2587067950941526,0.05409037530238644,0.10897793278915836,0.7665028174451923,1.1036690072650401
0.019163466303270562,-0.02235737735381566,-0.08304168731417244,-0.06387822101090188,0.05409165734004562,0.10897835142526736,0.7681241291707576,1.1051402496413572
0.038326932606541124,0.009581733151635281,-0.05110257680872151,0.1469199083250743,0.054092731371295534,0.10897904222814435,0.769739959752877,1.1066019177888602
-0.019163466303270562,0.05429648785926659,0.11817470887016848,0.38646323711595637,0.05409359851821591,0.10898000614366905,0.7713502682051862,1.1080539791004118
-0.047908665758176414,0.07984777626362735,0.22676768458870167,0.19163466303270565,0.05409425987255239,0.10898124378133088,0.7729550131419444,1.1094964017994233
-0.04471475470763132,0.09262342046580772,0.1117868867690783,-0.14372599727452925,0.05409471651453501,0.10898275554168647,0.7745541530368649,1.110929155359266
-0.05429648785926659,0.09901124256689792,0.2491250619425173,0.012775644202180378,0.05409496954095967,0.10898454179543392,0.7761476465692114,1.1123522102350358
-0.060684309960356786,0.06387822101090188,0.12456253097125865,0.19163466303270565,0.05409502009520179,0.10898660298354781,0.777735452768076,1.1137655371893658
0.012775644202180378,-0.006387822101090189,0.16927728567888997,0.33216674925668976,0.05409486937919282,0.10898893957713873,0.7793175310247678,1.115169107115671
0.03193911050545094,-0.038326932606541124,0.01596955525272547,0.07665386521308225,0.05409451862771756,0.10899155190379686,0.7808938409221271,1.1165628915032226
0.035133021555996034,-0.028745199454905845,-0.1501138193756194,0.08942950941526263,0.05409396906478621,0.10899443998125494,0.7824643418971008,1.1179468626731532
-0.028745199454905845,-0.0031939110505450944,0.06387822101090188,0.03193911050545094,0.05409322188782779,0.10899760345815004,0.784028993002202,1.1193209933189676
-0.05749039890981169,-0.025551288404360755,0.035133021555996034,-0.2874519945490585,0.054092278280849004,0.10900104158859457,0.7855877528366597,1.1206852560654101
-0.012775644202180378,-0.07984777626362735,0.1053990646679881,-0.2650946171952428,0.05409113943056942,0.10900475323106566,0.787140579454022,1.1220396237333905
0.035133021555996034,-0.14372599727452925,0.0031939110505450944,-0.3002276387512388,0.054089806524751254,0.10900873699643605,0.7886874302561344,1.1233840700616553
0.07345995416253714,-0.17247119672943506,-0.047908665758176414,-0.07984777626362735,0.054088280744177035,0.10901299156655027,0.7902282619251595,1.124718570126188
0.05110257680872151,-0.13414426412289396,-0.12775644202180375,0.14053208622398414,0.05408656329143654,0.10901751601952941,0.7917630303815991,1.126043100073767
0.0,-0.08623559836471753,-0.24593115089197226,-0.24593115089197226,0.05408465542402581,0.1090223099544427,0.7932916910231438,1.1273576366255937
0.035133021555996034,-0.04471475470763132,-0.28425808349851334,-0.08623559836471753,0.05408255842151619,0.10902737335002474,0.7948141993768891,1.128662156950175
0.038326932606541124,0.006387822101090189,-0.12775644202180375,0.09901124256689792,0.05408027353172592,0.10903270627060835,0.7963305117428585,1.129956638679827
-0.06387822101090188,0.07026604311199207,0.07665386521308225,0.17885901883052527,0.05407780197677631,0.1090383085991947,0.7978405852517316,1.1312410597145064
-0.05429648785926659,0.07665386521308225,0.028745199454905845,0.3704936818632309,0.054075145003704195,0.10904417995527013,0.7993443773101218,1.1325153982557228
-0.03193911050545094,0.05749039890981169,0.12136861992071357,0.32258501610505447,0.05407230391909649,0.10905031978989985,0.8008418450110769,1.1337796334280017
-0.05749039890981169,0.06387822101090188,-0.02235737735381566,0.27787026139742316,0.05406928008408183,0.1090567274748233,0.8023329449218832,1.1350337459790718
-0.038326932606541124,0.019163466303270562,-0.025551288404360755,0.3002276387512388,0.05406607489743568,0.10906340228277783,0.8038176330525788,1.1362777184892623
-0.07665386521308225,0.04152084365708622,0.04152084365708622,0.08623559836471753,0.05406268979888878,0.10907034330107453,0.805295864727949,1.1375115351253005
-0.025551288404360755,0.028745199454905845,-0.028745199454905845,-0.4152084365708622,0.05405912628513319,0.10907754934809717,0.8067675944674484,1.1387351812690527
0.0,0.009581733151635281,0.16927728567888997,-0.7825082073835481,0.05405538589605731,0.10908501892697417,0.808232776065326,1.139948643756625
-0.009581733151635281,-0.0031939110505450944,0.19163466303270565,-0.8048655847373637,0.054051470147775914,0.10909275017706578,0.8096913629533928,1.1411519123567795
-0.05749039890981169,-0.02235737735381566,-0.05429648785926659,-0.5589344338453914,0.05404738047472666,0.1091007408098931,0.8111433086684516,1.1423449815189641
0.0031939110505450944,-0.08942950941526263,-0.2555128840436075,-0.18844075198216054,0.05404311824129234,0.10910898812368561,0.8125885670588009,1.143527850631068
0.04152084365708622,-0.16927728567888997,-0.2810641724479683,0.08623559836471753,0.05403868477317653,0.10911748920557732,0.8140270924283277,1.144700522464444
0.04152084365708622,-0.16927728567888997,-0.1596955525272547,0.0,0.05403408136514956,0.10912624130495212,0.8154588399315694,1.1458630010321076
0.04471475470763132,-0.13095035307234884,-0.03193911050545094,0.1596955525272547,0.054029309297442714,0.10913524217087509,0.8168837656917854,1.1470152901369346
-0.009581733151635281,-0.05110257680872151,0.13414426412289396,0.28425808349851334,0.05402436985506628,0.10914449011563598,0.8183018262960547,1.1481573930761986
-0.02235737735381566,0.028745199454905845,0.1628894635777998,0.3641058597621407,0.05401926431013361,0.10915398377606093,0.8197129783252418,1.149289313273101
-0.025551288404360755,0.060684309960356786,-0.02235737735381566,0.35771803766105054,0.05401399388613497,0.10916372178624385,0.8211171783354708,1.150411055195699
-0.012775644202180378,0.1117868867690783,-0.20121639618434092,-0.047908665758176414,0.05400855974353022,0.10917370263151187,0.8225143829085142,1.1515226247996915
-0.05749039890981169,0.12456253097125865,0.028745199454905845,-0.27787026139742316,0.054002962987910116,0.10918392476268218,0.8239045486099684,1.15262402916514
-0.047908665758176414,0.060684309960356786,-0.006387822101090189,0.17247119672943506,0.05399720470035755,0.10919438678299855,0.8252876318948161,1.1537152759193332
0.006387822101090189,0.025551288404360755,0.2587067950941526,0.25231897299306244,0.05399128597289855,0.1092050874561003,0.8266635889402932,1.1547963731137005
-0.025551288404360755,0.025551288404360755,0.08304168731417244,0.11817470887016848,0.053985207898722215,0.10921602550663205,0.8280323757710836,1.155867329313242
0.025551288404360755,-0.04152084365708622,-0.16608337462834488,-0.09262342046580772,0.053978971530664985,0.10922719941665307,0.8293939486472997,1.1569281534357698
0.06387822101090188,-0.05110257680872151,-0.038326932606541124,-0.21718595143706637,0.05397257787625712,0.10923860736850255,0.8307482641509097,1.1579788544267324
0.047908665758176414,-0.038326932606541124,-0.07345995416253714,-0.11817470887016848,0.05396602794149412,0.10925024729000378,0.8320952789336065,1.1590194411426384
0.019163466303270562,-0.06707213206144698,-0.0031939110505450944,0.13414426412289396,0.053959322769908176,0.10926211690493065,0.8334349494021418,1.160049922430625
0.0,-0.08942950941526263,-0.05110257680872151,0.11498079781962338,0.053952463422791294,0.10927421379013413,0.8347672314621933,1.1610703070887542
-0.012775644202180378,-0.1053990646679881,-0.06387822101090188,-0.07345995416253714,0.05394545091349077,0.10928653548840588,0.8360920804131775,1.1620806037035423
-0.025551288404360755,-0.1501138193756194,0.025551288404360755,0.13733817517343905,0.053938286162714684,0.10929907967019366,0.8374094509991852,1.1630808205137715
-0.04471475470763132,-0.09262342046580772,-0.0031939110505450944,-0.012775644202180378,0.05393097001039208,0.10931184428819533,0.8387192974401528,1.1640709653183225
-0.01596955525272547,-0.07665386521308225,0.05749039890981169,0.20121639618434092,0.05392350325605525,0.10932482762355868,0.8400215733502561,1.1650510454236978
-0.02235737735381566,-0.028745199454905845,0.0,-0.19163466303270565,0.05391588667704085,0.10933802815836335,0.8413162316882307,1.1660210677758063
-0.06707213206144698,0.035133021555996034,0.060684309960356786,-0.16927728567888997,0.053908121025666104,0.1093514443547486,0.8426032247943466,1.166981039331075
-0.07345995416253714,0.09581733151635283,-0.05429648785926659,-0.06707213206144698,0.05390020706153779,0.10936507450472213,0.8438825044611921,1.1679309672763163
-0.012775644202180378,0.09581733151635283,0.07026604311199207,0.0,0.05389214560884906,0.10937891676728644,0.84515402205866,1.1688708587676062
0.0,0.047908665758176414,0.2619007061446977,0.2139920403865213,0.053883937547351206,0.109392969307838,0.8464177287903317,1.1698007204991814
0.01596955525272547,0.047908665758176414,0.1117868867690783,0.24593115089197226,0.05387558372931077,0.10940723032498403,0.8476735761514721,1.1707205587459166
-0.06387822101090188,0.047908665758176414,-0.07026604311199207,-0.07665386521308225,0.05386708492971656,0.10942169794424593,0.8489215162709944,1.1716303798698628
-0.0031939110505450944,0.05429648785926659,-0.33216674925668976,-0.12136861992071357,0.05385844187624564,0.10943637013288314,0.8501615018973352,1.1725301905208474
0.028745199454905845,0.025551288404360755,-0.4503414581268582,-0.33216674925668976,0.053849655280342,0.10945124467873663,0.8513934867007135,1.1734199974743835
0.0,-0.009581733151635281,-0.29064590559960357,-0.012775644202180378,0.05384072581676053,0.10946631915006202,0.8526174262027792,1.1742998077172544
0.02235737735381566,-0.08304168731417244,-0.12775644202180375,-0.07984777626362735,0.053831654090691086,0.1094815908351784,0.853833278300434,1.175169628484498
0.019163466303270562,-0.12775644202180375,0.060684309960356786,-0.05429648785926659,0.053822440627752814,0.10949705680984803,0.8550410026741588,1.1760294668129327
0.028745199454905845,-0.1565016414767096,0.32258501610505447,0.05110257680872151,0.053813085885690684,0.10951271420036239,0.856240559870535,1.1768793291110673
0.05429648785926659,-0.13733817517343905,0.19802248513379583,-0.25231897299306244,0.05380359028183744,0.10952856048258779,0.8574319111234499,1.1777192211644867
0.006387822101090189,-0.11498079781962338,0.06387822101090188,0.09262342046580772,0.053793954224120685,0.10954459362851578,0.8586150186543565,1.178549148486123
-0.02235737735381566,-0.07984777626362735,0.12456253097125865,0.2107981293359762,0.05378417811445587,0.1095608120610419,0.8597898455199237,1.179369116693547
-0.05110257680872151,-0.03193911050545094,-0.09901124256689792,0.08942950941526263,0.05377426232816442,0.10957721447376752,0.8609563551154212,1.180179131622357
-0.04152084365708622,-0.006387822101090189,-0.025551288404360755,-0.18205292988107036,0.053764207223232524,0.10959379957618347,0.8621145108957092,1.1809791992580079
-0.05749039890981169,0.009581733151635281,0.08942950941526263,-0.18524684093161545,0.053754013182113015,0.10961056583703906,0.8632642762188962,1.181769325714116
0.009581733151635281,0.038326932606541124,0.12456253097125865,-0.16927728567888997,0.05374368063370681,0.10962751133030937,0.8644056142421193,1.182549517339993
0.028745199454905845,0.047908665758176414,0.06707213206144698,0.03193911050545094,0.053733210031125515,0.10964463373875846,0.8655384880209902,1.1833197807592417
0.006387822101090189,0.06707213206144698,0.05429648785926659,0.10859297571853319,0.05372260180668957,0.10966193046184743,0.8666628606093792,1.1840801226063862
-0.009581733151635281,0.10220515361744302,0.01596955525272547,0.02235737735381566,0.05371185633563562,0.1096793987547196,0.8677786949309391,1.184830549153444
-0.05110257680872151,0.1053990646679881,-0.19802248513379583,-0.038326932606541124,0.05370097392434287,0.10969703588283192,0.8688859536451568,1.1855710660733332
-0.047908665758176414,0.06707213206144698,-0.14372599727452925,-0.047908665758176414,0.05368995483942562,0.10971483924872623,0.8699845993604282,1.186301678297978
0.0031939110505450944,-0.038326932606541124,0.18844075198216054,0.13414426412289396,0.05367879935389921,0.1097328063885187,0.8710745950932328,1.1870223900077141
-0.028745199454905845,-0.05110257680872151,0.025551288404360755,0.17566510777998018,0.05366750774634677,0.10975093483724711,0.8721559044969545,1.1877332048878075
0.006387822101090189,-0.05110257680872151,-0.2746763503468781,-0.04152084365708622,0.053656080261028395,0.10976922200237593,0.8732284917593007,1.1884341264843366
-0.009581733151635281,-0.04152084365708622,-0.08623559836471753,-0.19482857408325072,0.0536445170798076,0.10978766512584016,0.8742923215756465,1.1891251583364928
0.028745199454905845,-0.1053990646679881,-0.2076042182854311,-0.2139920403865213,0.053632818312085044,0.10980626130934072,0.8753473593018313,1.1898063040268763
0.05749039890981169,-0.18205292988107036,-0.22996159563924676,-0.09901124256689792,0.053620984011218786,0.10982500765105176,0.8763935710777475,1.19047756740523
0.035133021555996034,-0.1628894635777998,-0.2107981293359762,-0.01596955525272547,0.05360901422497101,0.10984390154109966,0.8774309239983741,1.1911389526179212
-0.035133021555996034,-0.08942950941526263,0.12136861992071357,0.060684309960356786,0.05359690903636337,0.10986294091641641,0.8784593862647878,1.1917904636831227
-0.038326932606541124,-0.04152084365708622,0.038326932606541124,-0.006387822101090189,0.05358466856399456,0.10988212421173774,0.8794789269687854,1.1924321040348265
-0.0031939110505450944,0.0,-0.06707213206144698,-0.05749039890981169,0.053572292940819596,0.10990145003704462,0.8804895155533031,1.1930638763411998
-0.012775644202180378,0.04152084365708622,-0.10859297571853319,-0.09262342046580772,0.05355978228051513,0.10992091683638265,0.8814911213863755,1.1936857825275
-0.025551288404360755,0.07345995416253714,-0.05429648785926659,0.012775644202180378,0.05354713664120589,0.10994052274307119,0.8824837136887481,1.1942978239040045
-0.047908665758176414,0.08623559836471753,0.19163466303270565,0.04152084365708622,0.05353435602487302,0.10996026566688222,0.8834672616646274,1.1949000012211664
-0.038326932606541124,0.07984777626362735,0.3768815039643211,-0.07984777626362735,0.05352144041824212,0.10998014346629084,0.8844417348703446,1.195492314607789
-0.038326932606541124,0.06387822101090188,0.10859297571853319,0.08942950941526263,0.05350838983221051,0.11000015404488427,0.885407103885576,1.1960747636155846
0.03193911050545094,0.012775644202180378,-0.13095035307234884,0.009581733151635281,0.05349520431112701,0.11002029531799497,0.8863633406363839,1.1966473473611214
0.03193911050545094,0.006387822101090189,-0.1053990646679881,0.14372599727452925,0.05348188392198264,0.11004056506360171,0.887310417983311,1.1972100645693255
-0.01596955525272547,-0.006387822101090189,0.07345995416253714,0.047908665758176414,0.05346842873819289,0.11006096073691997,0.8882483091846617,1.1977629136072685
0.0,-0.04152084365708622,0.09901124256689792,0.18205292988107036,0.05345483881327782,0.11008147937153556,0.8891769876389787,1.1983058926354546
0.0031939110505450944,-0.07345995416253714,0.047908665758176414,0.07665386521308225,0.05344111414062128,0.11010211763127697,0.8900964267593513,1.198838999794805
-0.03193911050545094,-0.08304168731417244,0.009581733151635281,0.09901124256689792,0.053427254625056576,0.11012287197607891,0.8910065998364644,1.199362233301675
-0.012775644202180378,-0.12456253097125865,-0.028745199454905845,-0.047908665758176414,0.05341326009319996,0.11014373885796912,0.891907479827733,1.1998755913652612
0.0031939110505450944,-0.14053208622398414,0.06707213206144698,-0.18205292988107036,0.05339913031558699,0.11016471490939526,0.8927990391956622,1.2003790720664351
-0.012775644202180378,-0.1053990646679881,0.09262342046580772,-0.23954332879088208,0.053384865001346093,0.11018579710312046,0.8936812499775115,1.2008726735199329
0.0,-0.06387822101090188,0.0031939110505450944,-0.03193911050545094,0.05337046377941245,0.11020698278872423,0.8945540839682049,1.2013563942462915
0.006387822101090189,-0.012775644202180378,-0.05110257680872151,-0.09581733151635283,0.05335592618882998,0.11022826953615888,0.8954175127422271,1.2018302332073272
0.0031939110505450944,0.0031939110505450944,-0.2810641724479683,-0.028745199454905845,0.05334125167400762,0.1102496548580973,0.8962715076809393,1.2022941894108057
0.0,0.038326932606541124,-0.36729977081268583,-0.2587067950941526,0.05332643958166105,0.11027113597258809,0.8971160405576141,1.2027482616722165
-0.038326932606541124,0.08623559836471753,-0.09262342046580772,0.2235737735381566,0.053311489167385887,0.11029270975446437,0.8979510844653105,1.2031924489250152
-0.006387822101090189,0.07026604311199207,0.17885901883052527,0.2491250619425173,0.05329639962127333,0.11031437287989274,0.8987766140856726,1.2036267508271286
0.028745199454905845,0.07984777626362735,0.18524684093161545,-0.08623559836471753,0.053281170096307555,0.11033612199990146,0.89959260524078,1.2040511680852302
-0.05749039890981169,0.07984777626362735,0.10859297571853319,-0.006387822101090189,0.05326579972833267,0.11035795382015552,0.9003990345569388,1.2044657021655303
-0.1501138193756194,0.060684309960356786,0.1469199083250743,0.2619007061446977,0.053250287699552326,0.11037986511085443,0.9011958793643476,1.2048703547332884
-0.060684309960356786,0.009581733151635281,-0.24593115089197226,0.1565016414767096,0.053234633365575545,0.11040185265683347,0.9019831176364286,1.205265127547966
0.009581733151635281,-0.025551288404360755,-0.373687592913776,0.13095035307234884,0.05321883632375878,0.11042391312052638,0.9027607282577168,1.20565002281025
0.038326932606541124,-0.07345995416253714,-0.09262342046580772,-0.14053208622398414,0.05320289633129797,0.11044604291761252,0.9035286915539629,1.2060250432837452
0.08942950941526263,-0.09581733151635283,-0.09581733151635283,-0.16927728567888997,0.05318681320151024,0.11046823826168384,0.9042869893239063,1.2063901921477937
0.028745199454905845,-0.11817470887016848,0.12775644202180375,-0.2107981293359762,0.05317058680864314,0.11049049536026555,0.9050356042074937,1.2067454729996785
0.060684309960356786,-0.18524684093161545,-0.038326932606541124,-0.11498079781962338,0.05315421712688375,0.11051281064789692,0.9057745191195403,1.2070908899983286
0.07345995416253714,-0.18205292988107036,0.028745199454905845,-0.19482857408325072,0.053137704231243935,0.11053518103327725,0.9065037169878446,1.2074264479003445
0.019163466303270562,-0.08942950941526263,0.0,-0.16927728567888997,0.053121048295228374,0.11055760408269696,0.9072231804784496,1.2077521520064247
0.009581733151635281,-0.038326932606541124,0.08942950941526263,-0.012775644202180378,0.05310424956859388,0.11058007793952195,0.9079328917635349,1.2080680080886395
-0.012775644202180378,-0.01596955525272547,-0.14372599727452925,0.047908665758176414,0.053087308306821936,0.11060260097509508,0.908632832603662,1.2083740220919417
-0.06387822101090188,0.04152084365708622,-0.17566510777998018,0.028745199454905845,0.05307022472167294,0.11062517143783977,0.909322984756386,1.2086701996590146
-0.04152084365708622,0.08623559836471753,0.07026604311199207,-0.04471475470763132,0.05305299900909786,0.11064778732275707,0.9100033303877635,1.2089565458553106
-0.047908665758176414,0.09581733151635283,0.1628894635777998,-0.2682885282457879,0.053035631406199484,0.11067044646967013,0.9106738521742713,1.2092330652725827
-0.025551288404360755,0.09581733151635283,-0.16927728567888997,-0.2874519945490585,0.05301812220978492,0.11069314674635214,0.9113345332582583,1.209499762591851
0.006387822101090189,0.07665386521308225,0.0,0.08304168731417244,0.05300047174836161,0.11071588616158812,0.9119853572612311,1.209756643302384
0.009581733151635281,0.035133021555996034,-0.006387822101090189,0.2491250619425173,0.05298268033066434,0.11073866284668628,0.9126263080645007,1.2100037139060766
-0.047908665758176414,0.035133021555996034,0.303421549801784,0.2810641724479683,0.05296474820937575,0.11076147492696257,0.9132573694695787,1.210240981775311
-0.05110257680872151,-0.01596955525272547,0.18844075198216054,-0.13095035307234884,0.052946675601259874,0.11078432036103378,0.9138785254698667,1.2104684552435523
-0.028745199454905845,-0.025551288404360755,0.08942950941526263,-0.2682885282457879,0.052928462741259015,0.11080719682598185,0.9144897608988787,1.2106861437016103
-0.04152084365708622,-0.019163466303270562,-0.08304168731417244,-0.09901124256689792,0.052910109907002484,0.1108301016640557,0.915091061484954,1.2108940574562312
-0.047908665758176414,-0.05110257680872151,-0.23954332879088208,-0.0031939110505450944,0.052891617411813786,0.11085303188246212,0.9156824134706912,1.211092207425699
0.05749039890981169,-0.16608337462834488,-0.1565016414767096,0.2491250619425173,0.05287298561058453,0.1108759842635184,0.9162638036080647,1.2112806047059999
0.07026604311199207,-0.1596955525272547,0.09581733151635283,0.35452412661050536,0.052854214928670436,0.1108989556623635,0.916835219408818,1.2114592605578909
0.028745199454905845,-0.12136861992071357,0.006387822101090189,0.009581733151635281,0.05283530588711787,0.11092194335496937,0.9173966490135553,1.2116281869768313
-0.009581733151635281,-0.11498079781962338,0.0,0.08304168731417244,0.05281625908520702,0.11094494516874993,0.9179480806495625,1.2117873968070112
-0.009581733151635281,-0.07345995416253714,0.21718595143706637,0.18524684093161545,0.0527970751330353,0.11096795937693049,0.9184895022365184,1.2119369031600293
-0.04152084365708622,-0.0031939110505450944,-0.07345995416253714,0.019163466303270562,0.05277775459237308,0.11099098448873855,0.9190209015587023,1.2120767190789774
-0.006387822101090189,0.028745199454905845,-0.4279840807730426,-0.27148243929633303,0.05275829797111439,0.11101401898037068,0.9195422668515858,1.212206857629129
-0.038326932606541124,0.08942950941526263,-0.19163466303270565,-0.3257789271555996,0.05273870574015105,0.11103706109444662,0.9200535875064559,1.2123273322140455
-0.028745199454905845,0.12136861992071357,0.4215962586719524,0.05429648785926659,0.05271897834280054,0.11106010889319987,0.9205548546872417,1.2124381570843532
-0.05749039890981169,0.12136861992071357,0.2938398166501486,0.32897283820614465,0.05269911621365226,0.11108316050611064,0.9210460616951719,1.2125393475313606
-0.009581733151635281,0.06707213206144698,-0.28425808349851334,0.07026604311199207,0.05267911980428431,0.11110621431834176,0.9215272041005583,1.2126309196925804
0.02235737735381566,0.009581733151635281,-0.24273723984142714,-0.17247119672943506,0.052658989579854175,0.11112926892650453,0.9219982796150016,1.2127128903621227
0.038326932606541124,0.01596955525272547,0.05429648785926659,-0.08942950941526263,0.0526387259902277,0.11115232289387157,0.9224592876492137,1.2127852767569005
0.019163466303270562,-0.012775644202180378,0.11498079781962338,-0.12456253097125865,0.052618329459919316,0.11117537449914654,0.9229102286302092,1.2128480962611772
-0.025551288404360755,-0.038326932606541124,0.1565016414767096,-0.006387822101090189,0.052597800395741266,0.11119842163247205,0.9233511033809237,1.2129013662424142
0.006387822101090189,-0.07984777626362735,0.05749039890981169,0.028745199454905845,0.05257713917918079,0.11122146184523662,0.9237819129022832,1.2129451037884436
0.012775644202180378,-0.11498079781962338,-0.08942950941526263,0.07345995416253714,0.05255634614375503,0.1112444925183736,0.9242026583397697,1.2129793254217331
0.025551288404360755,-0.11817470887016848,-0.14053208622398414,0.1533077304261645,0.05253542155832261,0.11126751109502551,0.9246133408743373,1.2130040470870287
0.019163466303270562,-0.14053208622398414,-0.12136861992071357,0.16927728567888997,0.052514365631406865,0.11129051528407119,0.9250139617408295,1.2130192844914172
0.0031939110505450944,-0.14053208622398414,-0.06387822101090188,0.14372599727452925,0.05249317852263302,0.11131350319173154,0.925404522352772,1.2130250535205722
-0.0031939110505450944,-0.08942950941526263,-0.11498079781962338,0.09901124256689792,0.05247186033245706,0.11133647337644573,0.9257850242708372,1.2130213704176744
-0.06387822101090188,-0.012775644202180378,-0.035133021555996034,-0.13733817517343905,0.05245041109127258,0.11135942475372329,0.9261554690594345,1.2130082516961809
-0.07665386521308225,0.05749039890981169,-0.03193911050545094,-0.5589344338453914,0.05242883080691151,0.11138235633553963,0.9265158581342192,1.212985714264537
-0.06387822101090188,0.09901124256689792,0.08942950941526263,-0.3193911050545094,0.05240711956160787,0.1114052670216658,0.9268661925987874,1.2129537762603528
-0.04152084365708622,0.10859297571853319,0.028745199454905845,-0.2810641724479683,0.05238527757228907,0.11142815564186948,0.9272064731850421,1.2129124579670354
-0.006387822101090189,0.09901124256689792,-0.09581733151635283,0.0,0.05236330516614517,0.11145102113458395,0.9275367003107828,1.2128617816987224
0.02235737735381566,0.05749039890981169,-0.035133021555996034,0.07665386521308225,0.05234120270475321,0.11147386263321167,0.9278568741326091,1.2128017707393086
0.025551288404360755,0.0,0.05429648785926659,-0.02235737735381566,0.05231897052219027,0.11149667936913012,0.9281669945522959,1.2127324482913593
-0.019163466303270562,-0.019163466303270562,0.09901124256689792,0.16608337462834488,0.05229660891040462,0.11151947044210114,0.9284670612059726,1.2126538370393347
-0.05749039890981169,-0.006387822101090189,0.09581733151635283,0.1053990646679881,0.0522741181351301,0.11154223460934447,0.928757073543053,1.2125659592826967
-0.038326932606541124,-0.0031939110505450944,0.12775644202180375,-0.038326932606541124,0.05225149846749203,0.11156497019287731,0.9290370310163047,1.2124688371794392
0.028745199454905845,-0.04152084365708622,0.06387822101090188,0.02235737735381566,0.05222875021430039,0.11158767507190132,0.9293069332326488,1.21236249267891
0.02235737735381566,-0.07345995416253714,-0.11498079781962338,0.009581733151635281,0.052205873714356005,0.1116103467528904,0.9295667799681618,1.2122469471998152
0.0,-0.11498079781962338,-0.17566510777998018,0.22676768458870167,0.05218286930212106,0.11163298255039243,0.9298165711752082,1.2121222214950573
0.028745199454905845,-0.1596955525272547,-0.27787026139742316,0.3098093719028741,0.05215973726879235,0.11165557984839317,0.9300563072408803,1.211988336088821
-0.006387822101090189,-0.13095035307234884,-0.16608337462834488,-0.009581733151635281,0.05213647784394803,0.11167813636337938,0.9302859894640481,1.21184531200426
-0.0031939110505450944,-0.1053990646679881,-0.05749039890981169,-0.22676768458870167,0.052113091192651374,0.1117006502912718,0.9305056202559601,1.2116931709692067
0.028745199454905845,-0.05749039890981169,-0.1565016414767096,-0.4503414581268582,0.052089577409420856,0.11172312025214838,0.9307152028079069,1.2115319353171232
0.02235737735381566,-0.01596955525272547,0.0,-0.25231897299306244,0.05206593652347104,0.11174554507034339,0.930914740632777,1.2113616284813262
0.0031939110505450944,0.009581733151635281,-0.19482857408325072,-0.05749039890981169,0.05204216851822945,0.11176792349549138,0.9311042373369105,1.2111822755046115
-0.03193911050545094,0.08942950941526263,-0.13414426412289396,0.07345995416253714,0.05201827333539209,0.1117902540116046,0.9312836966642448,1.2109939025383973
-0.038326932606541124,0.09262342046580772,0.006387822101090189,-0.019163466303270562,0.05199425087732393,0.11181253487439229,0.9314531226616407,1.2107965358452601
-0.012775644202180378,0.06707213206144698,0.1628894635777998,-0.038326932606541124,0.05197010103015709,0.11183476430154678,0.93161251962244,1.2105902011861738
-0.025551288404360755,0.060684309960356786,0.20121639618434092,-0.038326932606541124,0.05194582367535246,0.11185694057794875,0.9317618919985383,1.2103749236153094
-0.025551288404360755,0.035133021555996034,0.2203798624876115,0.13095035307234884,0.051921418677950505,0.11187906200262672,0.9319012447253184,1.2101507274979009
-0.08304168731417244,0.012775644202180378,0.4982501238850346,0.4503414581268582,0.051896885896544565,0.1119011267665165,0.9320305838650524,1.2099176369290618
-0.019163466303270562,-0.01596955525272547,0.12136861992071357,0.306615460852329,0.0518722252313658,0.11192313281881099,0.9321499172854061,1.2096756767121422
-0.006387822101090189,-0.019163466303270562,-0.03193911050545094,0.4056267034192269,0.05184743664606461,0.11194507776533333,0.9322592547456986,1.2094248733791448
0.006387822101090189,-0.03193911050545094,-0.19482857408325072,-0.047908665758176414,0.05182252011577224,0.11196695884165755,0.9323586070805494,1.2091652554754855
0.012775644202180378,-0.047908665758176414,0.04471475470763132,-0.32258501610505447,0.051797475560059925,0.11198877295529082,0.9324479854328769,1.208896853064773
-0.01596955525272547,-0.09901124256689792,-0.1117868867690783,-0.39923888131813673,0.05177230282244668,0.11201051678833357,0.932527401080312,1.2086196972977148
-0.006387822101090189,-0.12456253097125865,-0.2555128840436075,-0.2682885282457879,0.05174700167895597,0.11203218697899835,0.9325968654815777,1.2083338206758367
0.05110257680872151,-0.1533077304261645,-0.20441030723488604,-0.27148243929633303,0.051721571852123935,0.11205378036279068,0.9326563905697192,1.208039257417813
0.07026604311199207,-0.14372599727452925,-0.2938398166501486,-0.25231897299306244,0.05169601305189693,0.11207529419333985,0.9327059892652707,1.2077360433131654
0.04471475470763132,-0.07665386521308225,-0.07665386521308225,-0.16608337462834488,0.051670325046962104,0.11209672623883284,0.9327456757485543,1.2074242153621237
-0.006387822101090189,-0.009581733151635281,0.08623559836471753,-0.10220515361744302,0.05164450769982519,0.11211807465618619,0.9327754652149932,1.2071038113921353
-0.012775644202180378,0.012775644202180378,0.17566510777998018,0.18205292988107036,0.05161856092077201,0.11213933766895194,0.9327953733447543,1.2067748696097065
-0.038326932606541124,0.060684309960356786,0.3257789271555996,0.4439536360257681,0.051592484601842376,0.11216051327729437,0.9328054161714467,1.2064374285007309
-0.05429648785926659,0.11498079781962338,0.2107981293359762,0.41201452552031714,0.05156627861168357,0.11218159922912183,0.932805610583406,1.2060915274820512
-0.03193911050545094,0.12136861992071357,0.11498079781962338,0.32897283820614465,0.05153994284152167,0.11220259323769124,0.9327959747386061,1.2057372078054704
-0.06387822101090188,0.10220515361744302,0.07984777626362735,0.19482857408325072,0.05151347724161057,0.11222349322847068,0.9327765277983556,1.2053745127951443
-0.03193911050545094,0.05110257680872151,-0.05749039890981169,-0.06707213206144698,0.051486881833159255,0.11224429741797687,0.9327472892899518,1.2050034872295066
0.0,0.0,-0.3353606603072349,-0.4215962586719524,0.05146015669693225,0.11226500417364836,0.932708278793961,1.2046241765642407
0.019163466303270562,-0.009581733151635281,-0.2235737735381566,-0.5557405227948463,0.051433301923754844,0.1122856117447995,0.9326595163223118,1.2042366270154778
0.047908665758176414,-0.025551288404360755,-0.22996159563924676,-0.43756581392467786,0.05140631756901264,0.11230611804269394,0.9326010229720851,1.2038408866271493
0.02235737735381566,-0.07026604311199207,-0.1628894635777998,-0.2682885282457879,0.05137920366450908,0.1123265206046217,0.9325328211361246,1.2034370060665749
0.02235737735381566,-0.12456253097125865,-0.08304168731417244,-0.19163466303270565,0.05135196024767499,0.1123468167479328,0.9324549341995624,1.2030250382559171
0.0031939110505450944,-0.16608337462834488,-0.23954332879088208,-0.16927728567888997,0.05132458735202888,0.11236700385426623,0.9323673861382955,1.2026050373776378
-0.02235737735381566,-0.1533077304261645,-0.22996159563924676,-0.0031939110505450944,0.05129708497466999,0.11238707968343031,0.9322702014382123,1.202177057993984
0.0,-0.11817470887016848,-0.11498079781962338,0.2203798624876115,0.051269453055468636,0.11240704256584748,0.9321634053280513,1.2017411544384888
0.035133021555996034,-0.06387822101090188,0.2076042182854311,0.34174848240832506,0.051241691474145305,0.11242689136967508,0.9320470238426525,1.2012973807201863
-0.02235737735381566,-0.009581733151635281,0.2587067950941526,0.4439536360257681,0.05121380006414994,0.11244662526267298,0.9319210837231587,1.2008457912117412
-0.04471475470763132,0.028745199454905845,0.14372599727452925,0.3193911050545094,0.05118577864147142,0.11246624339144885,0.931785612513038,1.2003864416167238
-0.03193911050545094,0.07345995416253714,0.16927728567888997,0.05429648785926659,0.05115762703457537,0.112485744668789,0.931640638623858,1.1999193892602171
-0.05110257680872151,0.08623559836471753,0.27148243929633303,-0.04471475470763132,0.051129345105879354,0.11250512779405399,0.9314861912112952,1.1994446923289206
-0.02235737735381566,0.07026604311199207,0.25231897299306244,-0.25231897299306244,0.05110093276330603,0.11252439140892552,0.9313223002454447,1.198962408822171
-0.012775644202180378,0.06387822101090188,-0.038326932606541124,-0.20121639618434092,0.051072389950113595,0.11254353419397889,0.9311489966846352,1.1984725962896723
0.01596955525272547,0.02235737735381566,-0.11498079781962338,-0.12456253097125865,0.051043716608574825,0.11256255483696881,0.9309663121872221,1.1979753122124657
0.009581733151635281,0.012775644202180378,-0.07345995416253714,0.02235737735381566,0.05101491264345054,0.11258145190920768,0.9307742785098727,1.197470614061842
-0.019163466303270562,0.009581733151635281,-0.060684309960356786,0.12136861992071357,0.0509859779067943,0.1126002237126691,0.9305729271537324,1.1969585588617344
-0.028745199454905845,-0.019163466303270562,-0.1053990646679881,0.03193911050545094,0.050956912202148534,0.11261886817582993,0.930362289273527,1.1964392028163553
-0.0031939110505450944,-0.025551288404360755,-0.09901124256689792,0.0,0.050927715297450014,0.11263738283473954,0.9301423956891401,1.1959126011618009
-0.012775644202180378,-0.038326932606541124,-0.09262342046580772,-0.006387822101090189,0.05089838692497252,0.11265576487408023,0.9299132769789464,1.1953788079729848
0.019163466303270562,-0.10859297571853319,-0.05749039890981169,-0.05749039890981169,0.05086892676692319,0.11267401122425456,0.9296749635259389,1.1948378759684002
0.03193911050545094,-0.1469199083250743,-0.06387822101090188,0.06707213206144698,0.050839334457227665,0.11269211876723986,0.9294274854316924,1.1942898565505575
-0.047908665758176414,-0.10859297571853319,-0.06387822101090188,0.3193911050545094,0.05080960961199779,0.11271008461512493,0.9291708723936678,1.193734800161757
-0.03193911050545094,-0.04152084365708622,0.02235737735381566,0.27148243929633303,0.05077975186987155,0.11272790624842823,0.9289051536245623,1.193172756997203
-0.01596955525272547,-0.05429648785926659,0.028745199454905845,0.1117868867690783,0.05074976091016498,0.11274558138826099,0.9286303577616033,1.1926037777192269
0.006387822101090189,-0.05429648785926659,0.1053990646679881,0.0,0.05071963642926105,0.11276310777513661,0.9283465127945383,1.1920279134373577
-0.035133021555996034,-0.012775644202180378,0.09901124256689792,-0.3704936818632309,0.05068937810223134,0.11278048304231394,0.9280536461815461,1.191445215145908
-0.02235737735381566,0.05429648785926659,0.012775644202180378,-0.4215962586719524,0.05065898557458825,0.11279770465233879,0.9277517850585677,1.1908557338241659
-0.012775644202180378,0.07665386521308225,-0.07345995416253714,-0.27148243929633303,0.050628458477299035,0.11281476987787348,0.9274409562414573,1.190259521384429
0.019163466303270562,0.05749039890981169,-0.17885901883052527,-0.012775644202180378,0.05059779642640803,0.11283167587678078,0.9271211861633722,1.1896566311198056
0.02235737735381566,0.04471475470763132,-0.1596955525272547,0.060684309960356786,0.05056699901070715,0.1128484197734558,0.9267925011313319,1.1890471169338082
-0.012775644202180378,0.04152084365708622,-0.07026604311199207,0.006387822101090189,0.05053606578997686,0.11286499864194446,0.9264549277024245,1.1884310322120926
-0.03193911050545094,0.025551288404360755,0.028745199454905845,0.04471475470763132,0.05050499629963901,0.11288140943269837,0.9261084926633673,1.1878084292172308
-0.047908665758176414,0.01596955525272547,0.16608337462834488,-0.006387822101090189,0.050473790064906036,0.11289764889905025,0.9257532227094073,1.1871793589472543
-0.01596955525272547,-0.04152084365708622,0.07026604311199207,-0.12136861992071357,0.050442446629053804,0.11291371353833207,0.9253891443456072,1.1865438711672713
0.02235737735381566,-0.04471475470763132,-0.06387822101090188,0.02235737735381566,0.05041096556369049,0.1129295995876541,0.9250162839992883,1.1859020145586967
-0.019163466303270562,-0.025551288404360755,-0.11498079781962338,0.07345995416253714,0.05037934644696062,0.11294530307196544,0.9246346679992188,1.1852538368661758
-0.04152084365708622,-0.1117868867690783,0.0,-0.06707213206144698,0.05034758884768528,0.11296081986477817,0.9242443224637199,1.1845993849260494
0.0,-0.17885901883052527,0.07984777626362735,0.06387822101090188,0.0503156923312908,0.11297614584780392,0.9238452731906187,1.183938704678118
0.012775644202180378,-0.16608337462834488,0.12775644202180375,0.14372599727452925,0.05028365645368152,0.11299127723793333,0.9234375455909387,1.1832718412553695
0.0031939110505450944,-0.09901124256689792,-0.07026604311199207,0.18524684093161545,0.05025148073129348,0.11300621086710858,0.9230211648199124,1.1825988392048374
0.009581733151635281,-0.06387822101090188,-0.2076042182854311,0.21718595143706637,0.05021916461722306,0.11302094416090838,0.9225961560220853,1.1819197428700998
-0.06387822101090188,0.035133021555996034,-0.1469199083250743,0.38646323711595637,0.050186707510444926,0.11303547486994664,0.9221625445819503,1.1812345968837292
-0.04152084365708622,0.07026604311199207,-0.06707213206144698,0.18844075198216054,0.05015410880874225,0.11304980079814975,0.9217203563133207,1.1805434466825242
0.012775644202180378,0.1117868867690783,0.07345995416253714,-0.1565016414767096,0.050121367964762464,0.11306391970986712,0.9212696173446037,1.1798463386983844
0.07345995416253714,0.09901124256689792,0.2682885282457879,-0.39604497026759167,0.05008848449410942,0.1130778294308019,0.9208103538992264,1.1791433201320678
-0.02235737735381566,0.09581733151635283,0.4247901697224975,-0.4503414581268582,0.05005545797053836,0.11309152799052263,0.9203425926510604,1.1784344390517936
0.025551288404360755,0.04471475470763132,0.1501138193756194,-0.3353606603072349,0.050022288031587404,0.11310501364784376,0.9198663615940018,1.1777197450673176
0.012775644202180378,-0.019163466303270562,-0.18205292988107036,-0.47269883548067393,0.049988974354607175,0.11311828476669293,0.919381690415297,1.1769992898312567
0.009581733151635281,-0.038326932606541124,-0.13414426412289396,0.006387822101090189,0.049955516611647266,0.11313133962094284,0.9188886100244489,1.1762731269184288
-0.02235737735381566,-0.028745199454905845,-0.28425808349851334,0.07026604311199207,0.04992191444102563,0.11314417625908108,0.9183871520629561,1.1755413110062254
-0.012775644202180378,-0.02235737735381566,-0.35133021555996036,0.025551288404360755,0.04988816744169195,0.1131567924695026,0.9178773490333715,1.174803896630709
-0.006387822101090189,-0.035133021555996034,-0.2235737735381566,0.22676768458870167,0.049854275175662,0.11316918577621767,0.9173592348128089,1.174060937434896
-0.006387822101090189,-0.09262342046580772,-0.17247119672943506,-0.028745199454905845,0.04982023716005218,0.11318135346746308,0.9168328448664602,1.1733124862534576
0.012775644202180378,-0.13414426412289396,-0.20121639618434092,-0.38965714816650143,0.04978605285366863,0.11319329274611824,0.9162982159107399,1.1725585954992537
0.019163466303270562,-0.1565016414767096,-0.10859297571853319,-0.13733817517343905,0.04975172165737837,0.11320500100141441,0.9157553854598306,1.1717993176016865
0.0,-0.11817470887016848,0.07665386521308225,-0.04152084365708622,0.04971724292484835,0.1132164760597984,0.9152043914785439,1.1710347052708956
0.01596955525272547,-0.09262342046580772,0.07665386521308225,0.05749039890981169,0.04968261596434555,0.11322771626171375,0.9146452720064757,1.1702648111295446
0.02235737735381566,-0.009581733151635281,0.2682885282457879,-0.14372599727452925,0.04964784003652766,0.11323872032091203,0.9140780649539783,1.169489687101913
-0.035133021555996034,0.06387822101090188,-0.006387822101090189,-0.12136861992071357,0.04961291437141344,0.11324948705631535,0.9135028082748,1.168709384299465
-0.1053990646679881,0.10220515361744302,-0.07984777626362735,-0.06707213206144698,0.04957783822016512,0.11326001521171182,0.9129195400520828,1.1679239532260182
-0.01596955525272547,0.07026604311199207,-0.08304168731417244,0.17885901883052527,0.049542610932338076,0.11327030349902321,0.9123282981943555,1.1671334438543832
0.025551288404360755,0.047908665758176414,0.07345995416253714,0.1596955525272547,0.04950723198720822,0.11328035069901125,0.9117291201936304,1.1663379056890961
0.019163466303270562,0.035133021555996034,0.23315550668979185,0.10220515361744302,0.049471700939255486,0.11329015562020875,0.9111220432360619,1.1655373879407052
-0.025551288404360755,0.009581733151635281,0.35771803766105054,0.303421549801784,0.0494360173549574,0.11329971695864015,0.9105071046803599,1.1647319396700082
-0.025551288404360755,-0.006387822101090189,0.20441030723488604,0.22996159563924676,0.04940018079685736,0.11330903315835218,0.9098843428121921,1.1639216100279584
-0.06707213206144698,0.0031939110505450944,0.04152084365708622,0.10220515361744302,0.04936419083978762,0.11331810230257348,0.9092537971880651,1.1631064485569667
-0.09901124256689792,0.009581733151635281,0.038326932606541124,0.06707213206144698,0.049328047125100034,0.11332692205439951,0.9086155080686446,1.1622865050461444
-0.025551288404360755,0.009581733151635281,0.006387822101090189,0.07026604311199207,0.049291749437128676,0.11333548964918518,0.9079695155069057,1.161461828958651
0.028745199454905845,-0.05429648785926659,-0.09262342046580772,0.05429648785926659,0.049255297717789415,0.11334380193333239,0.9073158588359138,1.1606324689809273
0.05429648785926659,-0.12136861992071357,-0.12136861992071357,0.0031939110505450944,0.049218692005969615,0.11335185549641479,0.9066545766850357,1.1597984728262085
0.038326932606541124,-0.18205292988107036,-0.2107981293359762,0.012775644202180378,0.04918193239702885,0.11335964695771239,0.9059857073445475,1.1589598870703874
0.01596955525272547,-0.12775644202180375,-0.09901124256689792,0.04152084365708622,0.0491450190436168,0.11336717332559532,0.9053092892081482,1.1581167569979383
-0.038326932606541124,-0.07026604311199207,-0.05429648785926659,0.02235737735381566,0.049107952140523166,0.11337443217957383,0.9046253609187106,1.1572691265830073
-0.03193911050545094,-0.07026604311199207,0.038326932606541124,0.04152084365708622,0.049070731901795256,0.1133814215466962,0.9039339610792255,1.1564170385671684
-0.012775644202180378,-0.01596955525272547,0.006387822101090189,-0.08623559836471753,0.0490333585565649,0.11338813963530268,0.90323512782368,1.1555605345523918
-0.05429648785926659,0.07026604311199207,0.07665386521308225,0.06707213206144698,0.04899583234733355,0.11339458462377688,0.9025288985606895,1.1546996551470867
0.006387822101090189,0.07345995416253714,-0.07345995416253714,-0.10859297571853319,0.04895815352987839,0.11340075458541585,0.9018153099728243,1.1538344401461809
0.07026604311199207,0.047908665758176414,-0.11817470887016848,-0.18844075198216054,0.048920322382726304,0.11340664753528613,0.901094398214129,1.15296492873014
0.01596955525272547,0.08942950941526263,-0.04471475470763132,-0.19163466303270565,0.048882339222052186,0.11341226148825242,0.9003661991197204,1.1520911597806114
-0.05749039890981169,0.09581733151635283,0.0031939110505450944,-0.09901124256689792,0.04884420441553224,0.11341759449966453,0.8996307482062887,1.1512131721945766
-0.04471475470763132,0.047908665758176414,-0.06707213206144698,-0.05429648785926659,0.0488059183903834,0.11342264472475778,0.8988880804592828,1.1503310048630104
0.0,0.0031939110505450944,-0.18205292988107036,-0.02235737735381566,0.04876748163249288,0.11342741039061342,0.8981382302664795,1.1494446962868385
0.0031939110505450944,-0.019163466303270562,-0.18844075198216054,-0.01596955525272547,0.048728894650470506,0.11343188961651551,0.897381231792712,1.1485542841447276
-0.04152084365708622,-0.03193911050545094,0.038326932606541124,0.05429648785926659,0.04869015791875463,0.1134360802402301,0.8966171194494685,1.147659805049522
-0.06387822101090188,-0.025551288404360755,0.10859297571853319,-0.1533077304261645,0.048651271879058586,0.11343997978280776,0.895845927911079,1.146761294588306
0.0,-0.06387822101090188,-0.19163466303270565,-0.2682885282457879,0.048612236996815425,0.11344358550493625,0.8950676918753455,1.1458587877267796
0.028745199454905845,-0.12136861992071357,-0.24273723984142714,-0.09262342046580772,0.048573053776832416,0.11344689452353209,0.8942824461899701,1.1449523194013382
0.038326932606541124,-0.1565016414767096,-0.025551288404360755,0.04152084365708622,0.048533722730046774,0.11344990403974789,0.8934902262188009,1.144041924729387
-0.02235737735381566,-0.08942950941526263,0.3098093719028741,0.08942950941526263,0.04849424436394501,0.11345261160201689,0.8926910679086956,1.1431276386353455
-0.012775644202180378,-0.07665386521308225,0.22676768458870167,0.1533077304261645,0.04845461919147801,0.11345501519333756,0.8918850078037761,1.1422094954900115
-0.0031939110505450944,-0.028745199454905845,0.21718595143706637,0.10859297571853319,0.048414847711922386,0.11345711308303984,0.8910720833622194,1.1412875291860451
-0.006387822101090189,-0.009581733151635281,0.07665386521308225,0.39604497026759167,0.04837493037451352,0.1134589035795608,0.8902523330868012,1.1403617735045146
0.019163466303270562,0.012775644202180378,0.04471475470763132,0.35452412661050536,0.048334867557827246,0.11346038480662203,0.8894257960912452,1.1394322627658933
-0.028745199454905845,0.07345995416253714,0.035133021555996034,0.07345995416253714,0.048294659579008796,0.11346155459189913,0.8885925114335335,1.1384990324812623
-0.07665386521308225,0.08623559836471753,-0.04152084365708622,-0.05110257680872151,0.0482543067363486,0.1134624105423938,0.8877525176429278,1.137562119166834
-0.09901124256689792,0.11498079781962338,-0.09901124256689792,-0.2682885282457879,0.048213809391035055,0.11346295025277338,0.8869058525842779,1.1366215595097033
0.006387822101090189,0.07984777626362735,-0.1053990646679881,-0.4152084365708622,0.048173168049959636,0.11346317149392371,0.8860525535912873,1.1356773902024164
0.07345995416253714,0.01596955525272547,-0.2619007061446977,-0.7218238974231912,0.048132383371405345,0.11346307224784845,0.8851926577995723,1.1347296489800325
0.09581733151635283,-0.03193911050545094,0.006387822101090189,-0.5557405227948463,0.04809145613075425,0.11346265055414427,0.8843262025352622,1.1337783761864988
0.06707213206144698,-0.08623559836471753,-0.02235737735381566,-0.13414426412289396,0.048050387247336686,0.11346190433362821,0.883453225321988,1.1328236156163185
-0.012775644202180378,-0.08304168731417244,0.019163466303270562,0.07345995416253714,0.04800917781720234,0.11346083139970285,0.8825737633772356,1.1318654136775297
0.009581733151635281,-0.08304168731417244,0.01596955525272547,0.05429648785926659,0.047967829051245865,0.11345942960669765,0.881687853149306,1.1309038175568993
0.02235737735381566,-0.08942950941526263,-0.18205292988107036,0.07665386521308225,0.047926342168874946,0.11345769695256053,0.8807955302961992,1.129938873914038
0.038326932606541124,-0.14053208622398414,-0.20441030723488604,0.1053990646679881,0.047884718348425774,0.1134556316321571,0.8798968300992265,1.1289706285116616
-0.009581733151635281,-0.12456253097125865,-0.10859297571853319,0.2650946171952428,0.047842958738989964,0.1134532321388708,0.8789917880508825,1.1279991263819968
-0.04471475470763132,-0.1053990646679881,0.02235737735381566,0.12775644202180375,0.047801064476836144,0.11345049737643564,0.8780804400464266,1.1270244122591915
-0.019163466303270562,-0.07026604311199207,-0.047908665758176414,-0.14372599727452925,0.047759036690402455,0.11344742665411,0.8771628219970312,1.126046530901239
-0.03193911050545094,0.006387822101090189,0.09262342046580772,0.028745199454905845,0.047716876506005756,0.11344401952535153,0.876238969393975,1.1250655269691767
-0.04152084365708622,0.047908665758176414,0.05749039890981169,-0.006387822101090189,0.047674585052660146,0.1134402755426265,0.8753089172304593,1.1240814445851472
-0.060684309960356786,0.08304168731417244,0.19802248513379583,0.060684309960356786,0.047632163478776496,0.11343619409820173,0.8743727001799904,1.1230943268849949
-0.06387822101090188,0.1117868867690783,0.1117868867690783,0.07345995416253714,0.047589612992507524,0.1134317744866856,0.8734303528823687,1.1221042158341974
-0.02235737735381566,0.09581733151635283,0.0,0.2682885282457879,0.04754693489504845,0.11342701609923724,0.8724819101183429,1.1211111524535196
0.019163466303270562,0.05429648785926659,-0.11817470887016848,0.06707213206144698,0.047504130563149095,0.11342191853857528,0.871527406617573,1.120115177315187
0.019163466303270562,0.02235737735381566,0.05429648785926659,-0.0031939110505450944,0.0474612013904374,0.11341648154872921,0.8705668767820923,1.1191163307787115
-0.02235737735381566,-0.019163466303270562,0.08942950941526263,0.060684309960356786,0.0474181487424533,0.11341070481920647,0.8696003546657376,1.1181146526438492
0.019163466303270562,-0.05110257680872151,-0.06707213206144698,0.04471475470763132,0.047374973945906756,0.11340458782068001,0.8686278740377595,1.1171101817148732
0.009581733151635281,-0.05429648785926659,-0.09901124256689792,-0.04152084365708622,0.047331678287683566,0.1133981297820178,0.8676494683978007,1.1161029557133058
-0.028745199454905845,-0.04471475470763132,0.009581733151635281,-0.019163466303270562,0.04728826300908777,0.11339132976461504,0.8666651709697022,1.11509301131381
-0.019163466303270562,-0.06707213206144698,-0.04152084365708622,-0.03193911050545094,0.04724472930656227,0.11338418672510497,0.8656750145944838,1.1140803841015652
-0.01596955525272547,-0.09581733151635283,-0.1533077304261645,-0.06707213206144698,0.0472010783403766,0.1133766995666285,0.8646790316231966,1.113065108544987
0.03193911050545094,-0.12775644202180375,-0.22996159563924676,-0.13414426412289396,0.047157311238393396,0.11336886725486807,0.8636772541582496,1.1120472181214924
0.028745199454905845,-0.12456253097125865,-0.2139920403865213,0.028745199454905845,0.04711342910216923,0.11336068899330407,0.8626697146546425,1.111026745561134
-0.0031939110505450944,-0.08942950941526263,-0.05110257680872151,0.4056267034192269,0.04706943301614865,0.11335216435086512,0.8616564463399163,1.1100037231480628
-0.060684309960356786,-0.025551288404360755,0.2139920403865213,0.20121639618434092,0.04702532404714204,0.11334329322496496,0.8606374831033345,1.1089781832803236
-0.04152084365708622,0.035133021555996034,0.25231897299306244,0.20441030723488604,0.046981103259760855,0.11333407563217594,0.8596128593220002,1.1079501590876628
-0.01596955525272547,0.047908665758176414,0.03193911050545094,-0.14372599727452925,0.0469367717507377,0.1133245114844073,0.858582609998306,1.1069196844909834
-0.03193911050545094,0.09262342046580772,-0.035133021555996034,-0.39923888131813673,0.04689233064919384,0.11331460052675812,0.857546770655045,1.105886793955763
-0.047908665758176414,0.07665386521308225,-0.028745199454905845,-0.3609119487115956,0.04684778109297681,0.11330434244038315,0.8565053767311853,1.1048515227249636
0.02235737735381566,0.05110257680872151,0.1596955525272547,0.07984777626362735,0.04680312423169457,0.11329373695561787,0.8554584631551023,1.1038139072930753
0.02235737735381566,0.05749039890981169,0.012775644202180378,0.2203798624876115,0.04675836123448196,0.11328278385145273,0.8544060644314907,1.1027739852405793
-0.012775644202180378,0.019163466303270562,-0.08304168731417244,0.11817470887016848,0.046713493268932926,0.11327148286854943,0.8533482147954751,1.1017317945754028
0.028745199454905845,-0.03193911050545094,0.07665386521308225,0.06707213206144698,0.04666852147399639,0.11325983360728145,0.8522849481642312,1.1006873732810563
-0.009581733151635281,-0.012775644202180378,0.1628894635777998,0.06707213206144698,0.046623446950858766,0.11324783543788906,0.851216298157996,1.0996407590100652
-0.04471475470763132,-0.012775644202180378,0.2203798624876115,-0.047908665758176414,0.046578270767534326,0.11323548743598105,0.850142298402671,1.0985919887497446
-0.047908665758176414,-0.05110257680872151,-0.060684309960356786,-0.2107981293359762,0.04653299398012919,0.1132227883578854,0.8490629829074866,1.0975410987058558
0.028745199454905845,-0.11498079781962338,-0.3641058597621407,-0.29064590559960357,0.04648761766890992,0.11320973671781315,0.8479783862669236,1.0964881246347713
0.02235737735381566,-0.11817470887016848,-0.2107981293359762,-0.39604497026759167,0.04644214295225246,0.11319633101137953,0.8468885439011614,1.0954331026022792
0.025551288404360755,-0.11817470887016848,-0.3098093719028741,-0.4503414581268582,0.04639657096367984,0.11318256997275705,0.8457934924753453,1.0943760698788105
0.04152084365708622,-0.12775644202180375,-0.2650946171952428,-0.08942950941526263,0.04635090283086591,0.11316845272176995,0.8446932701689834,1.0933170654695812
-0.0031939110505450944,-0.10220515361744302,-0.1565016414767096,-0.10859297571853319,0.046305139675712446,0.11315397879972139,0.8435879166493064,1.092256129744609
-0.02235737735381566,-0.03193911050545094,-0.06707213206144698,0.16608337462834488,0.04625928260645164,0.11313914811066761,0.8424774727191258,1.0911933034428736
-0.04152084365708622,0.009581733151635281,0.1628894635777998,0.24273723984142714,0.04621333270110762,0.11312396072049209,0.841361979705489,1.0901286271137387
0.012775644202180378,0.019163466303270562,0.09581733151635283,0.2076042182854311,0.04616729101435404,0.1131084165772423,0.8402414790334453,1.0890621413062396
-0.038326932606541124,0.08304168731417244,0.3002276387512388,0.20121639618434092,0.046121158593830765,0.11309251535529302,0.8391160122505344,1.087993886885958
-0.019163466303270562,0.1053990646679881,0.3130032829534192,0.18205292988107036,0.046074936481842875,0.11307625654208923,0.8379856214546596,1.0869239050889181
0.0,0.09901124256689792,0.1117868867690783,-0.025551288404360755,0.046028625705869325,0.11305963966660984,0.8368503498234712,1.0858522373222244
-0.012775644202180378,0.07984777626362735,0.04152084365708622,-0.2107981293359762,0.045982227252482986,0.113042664464478,0.8357102415673405,1.0847789248081665
-0.03193911050545094,0.047908665758176414,-0.038326932606541124,-0.24273723984142714,0.045935742044092565,0.11302533087786881,0.8345653411743542,1.0837040084428637
-0.0031939110505450944,0.02235737735381566,0.06387822101090188,0.04471475470763132,0.04588917094716827,0.11300763892569997,0.8334156926885002,1.0826275290238905
-0.025551288404360755,-0.04471475470763132,-0.025551288404360755,-0.009581733151635281,0.0458425147867191,0.11298958853716821,0.8322613394548914,1.081549527220067
0.0031939110505450944,-0.05749039890981169,-0.04471475470763132,0.12136861992071357,0.04579577434299811,0.11297117946105346,0.8311023240920707,1.080470043057083
0.02235737735381566,-0.08304168731417244,-0.1565016414767096,0.02235737735381566,0.04574895034427982,0.11295241130472623,0.8299386885372295,1.079389115571298
0.009581733151635281,-0.1053990646679881,-0.08623559836471753,0.2619007061446977,0.04570204346534351,0.11293328366049048,0.8287704742736172,1.0783067829230757
0.006387822101090189,-0.14053208622398414,-0.03193911050545094,0.14053208622398414,0.045655054326785224,0.11291379627012135,0.8275977225600034,1.0772230827806428
-0.038326932606541124,-0.12775644202180375,-0.006387822101090189,0.18205292988107036,0.04560798349514553,0.11289394919862963,0.826420474315458,1.0761380527285938
-0.09581733151635283,-0.060684309960356786,-0.08304168731417244,0.07665386521308225,0.045560831517328225,0.11287374292614678,0.8252387698136483,1.0750517303756826
-0.009581733151635281,-0.05429648785926659,-0.28425808349851334,-0.08623559836471753,0.0455135989983156,0.11285317825341047,0.8240526487326626,1.07396415311958
0.009581733151635281,-0.038326932606541124,-0.0031939110505450944,-0.19482857408325072,0.04546628663136349,0.11283225608203673,0.8228621506574251,1.072875357897319
-0.01596955525272547,0.02235737735381566,-0.1501138193756194,-0.6355882990584737,0.045418895134402004,0.11281097722668024,0.8216673153853485,1.071785381504354
0.01596955525272547,0.05749039890981169,-0.24593115089197226,-0.43437190287413274,0.04537142518427879,0.11278934231523523,0.8204681828498115,1.0706942618141906
0.035133021555996034,0.06707213206144698,-0.18205292988107036,-0.2139920403865213,0.04532387741028529,0.11276735178460152,0.8192647932829452,1.0696020389307852
0.019163466303270562,0.07026604311199207,-0.19163466303270565,-0.07665386521308225,0.04527625241649918,0.11274500596449706,0.8180571875890474,1.0685087549477896
-0.07345995416253714,0.07345995416253714,0.25231897299306244,0.2076042182854311,0.04522855081014505,0.11272230517184541,0.8168454074794219,1.0674144527167178
-0.08623559836471753,0.035133021555996034,0.45672928022794845,0.20121639618434092,0.04518077325421057,0.11269924974250954,0.8156294956639414,1.066319175041641
-0.012775644202180378,0.009581733151635281,0.16927728567888997,0.05110257680872151,0.04513292053115824,0.11267583996710114,0.8144094963517228,1.0652229645858131
0.019163466303270562,0.0,0.0031939110505450944,0.038326932606541124,0.04508499353860548,0.1126520759398901,0.8131854553224686,1.06412586371991
0.05110257680872151,-0.01596955525272547,-0.12136861992071357,0.10220515361744302,0.045036993218081606,0.11262795741020085,0.8119574190687799,1.0630279140786965
0.038326932606541124,-0.01596955525272547,0.060684309960356786,0.2938398166501486,0.04498892052241406,0.1126034837257182,0.8107254338704114,1.0619291564353774
0.04471475470763132,-0.06387822101090188,0.07345995416253714,0.39604497026759167,0.044940776440256215,0.11257865387664853,0.809489545514092,1.0608296313095944
0.019163466303270562,-0.14372599727452925,-0.11498079781962338,0.1533077304261645,0.04489256200984455,0.11255346665399464,0.808249799320815,1.059729379854137
0.05429648785926659,-0.18524684093161545,-0.10859297571853319,-0.11498079781962338,0.044844278306212175,0.11252792096329611,0.8070062402184357,1.0586284440881726
-0.038326932606541124,-0.13095035307234884,-0.09901124256689792,-0.24593115089197226,0.04479592643657849,0.11250201618840291,0.8057589128683572,1.0575268663805069
-0.1117868867690783,-0.09262342046580772,-0.13733817517343905,-0.4088206144697721,0.04474750757089276,0.11247575235248852,0.8045078617520685,1.0564246892061986
-0.05110257680872151,-0.047908665758176414,0.038326932606541124,-0.25231897299306244,0.04469902300376529,0.1124491299782151,0.8032531311800826,1.05532195564405
-0.012775644202180378,-0.0031939110505450944,0.08942950941526263,0.060684309960356786,0.04465047418507336,0.11242214978613167,0.8019947651978735,1.054218709729754
0.006387822101090189,0.04471475470763132,0.04471475470763132,0.1053990646679881,0.044601862655959265,0.11239481240541083,0.8007328074152571,1.053114995937303
-0.01596955525272547,0.08942950941526263,0.3098093719028741,0.373687592913776,0.04455318994359776,0.11236711824732326,0.7994673010328773,1.0520108585053973
-0.012775644202180378,0.07665386521308225,0.060684309960356786,0.13095035307234884,0.04450445750711421,0.11233906759844531,0.7981982892340117,1.0509063415371882
-0.012775644202180378,0.10220515361744302,-0.19802248513379583,-0.09262342046580772,0.044455666733827656,0.11231066079286386,0.7969258155433101,1.0498014893325414
0.0,0.07026604311199207,-0.17247119672943506,-0.35771803766105054,0.04440681894034799,0.11228189831150849,0.7956499238462863,1.0486963462519725
-0.05429648785926659,0.028745199454905845,-0.035133021555996034,-0.32897283820614465,0.04435791537366398,0.11225278076953332,0.7943706582941321,1.047590956767909
-0.01596955525272547,-0.0031939110505450944,-0.12136861992071357,-0.19163466303270565,0.04430895723694011,0.11222330877717666,0.7930880631090709,1.0464853659942739
0.025551288404360755,-0.028745199454905845,0.038326932606541124,-0.019163466303270562,0.044259945722871945,0.11219348274027795,0.7918021822671288,1.0453796197444662
0.009581733151635281,-0.028745199454905845,0.1501138193756194,0.2235737735381566,0.04421088201301024,0.11216330274755026,0.7905130593346587,1.0442737638567678
-0.019163466303270562,-0.04152084365708622,-0.028745199454905845,0.06707213206144698,0.0441617672539734,0.11213276858644103,0.7892207374942249,1.0431678436486895
0.0,-0.10220515361744302,-0.12456253097125865,-0.2139920403865213,0.04411260253883573,0.11210187983629251,0.7879252595700983,1.042061903875779
0.012775644202180378,-0.13733817517343905,-0.1053990646679881,-0.23954332879088208,0.044063388892811736,0.1120706360494566,0.7866266680324039,1.0409559889180435
0.03193911050545094,-0.1565016414767096,-0.04152084365708622,-0.18844075198216054,0.04401412726875052,0.11203903702039705,0.7853250050374195,1.0398501430722629
0.038326932606541124,-0.13095035307234884,-0.10220515361744302,0.019163466303270562,0.04396481857141737,0.11200708302354542,0.784020312402475,1.0387444106689037
0.028745199454905845,-0.09901124256689792,-0.13733817517343905,0.1469199083250743,0.0439154636989276,0.11197477489069582,0.7827126315584251,1.0376388357224129
-0.0031939110505450944,-0.038326932606541124,-0.038326932606541124,0.17247119672943506,0.043866063558788165,0.11194211389476347,0.7814020036324523,1.0365334615581814
-0.06707213206144698,0.035133021555996034,0.12456253097125865,0.19163466303270565,0.04381661905497133,0.11190910149972276,0.7800884694990639,1.0354283309103252
-0.05110257680872151,0.07026604311199207,0.23315550668979185,0.2682885282457879,0.0437671311015117,0.11187573912651771,0.77877206981884,1.034323486295643
-0.047908665758176414,0.07984777626362735,0.2938398166501486,0.23634941774033696,0.04371760067335558,0.11184202808676749,0.7774528454289467,1.0332189703651495
-0.035133021555996034,0.07984777626362735,0.3193911050545094,0.3130032829534192,0.043668028832452764,0.11180796966663638,0.7761308380339133,1.0321148261881234
0.009581733151635281,0.07665386521308225,-0.09901124256689792,-0.019163466303270562,0.04361841670238061,0.11177356521679453,0.7748060906469239,1.0310110973245166
0.0,0.035133021555996034,-0.1469199083250743,-0.23634941774033696,0.04356876541307308,0.11173881616040676,0.7734786473703813,1.029907827500389
-0.012775644202180378,0.009581733151635281,-0.24273723984142714,-0.19482857408325072,0.043519076042461385,0.11170372389812244,0.7721485528560595,1.0288050602250458
-0.04152084365708622,0.038326932606541124,0.08942950941526263,-0.11817470887016848,0.04346934959415518,0.11166828965200551,0.7708158520920514,1.0277028387683642
0.047908665758176414,-0.03193911050545094,-0.0031939110505450944,-0.14053208622398414,0.04341958703210854,0.11163251436867648,0.7694805903035934,1.0266012061838727
0.009581733151635281,-0.05749039890981169,-0.14053208622398414,0.17247119672943506,0.04336978933147052,0.11159639873736214,0.768142812531634,1.025500205144493
-0.006387822101090189,-0.08304168731417244,-0.24593115089197226,0.25231897299306244,0.04331995748076441,0.11155994327774867,0.7668025634068382,1.0243998779407144
-0.035133021555996034,-0.047908665758176414,-0.12775644202180375,0.08942950941526263,0.04327009244176925,0.11152314844729712,0.7654598875292179,1.023300266687562
-0.05110257680872151,-0.06387822101090188,-0.10220515361744302,-0.18844075198216054,0.04322019514115462,0.11148601470060776,0.7641148298225103,1.0222014133666426
0.025551288404360755,-0.13733817517343905,-0.01596955525272547,-0.21718595143706637,0.04317026651089431,0.11144854251502274,0.7627674353246158,1.0211033597095767
0.038326932606541124,-0.10859297571853319,-0.01596955525272547,-0.07665386521308225,0.04312030751765516,0.11141073250525163,0.7614177486671144,1.0200061471958717
0.019163466303270562,-0.07984777626362735,0.09901124256689792,0.025551288404360755,0.043070319155023545,0.11137258557337966,0.7600658136890036,1.0189098169346682
-0.009581733151635281,-0.05429648785926659,0.02235737735381566,0.07345995416253714,0.043020302419110056,0.11133410290285228,0.7587116733787189,1.0178144092198889
-0.035133021555996034,0.03193911050545094,-0.13414426412289396,0.05749039890981169,0.042970258282955656,0.11129528579599515,0.7573553700152844,1.0167199631616897
-0.05749039890981169,0.07345995416253714,-0.028745199454905845,0.13095035307234884,0.042920187697669976,0.1112561355111824,0.7559969453053323,1.0156265166743679
0.0,0.08304168731417244,0.23315550668979185,0.038326932606541124,0.042870091624650025,0.11121665322191912,0.7546364405274686,1.0145341066315985
0.009581733151635281,0.047908665758176414,0.2619007061446977,-0.29703372770069375,0.04281997103697305,0.11117684008244136,0.7532738968857523,1.0134427690573697
-0.047908665758176414,0.06387822101090188,0.09581733151635283,-0.2938398166501486,0.042769826880896616,0.11113669726392655,0.751909356025026,1.0123525395643922
-0.05429648785926659,0.047908665758176414,-0.05110257680872151,-0.05429648785926659,0.04271966007865389,0.11109622591557665,0.7505428601263372,1.0112634539269811
-0.05429648785926659,-0.02235737735381566,0.01596955525272547,0.009581733151635281,0.042669471587818295,0.11105542710695823,0.7491744513645111,1.010175548029223
-0.06707213206144698,-0.025551288404360755,0.04471475470763132,0.05429648785926659,0.042619262454114556,0.11101430175191311,0.7478041713002438,1.0090888571060395
-0.038326932606541124,0.012775644202180378,-0.09262342046580772,0.12456253097125865,0.04256903383146307,0.11097285051733073,0.7464320606535885,1.0080034151927073
0.06387822101090188,-0.03193911050545094,-0.19802248513379583,-0.36729977081268583,0.042518786978559604,0.11093107376623518,0.7450581594850375,1.0069192553531048
0.12456253097125865,-0.1117868867690783,-0.13414426412289396,-0.04471475470763132,0.04246852326745612,0.11088897159426325,0.7436825076365801,1.005836410376288
0.060684309960356786,-0.11817470887016848,-0.16608337462834488,0.11817470887016848,0.04241824423902987,0.11084654401763643,0.7423051451084395,1.0047549130987077
0.009581733151635281,-0.1501138193756194,-0.11817470887016848,-0.11498079781962338,0.04236795163280778,0.11080379125497938,0.7409261121534384,1.0036747960568002
0.03193911050545094,-0.13414426412289396,-0.24273723984142714,-0.14372599727452925,0.04231764730943186,0.11076071395234793,0.7395454492554815,1.0025960911525151
-0.028745199454905845,-0.060684309960356786,-0.29703372770069375,0.23954332879088208,0.04226733314486795,0.1107173132509923,0.7381631973197667,1.0015188297527278
0.0031939110505450944,-0.006387822101090189,-0.5429648785926661,-0.3193911050545094,0.04221701098693282,0.11067359063481677,0.7367793982903015,1.000443043090211
0.07026604311199207,0.01596955525272547,-0.4631171023290387,-0.41201452552031714,0.04216668265160233,0.1106295476073549,0.7353940961324451,0.9993687628867867
0.028745199454905845,0.047908665758176414,0.09581733151635283,-0.3800754150148662,0.04211634994410076,0.11058518542766813,0.7340073374715295,0.9982960220406597
-0.012775644202180378,0.05429648785926659,0.39285105921704655,-0.07026604311199207,0.04206601468762051,0.11054050506821997,0.7326191711806821,0.9972248549066752
-0.05429648785926659,0.03193911050545094,0.9996941588206144,-0.03193911050545094,0.04201567871568962,0.11049550730316611,0.7312296480531278,0.9961552966896269
-0.025551288404360755,0.038326932606541124,0.5557405227948463,-0.04152084365708622,0.041965343857484835,0.11045019275498415,0.7298388220890912,0.9950873822682731
-0.012775644202180378,0.05110257680872151,0.13095035307234884,0.07345995416253714,0.04191501194172237,0.11040456187924537,0.7284467517879488,0.9940211453834021
-0.02235737735381566,0.006387822101090189,-0.012775644202180378,0.21718595143706637,0.041864684780550186,0.11035861494965737,0.7270534990224732,0.9929566185762002
-0.04152084365708622,-0.0031939110505450944,-0.12136861992071357,0.5078318570366699,0.04181436414652767,0.11031235201355997,0.7256591265442331,0.9918938338048107
-0.05749039890981169,0.006387822101090189,-0.09262342046580772,0.1628894635777998,0.04176405179064937,0.11026577279302083,0.7242636965047156,0.9908328234829159
-0.06707213206144698,0.006387822101090189,0.03193911050545094,0.2203798624876115,0.04171374949595783,0.11021887660994603,0.7228672702082115,0.9897736210529794
-0.025551288404360755,-0.02235737735381566,-0.05749039890981169,-0.019163466303270562,0.0416634591215071,0.11017166238252808,0.7214699080764245,0.9887162605480232
-0.01596955525272547,-0.06387822101090188,-0.20121639618434092,-0.08623559836471753,0.04161318259217621,0.1101241286859065,0.7200716695832577,0.9876607757356939
-0.01596955525272547,-0.12775644202180375,-0.18205292988107036,0.14372599727452925,0.04156292183920244,0.11007627391176568,0.7186726135259971,0.9866071995521803
-0.01596955525272547,-0.1469199083250743,-0.07345995416253714,0.05110257680872151,0.04151267874646496,0.1100280965461072,0.7172727984597543,0.9855555639937814
0.019163466303270562,-0.11817470887016848,0.1533077304261645,-0.0031939110505450944,0.04146245513193457,0.10997959545441283,0.7158722827743494,0.9845059001246935
0.009581733151635281,-0.08304168731417244,0.035133021555996034,-0.08304168731417244,0.04141225274697505,0.1099307699981364,0.7144711244632543,0.983458237877849
-0.035133021555996034,-0.009581733151635281,0.05429648785926659,-0.047908665758176414,0.04136207327885298,0.10988161991221149,0.7130693808696479,0.9824126058899806
0.0031939110505450944,-0.0031939110505450944,0.10859297571853319,-0.01596955525272547,0.041311918357998245,0.10983214501605458,0.7116671084728492,0.9813690315319324
-0.02235737735381566,0.047908665758176414,0.07345995416253714,-0.019163466303270562,0.041261789561165926,0.10978234493671758,0.7102643628402177,0.9803275408896135
0.0031939110505450944,0.08942950941526263,-0.05110257680872151,0.10220515361744302,0.04121168840179533,0.10973221904378298,0.7088611987094449,0.9792881586927743
-0.006387822101090189,0.09901124256689792,0.07984777626362735,0.2874519945490585,0.04116161631574918,0.10968176661492354,0.7074576699762504,0.9782509085464209
-0.047908665758176414,0.07026604311199207,-0.03193911050545094,0.1501138193756194,0.04111157465845742,0.10963098703902813,0.7060538296118782,0.977215813561558
-0.03193911050545094,0.03193911050545094,-0.21718595143706637,0.038326932606541124,0.041061564734011444,0.10957987986842613,0.7046497296982193,0.976182896806896
-0.025551288404360755,0.006387822101090189,-0.28425808349851334,-0.13733817517343905,0.04101158783894035,0.10952844468986415,0.7032454218034054,0.9751521811088119
-0.03193911050545094,0.01596955525272547,-0.19482857408325072,-0.02235737735381566,0.04096164527577232,0.10947668092453602,0.7018409576579953,0.9741236886240549
0.07665386521308225,-0.006387822101090189,-0.14053208622398414,-0.03193911050545094,0.040911738355210385,0.10942458768803909,0.700436389555327,0.9730974405973695
0.012775644202180378,-0.047908665758176414,0.1533077304261645,-0.04152084365708622,0.040861868423786286,0.1093721637584925,0.6990317701661862,0.9720734571703639
0.0031939110505450944,-0.06387822101090188,0.2587067950941526,-0.08942950941526263,0.04081203686873231,0.10931940764658943,0.6976271522535494,0.9710517572734872
0.019163466303270562,-0.11817470887016848,0.20121639618434092,-0.05429648785926659,0.040762245062168426,0.10926631775846016,0.6962225887462173,0.970032358721396
-0.006387822101090189,-0.1533077304261645,-0.13414426412289396,-0.1596955525272547,0.04071249430699669,0.10921289263341523,0.6948181329292898,0.9690152783994722
-0.009581733151635281,-0.13095035307234884,-0.2938398166501486,-0.047908665758176414,0.040662785824350234,0.10915913119867074,0.6934138384219302,0.9680005324474152
0.01596955525272547,-0.10859297571853319,-0.25231897299306244,0.05429648785926659,0.04061312075401436,0.109105032918507,0.6920097592087467,0.9669881363255737
0.02235737735381566,-0.07984777626362735,-0.27787026139742316,0.12775644202180375,0.040563500159634884,0.10905059775906102,0.6906059499220126,0.9659781047187253
0.012775644202180378,-0.028745199454905845,-0.06387822101090188,-0.12136861992071357,0.0405139250434194,0.10899582601499026,0.6892024659515459,0.9649704515377182
-0.009581733151635281,0.05749039890981169,0.09901124256689792,-0.3800754150148662,0.04046439635343048,0.10894071808972182,0.687799363025036,0.9639651902642381
-0.038326932606541124,0.12775644202180375,0.13414426412289396,-0.4854744796828543,0.04041491498199576,0.10888527437318084,0.6863966965722622,0.9629623347528724
-0.03193911050545094,0.1117868867690783,0.1596955525272547,-0.2587067950941526,0.04036548178089513,0.10882949533766491,0.68499452145396,0.961961900243316
0.0,0.05110257680872151,0.1117868867690783,0.19482857408325072,0.040316097585076156,0.1087733817051909,0.6835928920799108,0.960963903727849
0.006387822101090189,0.03193911050545094,0.028745199454905845,0.2650946171952428,0.040266763200901404,0.10871693442127263,0.6821918624432275,0.9599683634286034
-0.01596955525272547,-0.0031939110505450944,-0.006387822101090189,0.2587067950941526,0.0402174793682777,0.10866015443530375,0.6807914858207629,0.9589752982577479
-0.05110257680872151,-0.012775644202180378,-0.01596955525272547,0.3130032829534192,0.04016824675610188,0.10860304247706312,0.6793918143355986,0.9579847277855246
-0.06387822101090188,0.05429648785926659,-0.08623559836471753,0.2491250619425173,0.040119066014402,0.10854559895316412,0.6779928987286841,0.9569966724156305
-0.07345995416253714,0.04471475470763132,0.14053208622398414,0.2203798624876115,0.040069937853538774,0.10848782398983199,0.6765947885076863,0.9560111534178476
0.009581733151635281,-0.05110257680872151,0.18844075198216054,0.2619007061446977,0.040020863093403955,0.1084297175435954,0.67519753238117,0.9550281927712322
0.009581733151635281,-0.09262342046580772,0.1469199083250743,0.17247119672943506,0.03997184263366157,0.10837127949081928,0.6738011787238767,0.954047812980702
0.06387822101090188,-0.17885901883052527,-0.2555128840436075,-0.33216674925668976,0.039922877382999905,0.10831250976647472,0.6724057758858657,0.9530700369927245
0.04152084365708622,-0.17885901883052527,-0.2587067950941526,-0.6579456764122893,0.03987396824614598,0.10825340864822214,0.6710113724470667,0.9520948885061916
-0.02235737735381566,-0.13095035307234884,-0.13095035307234884,-0.7282117195242814,0.039825116162122025,0.10819397705072943,0.6696180174580993,0.9511223931021905
-0.02235737735381566,-0.10220515361744302,-0.06707213206144698,-0.5014440349355798,0.03977632210519539,0.10813421659299736,0.6682257603304049,0.9501525796636807
-0.01596955525272547,-0.05110257680872151,0.09262342046580772,-0.006387822101090189,0.039727587045142405,0.10807412941554559,0.6668346503033143,0.9491854805917415
0.02235737735381566,0.009581733151635281,0.07345995416253714,0.10220515361744302,0.039678911917727586,0.10801371788721158,0.6654447359597861,0.9482211302443944
0.006387822101090189,0.04471475470763132,-0.1053990646679881,0.17247119672943506,0.039630297613209194,0.1079529843211653,0.6640560650681864,0.947259562993968
-0.02235737735381566,0.07665386521308225,-0.12456253097125865,-0.05110257680872151,0.03958174496822674,0.107891930831209,0.6626686846324371,0.9463008123851953
-0.04471475470763132,0.1053990646679881,0.019163466303270562,0.038326932606541124,0.03953325476899022,0.10783055940510455,0.6612826409661824,0.9453449110367979
-0.035133021555996034,0.11498079781962338,-0.006387822101090189,-0.07026604311199207,0.03948482778153358,0.10776887210045154,0.6598979795734203,0.9443918904413094
0.028745199454905845,0.07026604311199207,-0.12775644202180375,-0.025551288404360755,0.039436464786261644,0.10770687119711649,0.6585147448863934,0.9434417807465006
0.06387822101090188,0.02235737735381566,-0.19482857408325072,-0.23634941774033696,0.03938816659199816,0.10764455918317146,0.6571329803221498,0.9424946108019009
0.01596955525272547,0.02235737735381566,-0.08304168731417244,-0.006387822101090189,0.03933993404501648,0.10758193856811016,0.6557527287287708,0.9415504084370547
-0.02235737735381566,-0.019163466303270562,0.1053990646679881,0.33216674925668976,0.03929176802595719,0.1075190116677976,0.6543740326586608,0.9406092007716604
0.0,-0.07665386521308225,0.07984777626362735,0.5046379459861249,0.039243669411707156,0.10745578051816553,0.6529969342392944,0.9396710147312926
-0.019163466303270562,-0.08623559836471753,-0.05110257680872151,0.6419761211595639,0.03919563902833075,0.10739224696029062,0.6516214749508564,0.9387358782245196
-0.006387822101090189,-0.11498079781962338,0.07984777626362735,0.4503414581268582,0.03914767762869463,0.10732841282995259,0.6502476954761335,0.9378038215239655
-0.025551288404360755,-0.16927728567888997,-0.012775644202180378,0.2810641724479683,0.03909978589358921,0.10726428016944753,0.6488756355872131,0.9368748777369268
-0.047908665758176414,-0.12456253097125865,0.13733817517343905,-0.23315550668979185,0.03905196445197741,0.10719985142996082,0.64750533408936,0.9359490820989648
-0.05110257680872151,-0.08304168731417244,0.14053208622398414,-0.5908735443508424,0.039004213925638166,0.10713512957220202,0.6461368289430542,0.9350264710935413
-0.012775644202180378,-0.047908665758176414,0.1628894635777998,-0.5174135901883052,0.03895653497228602,0.10707011795365105,0.6447701575974639,0.9341070825405716
-0.019163466303270562,-0.006387822101090189,0.03193911050545094,-0.47269883548067393,0.038908928280141836,0.10700482006255214,0.6434053572385267,0.9331909563912358
0.038326932606541124,-0.012775644202180378,0.0031939110505450944,-0.3832693260654113,0.038861394529895954,0.106939239244295,0.6420424646215649,0.9322781350702661
0.07665386521308225,0.028745199454905845,-0.006387822101090189,-0.16608337462834488,0.03881393439556397,0.10687337852171191,0.6406815155942718,0.9313686629863996
0.006387822101090189,0.07345995416253714,0.06707213206144698,0.009581733151635281,0.03876654859077831,0.10680724057486636,0.6393225447494675,0.9304625854623981
-0.060684309960356786,0.10859297571853319,0.038326932606541124,0.14053208622398414,0.03871923788960204,0.10674082788370251,0.6379655854341345,0.9295599474627004
-0.08623559836471753,0.1117868867690783,-0.02235737735381566,0.22676768458870167,0.038672003123871874,0.10667414295634924,0.6366106698955909,0.9286607928609409
-0.04152084365708622,0.06387822101090188,-0.1596955525272547,0.11498079781962338,0.03862484521725425,0.10660718850152623,0.6352578293835014,0.9277651645508518
-0.035133021555996034,0.009581733151635281,-0.2682885282457879,-0.03193911050545094,0.03857776521235517,0.10653996740581344,0.6339070944655795,0.926873104657105
-0.06707213206144698,-0.006387822101090189,-0.20121639618434092,0.2235737735381566,0.03853076424235435,0.10647248251598272,0.6325584956906027,0.9259846543507184
-0.038326932606541124,-0.02235737735381566,0.0,0.16927728567888997,0.0384838435062777,0.10640473640102655,0.6312120640120337,0.9250998537746558
0.07345995416253714,-0.02235737735381566,0.3161971940039643,0.2810641724479683,0.0384370042781519,0.10633673125375276,0.629867830587514,0.924218742395491
0.07665386521308225,-0.08304168731417244,-0.025551288404360755,-0.1628894635777998,0.038390247928756616,0.10626846893862915,0.6285258265377631,0.9233413593984131
0.07665386521308225,-0.13733817517343905,-0.2555128840436075,-0.23954332879088208,0.03834357595896871,0.10619995116411171,0.6271860829989114,0.9224677438271304
0.038326932606541124,-0.1628894635777998,-0.25231897299306244,-0.12456253097125865,0.03829699002058484,0.10613117977591482,0.6258486312596738,0.9215979345091107
-0.038326932606541124,-0.09262342046580772,-0.2107981293359762,-0.07984777626362735,0.03825049188734763,0.10606215703505194,0.6245135030410087,0.9207319698223031
-0.04471475470763132,-0.08942950941526263,-0.05110257680872151,0.012775644202180378,0.03820408339772131,0.10599288567961132,0.6231807306549497,0.9198698872714658
0.060684309960356786,-0.09901124256689792,-0.060684309960356786,0.07345995416253714,0.03815776642569933,0.10592336879166896,0.6218503465969262,0.9190117230079502
0.02235737735381566,-0.035133021555996034,0.08942950941526263,0.09581733151635283,0.03811154288636766,0.10585360965141392,0.6205223829065774,0.9181575116006879
-0.038326932606541124,0.028745199454905845,0.1533077304261645,0.19482857408325072,0.038065414731004894,0.10578361159958438,0.6191968709066372,0.917307286192271
-0.060684309960356786,0.07665386521308225,0.12775644202180375,0.13414426412289396,0.03801938392790364,0.10571337788424541,0.6178738413785293,0.9164610788831783
-0.04152084365708622,0.09581733151635283,0.17247119672943506,0.2650946171952428,0.03797345246901584,0.10564291162783837,0.6165533248361054,0.9156189211025971
-0.047908665758176414,0.08623559836471753,0.09262342046580772,0.0,0.03792762239163501,0.10557221595279728,0.6152353516635074,0.9147808437917534
-0.06387822101090188,0.09901124256689792,0.1565016414767096,-0.028745199454905845,0.03788189578536556,0.10550129410958968,0.6139199520983961,0.9139468771849611
-0.04152084365708622,0.047908665758176414,0.035133021555996034,-0.009581733151635281,0.037836274797375474,0.1054301495057575,0.6126071561163978,0.9131170502294591
0.009581733151635281,-0.0031939110505450944,-0.2107981293359762,-0.2107981293359762,0.037790761626391126,0.10535878561371523,0.611296993311732,0.9122913902417379
0.02235737735381566,-0.028745199454905845,-0.18205292988107036,-0.3832693260654113,0.037745358476913696,0.10528720577419862,0.6099894929721948,0.9114699233338368
0.038326932606541124,-0.03193911050545094,-0.08623559836471753,-0.306615460852329,0.037700067509394884,0.10521541303274437,0.6086846843319892,0.9106526754354659
0.012775644202180378,-0.047908665758176414,0.012775644202180378,-0.10220515361744302,0.03765489083189319,0.10514341012197756,0.6073825965404176,0.9098396730362892
0.006387822101090189,-0.08304168731417244,0.01596955525272547,-0.07984777626362735,0.03760983050223723,0.10507119954857808,0.6060832581796378,0.9090309429394673
-0.02235737735381566,-0.12456253097125865,0.012775644202180378,0.04152084365708622,0.03756488850703569,0.10499878374445051,0.6047866967674664,0.9082265114056247
-0.012775644202180378,-0.1533077304261645,-0.06387822101090188,0.17247119672943506,0.037520066745024026,0.10492616528848575,0.6034929385731659,0.9074264035594832
0.02235737735381566,-0.1469199083250743,-0.14372599727452925,0.35452412661050536,0.03747536703222111,0.10485334714406956,0.602202008756383,0.9066306435069377
-0.01596955525272547,-0.08304168731417244,-0.2203798624876115,0.2587067950941526,0.03743079111099848,0.10478033278533966,0.6009139317953837,0.9058392550529681
0.009581733151635281,-0.03193911050545094,-0.09901124256689792,0.11817470887016848,0.03738634065183412,0.10470712610069194,0.5996287320112449,0.9050522623007867
-0.05429648785926659,0.047908665758176414,0.2587067950941526,0.18205292988107036,0.03734201725664079,0.10463373112040628,0.5983464338682696,0.9042696895205486
-0.06387822101090188,0.038326932606541124,0.1053990646679881,-0.3130032829534192,0.03729782249314483,0.10456015177402872,0.5970670620542295,0.9034915607678504
0.0031939110505450944,0.028745199454905845,0.05110257680872151,-0.5429648785926661,0.037253757948642434,0.1044863917888614,0.5957906414030555,0.9027179001546409
-0.006387822101090189,0.09262342046580772,0.1117868867690783,-0.3832693260654113,0.03720982522706181,0.1044124546840445,0.5945171965558871,0.9019487327872989
0.03193911050545094,0.12136861992071357,0.08304168731417244,-0.1469199083250743,0.037166025887862726,0.10433834386910984,0.5932467516238387,0.9011840853661819
-0.01596955525272547,0.13733817517343905,-0.07345995416253714,0.1628894635777998,0.03712236141464077,0.10426406286318049,0.5919793301153582,0.9004239856788187
-0.01596955525272547,0.07026604311199207,-0.060684309960356786,0.3161971940039643,0.03707883322651149,0.10418961548673261,0.5907149549219727,0.8996684616619196
-0.04471475470763132,0.0031939110505450944,0.047908665758176414,0.32258501610505447,0.03703544268851924,0.10411500582807678,0.5894536482205194,0.8989175411720057
-0.028745199454905845,-0.02235737735381566,0.07026604311199207,-0.14053208622398414,0.03699219112746426,0.10404023797779685,0.5881954313789499,0.8981712523170119
-0.006387822101090189,-0.047908665758176414,-0.09901124256689792,-0.2619007061446977,0.03694907984986807,0.10396531577049216,0.5869403249551872,0.8974296234811153
0.006387822101090189,-0.06387822101090188,-0.04471475470763132,-0.006387822101090189,0.03690611012456426,0.10389024274094685,0.5856883487856163,0.8966926829261653
-0.006387822101090189,-0.08304168731417244,-0.11498079781962338,-0.035133021555996034,0.036863283140858925,0.10381502224353792,0.5844395220550704,0.8959604582271568
0.01596955525272547,-0.1501138193756194,-0.16608337462834488,-0.18205292988107036,0.03682059998572103,0.10373965762338674,0.5831938633905098,0.8952329757278525
0.07345995416253714,-0.2076042182854311,-0.3130032829534192,-0.47269883548067393,0.036778061663616995,0.10366415246373001,0.5819513912160921,0.8945102606407161
0.035133021555996034,-0.1596955525272547,-0.29064590559960357,-0.08942950941526263,0.03673566915988676,0.10358851089780106,0.5807121244091437,0.8937923379240453
-0.028745199454905845,-0.09581733151635283,0.07665386521308225,0.2938398166501486,0.03669342349671073,0.1035127377754297,0.5794760827987024,0.8930792328671151
-0.04152084365708622,-0.04152084365708622,0.1628894635777998,0.019163466303270562,0.03665132573154732,0.10343683851080102,0.5782432869891191,0.8923709708253053
-0.0031939110505450944,0.03193911050545094,0.1501138193756194,-0.04471475470763132,0.03660937692608807,0.10336081872540619,0.5770137578111662,0.8916675765946622
-0.04152084365708622,0.08623559836471753,0.11817470887016848,0.019163466303270562,0.036567578120501154,0.10328468395789608,0.5757875160506113,0.8909690737694714
-0.06387822101090188,0.13414426412289396,0.20121639618434092,0.2139920403865213,0.03652593033121941,0.10320843963059659,0.5745645824516793,0.8902754843881471
-0.05110257680872151,0.12456253097125865,0.2139920403865213,0.060684309960356786,0.03648443459262137,0.10313209124466005,0.5733449778271141,0.8895868291241747
0.04471475470763132,0.05110257680872151,-0.060684309960356786,-0.07345995416253714,0.03644309200440898,0.10305564455711753,0.5721287232064212,0.8889031275830167
0.025551288404360755,0.02235737735381566,-0.2619007061446977,-0.07984777626362735,0.036401903731957605,0.10297910551351576,0.5709158398083107,0.8882243982530531
-0.025551288404360755,0.009581733151635281,-0.1469199083250743,-0.07665386521308225,0.03636087096917487,0.10290247998335787,0.5697063489773568,0.8875506583376535
0.04152084365708622,-0.04152084365708622,-0.05110257680872151,-0.09901124256689792,0.03631999490355425,0.10282577352967338,0.5685002722092718,0.8868819237407929
0.02235737735381566,-0.047908665758176414,-0.035133021555996034,0.09581733151635283,0.036279276706515505,0.1027489913523182,0.5672976308842953,0.8862182091438142
-0.019163466303270562,-0.025551288404360755,0.038326932606541124,0.2235737735381566,0.03623871753267458,0.10267213834702832,0.5660984457325378,0.8855595281591376
-0.03193911050545094,-0.05429648785926659,0.1469199083250743,0.303421549801784,0.03619831850716636,0.10259521915311362,0.5649027365595305,0.8849058937175655
0.0,-0.12775644202180375,0.02235737735381566,0.02235737735381566,0.03615808071078459,0.10251823820935138,0.5637105223592135,0.8842573185382953
0.01596955525272547,-0.1596955525272547,-0.11817470887016848,-0.12456253097125865,0.03611800516377424,0.10244119995061071,0.5625218214708905,0.8836138151084605
-0.02235737735381566,-0.12136861992071357,-0.08304168731417244,-0.17885901883052527,0.03607809280830009,0.10236410909816816,0.5613366516098846,0.882975395241904
0.0,-0.08304168731417244,-0.12136861992071357,-0.13414426412289396,0.03603834450556297,0.10228697080512873,0.56015502992443,0.8823420699392659
0.009581733151635281,-0.028745199454905845,-0.08942950941526263,-0.2139920403865213,0.03599876103456748,0.10220979053854343,0.5589769731031236,0.8817138495989523
-0.025551288404360755,0.012775644202180378,-0.11817470887016848,0.04471475470763132,0.035959343083743836,0.10213257380091441,0.5578024974311495,0.8810907441376079
-0.04152084365708622,0.05110257680872151,-0.12456253097125865,0.06387822101090188,0.0359200912658408,0.10205532587560608,0.5566316188227676,0.8804727628218827
-0.025551288404360755,0.060684309960356786,-0.09901124256689792,0.0031939110505450944,0.03588100615889829,0.10197805174189736,0.5554643528742584,0.8798599138634086
-0.012775644202180378,0.05749039890981169,0.13414426412289396,0.12456253097125865,0.03584208832981235,0.10190075614797829,0.554300714898891,0.8792522040894766
-0.035133021555996034,0.07026604311199207,0.23954332879088208,0.1053990646679881,0.03580333832323096,0.10182344370514658,0.5531407200165808,0.8786496389677594
-0.04152084365708622,0.07026604311199207,0.27148243929633303,0.14372599727452925,0.03576475665461972,0.101746118940236,0.5519843834935325,0.8780522228903677
-0.01596955525272547,0.035133021555996034,0.2076042182854311,0.1053990646679881,0.03572634382736459,0.1016687863144043,0.5508317212210797,0.8774599594298166
-0.0031939110505450944,-0.009581733151635281,0.025551288404360755,0.11498079781962338,0.03568810033285238,0.10159145016857604,0.5496827498285268,0.876872851423928
0.006387822101090189,-0.03193911050545094,-0.2555128840436075,-0.12456253097125865,0.03565002661227823,0.10151411459525178,0.5485374862816511,0.8762909009577898
0.006387822101090189,-0.012775644202180378,-0.11817470887016848,-0.27148243929633303,0.03561212301748633,0.10143678333777734,0.5473959475562516,0.8757141094459351
0.009581733151635281,-0.028745199454905845,0.1501138193756194,-0.12136861992071357,0.035574389798772414,0.10135945976583303,0.5462581506770033,0.8751424779220042
-0.0031939110505450944,-0.07345995416253714,-0.02235737735381566,-0.23634941774033696,0.03553682710804789,0.10128214690801693,0.5451241126623196,0.8745760072946909
0.028745199454905845,-0.1469199083250743,-0.29703372770069375,-0.1628894635777998,0.03549943500595188,0.10120484759425277,0.5439938503043812,0.874014698394415
0.019163466303270562,-0.1533077304261645,-0.2682885282457879,0.04471475470763132,0.0354622134800224,0.10112756474497486,0.542867380345147,0.8734585518722112
0.038326932606541124,-0.1469199083250743,-0.012775644202180378,0.06707213206144698,0.035425162473744054,0.10105030167496803,0.5417447199504462,0.8729075678697537
-0.04471475470763132,-0.07984777626362735,0.1501138193756194,0.05749039890981169,0.03538828191752029,0.10097306221928339,0.5406258866486497,0.8723617455659384
-0.038326932606541124,-0.035133021555996034,0.04152084365708622,0.012775644202180378,0.03535157175914298,0.10089585060659349,0.5395108977655046,0.8718210829088557
-0.019163466303270562,0.04152084365708622,0.009581733151635281,-0.038326932606541124,0.03531503197861338,0.10081867117504816,0.5383997700110411,0.8712855764974972
-0.05429648785926659,0.07984777626362735,0.08623559836471753,-0.047908665758176414,0.035278662578796645,0.10074152814640537,0.5372925192427979,0.8707552215036807
-0.02235737735381566,0.08942950941526263,-0.009581733151635281,0.047908665758176414,0.035242463578617135,0.10066442560658981,0.5361891603225267,0.8702300116952684
-0.012775644202180378,0.07984777626362735,0.019163466303270562,0.060684309960356786,0.035206435010348994,0.10058736761925617,0.535089707085826,0.869709939529977
-0.012775644202180378,0.05749039890981169,0.07026604311199207,0.2235737735381566,0.03517057689223076,0.10051035829874493,0.5339941722990577,0.8691949963331483
-0.06387822101090188,0.038326932606541124,0.02235737735381566,0.18844075198216054,0.03513488920391957,0.1004334017670563,0.5329025676647124,0.868685172714186
-0.019163466303270562,0.019163466303270562,0.047908665758176414,0.13733817517343905,0.03509937190939402,0.10035650203251378,0.5318149038972948,0.868180459052542
-0.01596955525272547,0.01596955525272547,0.07984777626362735,0.17885901883052527,0.03506402498586469,0.10027966285401795,0.5307311907733273,0.8676808456654276
0.028745199454905845,-0.038326932606541124,-0.0031939110505450944,0.06707213206144698,0.03502884840755988,0.10020288764928177,0.5296514371825597,0.8671863226769267
0.038326932606541124,-0.06387822101090188,-0.08304168731417244,-0.04152084365708622,0.03499384212419428,0.10012617950000843,0.5285756511517817,0.8666968797567625
-0.009581733151635281,-0.07665386521308225,-0.08304168731417244,0.09262342046580772,0.034959006068495856,0.10004954125839594,0.5275038398645441,0.866212505781691
-0.028745199454905845,-0.13095035307234884,-0.19482857408325072,-0.06387822101090188,0.03492434015882822,0.09997297571156405,0.5264360098616144,0.8657331886295789
-0.009581733151635281,-0.1501138193756194,-0.12775644202180375,-0.2810641724479683,0.03488984428343279,0.09989648578654124,0.5253721674211042,0.8652589153055076
0.047908665758176414,-0.1117868867690783,-0.10220515361744302,-0.39923888131813673,0.03485551829370233,0.09982007475338336,0.5243123188333811,0.8647896725197316
0.10220515361744302,-0.07665386521308225,-0.1053990646679881,-0.4663110133795837,0.03482136203982857,0.0997437462922636,0.5232564703667261,0.8643254477027924
0.04471475470763132,-0.05110257680872151,-0.12136861992071357,-0.2139920403865213,0.03478737545371062,0.09966750436263896,0.5222046280983008,0.8638662298823899
-0.038326932606541124,-0.006387822101090189,-0.1628894635777998,-0.1117868867690783,0.034753558603392076,0.09959135296866804,0.5211567978888392,0.8634120096454453
-0.03193911050545094,0.02235737735381566,-0.14372599727452925,-0.05429648785926659,0.03471991166047875,0.09951529592694879,0.5201129855215826,0.8629627782056997
-0.012775644202180378,0.047908665758176414,0.02235737735381566,-0.11817470887016848,0.034686434833786584,0.09943933672154104,0.5190731967722844,0.8625185264138032
-0.006387822101090189,0.08304168731417244,0.0,-0.09581733151635283,0.0346531283176197,0.09936347852238818,0.5180374371447268,0.8620792443226746
-0.019163466303270562,0.08942950941526263,-0.1117868867690783,0.05429648785926659,0.034619992252055365,0.09928772433913247,0.517005711431521,0.8616449211539302
-0.04152084365708622,0.09581733151635283,0.009581733151635281,0.20441030723488604,0.03458702671179003,0.09921207719182482,0.5159780235488163,0.8612155453375783
-0.047908665758176414,0.038326932606541124,0.02235737735381566,0.11498079781962338,0.03455423173902983,0.09913654019089893,0.5149543765871459,0.8607911046582651
-0.012775644202180378,0.0031939110505450944,0.17885901883052527,0.2203798624876115,0.03452160738621518,0.09906111645781426,0.51393477283488,0.8603715865262874
-0.009581733151635281,-0.006387822101090189,0.46950492443012876,0.2139920403865213,0.03448915371499079,0.09898580891431413,0.5129192142052095,0.8599569782315352
-0.038326932606541124,-0.02235737735381566,0.48866839073339935,0.1053990646679881,0.03445687075930988,0.09891062009601047,0.5119077034752832,0.8595472671098179
-0.0031939110505450944,-0.05429648785926659,0.12136861992071357,-0.03193911050545094,0.03442475850748184,0.09883555211961569,0.5109002455183738,0.8591424404196834
-0.06387822101090188,-0.05749039890981169,0.11817470887016848,0.038326932606541124,0.03439281691402024,0.09876060678492539,0.509896847245194,0.8587424848545919
-0.05110257680872151,-0.07345995416253714,-0.16608337462834488,0.1596955525272547,0.034361045932830715,0.09868578571394036,0.5088975164944409,0.858347386133902
0.047908665758176414,-0.1469199083250743,-0.36729977081268583,0.05110257680872151,0.03432944556660271,0.098611090493708,0.507902261373659,0.8579571290253933
0.07984777626362735,-0.1565016414767096,-0.373687592913776,-0.39604497026759167,0.034298015903429804,0.09853652288392274,0.5069110906812833,0.8575716976960959
0.025551288404360755,-0.12775644202180375,-0.2555128840436075,-0.25231897299306244,0.03426675713129339,0.09846208505540788,0.5059240146702835,0.8571910763333936
-0.01596955525272547,-0.07345995416253714,-0.1533077304261645,-0.11498079781962338,0.0342356695211999,0.09838777967558668,0.5049410452105852,0.8568152497378612
-0.04152084365708622,-0.01596955525272547,-0.18205292988107036,-0.05429648785926659,0.03420475337230813,0.09831360974354535,0.5039621952457461,0.856444203198457
-0.038326932606541124,0.038326932606541124,0.18844075198216054,0.012775644202180378,0.03417400897548779,0.09823957828611837,0.5029874782011787,0.8560779217234886
-0.06707213206144698,0.1117868867690783,0.3353606603072349,0.28425808349851334,0.03414343663248953,0.09816568815730373,0.5020169078647966,0.855716389503777
0.035133021555996034,0.08942950941526263,0.035133021555996034,0.440759724975223,0.03411303669473487,0.09809194209736714,0.5010504985800196,0.8553595902741001
0.035133021555996034,0.09901124256689792,-0.028745199454905845,-0.02235737735381566,0.03408280957674926,0.0980183429177073,0.5000882650717343,0.8550075082351434
0.0031939110505450944,0.08623559836471753,0.23315550668979185,-0.21718595143706637,0.03405275572710755,0.0979448935962381,0.49913022182358374,0.854660128332333
-0.009581733151635281,0.035133021555996034,0.23315550668979185,-0.2810641724479683,0.03402287557273763,0.09787159724597408,0.498176382914945,0.8543174358057845
-0.006387822101090189,-0.0031939110505450944,0.04152084365708622,-0.07984777626362735,0.03399316946891731,0.09779845697379427,0.4972267624472774,0.8539794160180006
0.0031939110505450944,-0.05110257680872151,-0.1469199083250743,-0.23315550668979185,0.033963637674015425,0.09772547568038666,0.496281374630171,0.8536460545039974
0.0,-0.07665386521308225,-0.21718595143706637,-0.19482857408325072,0.03393428034060366,0.09765265597378724,0.4953402335059563,0.8533173368644864
-0.006387822101090189,-0.07665386521308225,-0.11498079781962338,0.0031939110505450944,0.033905097509119034,0.09758000027219339,0.4944033529759537,0.8529932486698683
-0.019163466303270562,-0.08623559836471753,-0.1628894635777998,0.22676768458870167,0.03387608911041522,0.09750751095730154,0.49347074697296717,0.8526737752550688
0.02235737735381566,-0.10859297571853319,-0.27148243929633303,0.23954332879088208,0.0338472549866257,0.09743519047297582,0.4925424295014234,0.8523589015849122
-0.05429648785926659,-0.11498079781962338,-0.10859297571853319,0.16927728567888997,0.03381859492844348,0.09736304140739269,0.49161841476445384,0.8520486125537451
-0.009581733151635281,-0.09581733151635283,-0.07984777626362735,-0.19163466303270565,0.0337901087157871,0.09729106657382719,0.49069871719362423,0.8517428932820083
0.0031939110505450944,-0.07026604311199207,0.18844075198216054,-0.2938398166501486,0.03376179612591148,0.09721926902300909,0.48978335114289046,0.8514417291374925
-0.012775644202180378,-0.025551288404360755,0.10859297571853319,-0.047908665758176414,0.03373365689514047,0.09714765193896925,0.4888723306713431,0.8511451057471441
0.006387822101090189,-0.01596955525272547,0.05749039890981169,0.24273723984142714,0.03370569068122775,0.09707621844413807,0.4879656695466597,0.8508530089033643
-0.012775644202180378,0.019163466303270562,0.03193911050545094,0.24273723984142714,0.03367789705664075,0.09700497140166084,0.48706338106566516,0.850565424410101
0.009581733151635281,0.06387822101090188,-0.10220515361744302,0.1565016414767096,0.03365027551392557,0.09693391332382365,0.486165477731192,0.8502823381964579
-0.038326932606541124,0.1117868867690783,0.05429648785926659,0.04471475470763132,0.033622825476576655,0.09686304645344634,0.4852719711400121,0.8500037363576506
-0.03193911050545094,0.11498079781962338,0.16608337462834488,-0.18524684093161545,0.033595546327280845,0.09679237298560195,0.4843828721069882,0.8497296047941237
-0.012775644202180378,0.06387822101090188,0.0031939110505450944,-0.373687592913776,0.03356843743889619,0.09672189526933193,0.48349819082539175,0.8494599290635043
0.006387822101090189,0.019163466303270562,-0.13414426412289396,-0.2203798624876115,0.033541498172236305,0.09665161580779043,0.4826179368913421,0.849194694902987
-0.006387822101090189,-0.019163466303270562,-0.07345995416253714,-0.07665386521308225,0.03351472784199831,0.09658153705711843,0.48174211924220117,0.8489338886941844
0.006387822101090189,-0.038326932606541124,-0.06707213206144698,-0.09262342046580772,0.03348812568723882,0.09651166121667135,0.4808707461627131,0.8486774971198382
0.009581733151635281,-0.04152084365708622,-0.04471475470763132,0.028745199454905845,0.033461690862274775,0.09644199016282196,0.48000382526254615,0.8484255064267497
-0.03193911050545094,-0.04471475470763132,-0.009581733151635281,-0.05749039890981169,0.03343542244528601,0.09637252549419584,0.4791413633209453,0.8481779019440026
-0.05429648785926659,-0.08304168731417244,-0.04152084365708622,-0.05429648785926659,0.0334093194723035,0.0963032686045284,0.4782833661016301,0.8479346678977673
-0.009581733151635281,-0.12456253097125865,-0.019163466303270562,-0.01596955525272547,0.03338338098579981,0.09623422080057414,0.4774298382470243,0.8476957873617776
0.035133021555996034,-0.14053208622398414,0.019163466303270562,0.14053208622398414,0.03335760605298562,0.09616538350307575,0.4765807832581594,0.8474612422777474
0.02235737735381566,-0.12456253097125865,0.1501138193756194,0.23634941774033696,0.03333199374872191,0.0960967584563704,0.475736203564572,0.8472310136897994
0.035133021555996034,-0.07665386521308225,-0.006387822101090189,0.09581733151635283,0.03330654314508833,0.09602834781080916,0.4748961007322478,0.8470050822329522
-0.009581733151635281,-0.01596955525272547,0.05110257680872151,0.16608337462834488,0.03328125331308259,0.0959601540025329,0.47406047561495385,0.8467834284485365
-0.038326932606541124,0.012775644202180378,0.0031939110505450944,-0.08304168731417244,0.03325612331711653,0.0958921794771512,0.4732293282403316,0.8465660327078616
-0.04152084365708622,0.038326932606541124,-0.1053990646679881,-0.07345995416253714,0.03323115221598179,0.0958244264283525,0.47240265766366085,0.8463528749955742
-0.04471475470763132,0.07984777626362735,-0.05749039890981169,-0.09901124256689792,0.033206339087721595,0.09575689672416009,0.4715804620469899,0.8461439347056785
-0.02235737735381566,0.08304168731417244,-0.10220515361744302,-0.05110257680872151,0.03318168305409522,0.09568959202822246,0.47076273886280745,0.8459391905008625
-0.01596955525272547,0.07345995416253714,-0.07345995416253714,-0.11498079781962338,0.03315718327114966,0.09562251396685711,0.4699494850373406,0.8457386202704241
0.0,0.060684309960356786,-0.11817470887016848,-0.1565016414767096,0.03313283888884379,0.09555566420393546,0.46914069702301414,0.8455422012015326
0.038326932606541124,0.028745199454905845,-0.047908665758176414,0.02235737735381566,0.033108649013723124,0.09548904439975668,0.4683363708450259,0.8453499099329282
-0.0031939110505450944,0.019163466303270562,0.009581733151635281,0.019163466303270562,0.03308461270330539,0.09542265609456523,0.46753650203483316,0.845161722517425
-0.03193911050545094,0.0,0.11498079781962338,0.2235737735381566,0.03306072897890367,0.09535650056565584,0.4667410854466879,0.8449776142144853
-0.02235737735381566,-0.028745199454905845,0.05749039890981169,0.36729977081268583,0.03303699683425912,0.09529057871665393,0.4659501152067722,0.8447975597582297
0.02235737735381566,-0.10859297571853319,-0.04152084365708622,0.28425808349851334,0.033013415244037135,0.09522489108790412,0.4651635848213533,0.8446215342600972
0.01596955525272547,-0.16608337462834488,-0.09581733151635283,0.23954332879088208,0.032989983168201426,0.09515943807841841,0.46438148720325695,0.844449513942476
0.0031939110505450944,-0.1596955525272547,0.019163466303270562,-0.07984777626362735,0.03296669954037214,0.095094220320752,0.463603814633222,0.8442814760888073
