raw_ch1,raw_ch2,raw_ch3,raw_ch4,processed_ch1,processed_ch2,processed_ch3,processed_ch4
0.5046379459861249,0.2076042182854311,-0.038326932606541124,-0.1053990646679881,0.328671961955219,0.2185777730199438,0.1792119795243623,0.26409558053118026
0.2810641724479683,0.3002276387512388,-0.006387822101090189,-0.4152084365708622,0.32864195097807425,0.21859169498825487,0.17915199990425743,0.2641075133254438
0.20441030723488604,0.25231897299306244,-0.0031939110505450944,-0.36729977081268583,0.3286122180645519,0.21860560720506408,0.17909373557590175,0.2641198190508296
0.1596955525272547,0.21718595143706637,-0.13414426412289396,-0.303421549801784,0.3285827644275952,0.21861951002252974,0.17903719280835675,0.26413249629232605
0.13414426412289396,0.2076042182854311,-0.5908735443508424,-0.38965714816650143,0.3285535910846509,0.21863340382780277,0.1789823774154505,0.2641455437304502
0.18205292988107036,0.2682885282457879,-0.02235737735381566,-0.3768815039643211,0.3285246987781923,0.21864728901461766,0.1789292949545613,0.2641589601460907
0.14372599727452925,0.23315550668979185,0.39604497026759167,-0.2810641724479683,0.3284960879552767,0.21866116597941399,0.17887795086047673,0.2641727444252585
0.09901124256689792,0.07345995416253714,0.2810641724479683,-0.20441030723488604,0.32846775876660556,0.21867503512029746,0.1788283504385325,0.2641868955325799
0.05429648785926659,-0.012775644202180378,0.1596955525272547,-0.10220515361744302,0.32843971104342196,0.21868889677152512,0.1787804988498513,0.2642014124182501
-0.20121639618434092,-0.05429648785926659,0.10220515361744302,0.18844075198216054,0.3284119442634089,0.21870275108475634,0.17873440108233196,0.2642162939042867
-0.7761203852824579,-0.24273723984142714,-0.09262342046580772,0.47908665758176416,0.32838445762179796,0.2187165979659541,0.17869006184992128,0.26423153864979637
-1.149807978196234,-0.4311779918235877,-0.23954332879088208,0.6643334985133795,0.3283572503577838,0.21873043715560017,0.17864748551454032,0.26424714528685556
-0.6834969648166501,-0.5238014122893954,-0.22996159563924676,0.5429648785926661,0.328330322238855,0.21874426843259998,0.17860667610652486,0.2642631126726748
0.038326932606541124,-0.4503414581268582,-0.12456253097125865,0.2874519945490585,0.32830367376253367,0.21875809182843917,0.17856763739044157,0.26427944004227744
0.3098093719028741,-0.3257789271555996,-0.08942950941526263,0.11817470887016848,0.3282773058508263,0.21877190772734886,0.17853037287401013,0.26429612691640847
0.43756581392467786,-0.2139920403865213,-0.06707213206144698,-0.047908665758176414,0.32825121944220836,0.2187857168129727,0.17849488574439404,0.26431317284735967
0.4439536360257681,0.07345995416253714,0.0031939110505450944,-0.2746763503468781,0.328225415404072,0.21879951991495766,0.1784611787950749,0.26433057720441533
0.440759724975223,0.25231897299306244,0.05429648785926659,-0.3704936818632309,0.3281998946524289,0.21881331784938288,0.178429254374332,0.26434833914271655
0.16927728567888997,0.3098093719028741,0.04471475470763132,-0.3161971940039643,0.3281746582026945,0.21882711135682972,0.17839911436084474,0.26436645772633166
0.12775644202180375,0.25231897299306244,0.038326932606541124,-0.2682885282457879,0.3281497070718236,0.21884090115872937,0.17837076016844866,0.26438493204038654
0.1053990646679881,0.2076042182854311,-0.01596955525272547,-0.23315550668979185,0.328125042101808,0.21885468801989166,0.1783441927558096,0.2644037611961414
0.2650946171952428,0.1596955525272547,-0.46950492443012876,-0.38646323711595637,0.3281006638397629,0.21886847273194004,0.1783194126653123,0.26442294429216356
0.11498079781962338,0.19802248513379583,0.884713361000991,-0.1117868867690783,0.32807657253448713,0.2188822560553543,0.1782964202276909,0.2644424804029805
0.09581733151635283,0.13095035307234884,0.7537630079286421,-0.09262342046580772,0.3280527681611988,0.21889603867758076,0.1782752159657784,0.2644623685420001
0.04471475470763132,0.025551288404360755,0.5078318570366699,-0.14053208622398414,0.32802925038603964,0.21890982117738847,0.17825580092962845,0.2644826075562309
0.0,-0.03193911050545094,0.33216674925668976,-0.11817470887016848,0.3280060184932443,0.21892360395772814,0.17823817670302705,0.26450319604279615
-0.4503414581268582,-0.18205292988107036,0.10859297571853319,0.2107981293359762,0.3279830713660044,0.21893738718217595,0.17822234515092716,0.26452413234707206
-1.02205153617443,-0.3161971940039643,-0.16927728567888997,0.5046379459861249,0.3279604076747529,0.21895117080625176,0.17820830812343422,0.26454541463463915
-0.6771091427155599,-0.4599231912784935,-0.2619007061446977,0.574903989098117,0.32793802630711155,0.21896495472582267,0.1781960672658231,0.26456704106422585
-0.2874519945490585,-0.4982501238850346,-0.27148243929633303,0.6643334985133795,0.3279159266945332,0.2189787389737042,0.17818562398904655,0.2645890100275753
0.11498079781962338,-0.4088206144697721,-0.27787026139742316,0.4982501238850346,0.3278941087006187,0.21899252387323537,0.17817697953209005,0.2646113203273631
0.3353606603072349,-0.2682885282457879,-0.28425808349851334,0.1053990646679881,0.3278725722646425,0.21900631007606614,0.1781701350137646,0.2646339711756574
0.4663110133795837,-0.06387822101090188,-0.18205292988107036,-0.2650946171952428,0.3278513172141091,0.21902009845950024,0.17816509144231965,0.26465696199578614
0.48866839073339935,0.17247119672943506,-0.047908665758176414,-0.39923888131813673,0.3278303433426671,0.21903388994185502,0.17816184967060103,0.2646802922101228
0.2938398166501486,0.3449423934588701,-0.1117868867690783,-0.39923888131813673,0.327809650544771,0.21904768535883448,0.17816041029548715,0.2647039612164731
0.1596955525272547,0.3098093719028741,-0.1117868867690783,-0.34174848240832506,0.3277892388105112,0.2190614854983741,0.17816077356886798,0.26472796848426927
0.12775644202180375,0.2587067950941526,-0.09262342046580772,-0.28425808349851334,0.3277691080773352,0.21907529120497107,0.17816293937553537,0.26475231359271784
0.1053990646679881,0.2107981293359762,-0.08304168731417244,-0.23954332879088208,0.3277492580653673,0.21908910341102605,0.17816690724141146,0.26477699618191003
0.2587067950941526,0.2491250619425173,-0.7090482532210107,-0.3002276387512388,0.3277296881978282,0.21910292309391266,0.17817267639013498,0.26480201588466284
0.29064590559960357,0.2587067950941526,0.6834969648166501,0.0031939110505450944,0.32771039762986687,0.21911675123991084,0.17818024597341814,0.26482737226749337
0.17566510777998018,0.12136861992071357,0.5238014122893954,0.18844075198216054,0.32769138533126757,0.21913058883310338,0.17818961540319278,0.26485306474695136
0.05110257680872151,0.02235737735381566,0.3353606603072349,0.2491250619425173,0.32767265010858865,0.21914443680834914,0.17820078449254784,0.2648790925162826
-0.006387822101090189,-0.02235737735381566,0.2235737735381566,0.29703372770069375,0.32765419051587497,0.2191582959414615,0.17821375332245934,0.2649054545754552
-0.49505621283448964,-0.12136861992071357,0.05110257680872151,0.35771803766105054,0.32763600477519034,0.21917216675168788,0.1782285220029592,0.2649321498366328
-1.1721653555500495,-0.3098093719028741,-0.18205292988107036,0.48228056863230917,0.32761809095121364,0.2191860495107267,0.17824509046441542,0.26495917723010165
-0.948591582011893,-0.3704936818632309,-0.2203798624876115,0.5365770564915758,0.3276004474479442,0.21919994437320983,0.17826345835221116,0.2649865358168023
-0.22676768458870167,-0.4215962586719524,-0.1501138193756194,0.4503414581268582,0.32758307342414084,0.2192138515544475,0.17828362503673081,0.2650142248990118
0.2587067950941526,-0.373687592913776,-0.1596955525272547,0.1501138193756194,0.32756596868441246,0.21922777146206995,0.17830558964666915,0.2650422440393946
0.4088206144697721,-0.27148243929633303,-0.18524684093161545,-0.12775644202180375,0.3275491332560136,0.21924170473570367,0.17832935106479894,0.2650705929214097
0.4854744796828543,0.012775644202180378,-0.11498079781962338,-0.12456253097125865,0.3275325671684479,0.21925565217642548,0.17835490791612427,0.2650992711360639
0.47908665758176416,0.2139920403865213,-0.060684309960356786,-0.35452412661050536,0.32751627051190996,0.2192696145906336,0.17838225855039577,0.26512827806688294
0.17885901883052527,0.3130032829534192,-0.07345995416253714,-0.5046379459861249,0.32750024351019547,0.21928359268305475,0.1784114009959396,0.2651576129569924
0.11817470887016848,0.2650946171952428,-0.06707213206144698,-0.4279840807730426,0.32748448643688377,0.21929758709869762,0.17844233291211992,0.26518727509176665
0.08942950941526263,0.2203798624876115,-0.2203798624876115,-0.39923888131813673,0.3274689994190128,0.21931159851103457,0.17847505158644064,0.26521726394115963
0.07345995416253714,0.2076042182854311,-0.5525466117443013,-0.4152084365708622,0.3274537822748282,0.21932562763283298,0.17850955402709376,0.265247579182743
-1.3190852638751238,0.25231897299306244,0.9102646494053518,-0.19802248513379583,0.32743883456373857,0.21933967517990052,0.17854583721727355,0.2652782206515167
-1.1082871345391476,0.21718595143706637,1.5043321048067393,-0.08304168731417244,0.3274241560252239,0.21935374185547793,0.17858389856160647,0.26530918823281185
-0.7537630079286421,0.07665386521308225,1.0028880698711595,-0.060684309960356786,0.327409747173192,0.21936782833982424,0.17862373641011225,0.26534048169212965
-0.4215962586719524,-0.028745199454905845,0.5717100780475718,0.012775644202180378,0.3273956094716879,0.2193819352272077,0.17866535032108913,0.2653721005145551
-0.41201452552031714,-0.05749039890981169,0.3161971940039643,0.39285105921704655,0.3273817450231493,0.21939606292073324,0.17870874082243787,0.2654040438489626
-0.84638642839445,-0.2139920403865213,-0.028745199454905845,0.6515578543111992,0.3273681562459139,0.21941021157611978,0.17875390888174145,0.26543631063770295
-1.0667662908820614,-0.39923888131813673,-0.2938398166501486,0.5940674554013875,0.3273548458895799,0.21942438116862253,0.1788008554490957,0.26546889991392386
-0.5972613664519327,-0.475892746531219,-0.3800754150148662,0.39604497026759167,0.3273418172848966,0.2194385716721371,0.17884958125979952,0.26550181105083576
0.1596955525272547,-0.41201452552031714,-0.39604497026759167,0.16608337462834488,0.32732907440466846,0.21945278325328407,0.17890008688930478,0.2655350437606287
0.5046379459861249,-0.2938398166501486,-0.33216674925668976,-0.11817470887016848,0.3273166215718018,0.21946701636325458,0.17895237287918803,0.26556859788322107
0.7058543421704658,-0.18205292988107036,-0.32258501610505447,-0.35133021555996036,0.32730446319180423,0.2194812716871021,0.1790064397789908,0.26560247317256824
0.7537630079286421,0.07026604311199207,-0.23954332879088208,-0.41201452552031714,0.3272926038185687,0.2194955500000212,0.1790622881105389,0.2656366692580304
0.7697325631813676,0.22676768458870167,-0.21718595143706637,-0.4247901697224975,0.32728104837890554,0.21950985202101714,0.17911991830414573,0.2656711857653032
0.6196187438057482,0.3002276387512388,-0.32258501610505447,-0.3481363045094153,0.3272698022961638,0.21952417836184696,0.17917933064234384,0.2657060224344529
0.511025768087215,0.24593115089197226,-0.27148243929633303,-0.2874519945490585,0.32725887145994886,0.21953852958851022,0.17924052525083575,0.26574117913572737
0.4152084365708622,0.19802248513379583,-0.27148243929633303,-0.25231897299306244,0.3272482620901166,0.21955290628853333,0.17930350212447974,0.2657766558067122
0.33855457135777994,0.14053208622398414,-1.1753592666005943,-0.4982501238850346,0.32723798056652204,0.21956730905846744,0.17936826122445687,0.2658124523975991
0.27148243929633303,0.2235737735381566,0.12775644202180375,-0.35771803766105054,0.3272280332772519,0.21958173844777049,0.17943480271611092,0.26584856890096686
0.20441030723488604,0.10859297571853319,0.22676768458870167,-0.1469199083250743,0.32721842649308364,0.21959619492335825,0.1795031270880948,0.26588500539927773
0.13733817517343905,0.006387822101090189,0.14372599727452925,0.09262342046580772,0.3272091662581937,0.21961067883782867,0.17957323491806182,0.2659217619866141
0.10859297571853319,-0.06387822101090188,0.10220515361744302,0.08623559836471753,0.32720025829192934,0.21962519035717823,0.17964512657365406,0.26595883859386904
-0.4311779918235877,-0.11817470887016848,0.06387822101090188,0.32258501610505447,0.3271917079419,0.219639729395583,0.17971880208378135,0.26599623488499996
-0.9390098488602575,-0.27787026139742316,-0.18844075198216054,0.49505621283448964,0.32718352031376635,0.21965429563860256,0.17979426109350363,0.2660339503241073
-0.680303053766105,-0.4439536360257681,-0.22996159563924676,0.35771803766105054,0.3271757006149476,0.219668888668484,0.17987150287493175,0.26607198436117496
-0.2682885282457879,-0.45672928022794845,-0.2203798624876115,0.2682885282457879,0.32716825442853076,0.21968350815038912,0.17995052640063905,0.26611033656109534
0.16608337462834488,-0.35133021555996036,-0.18524684093161545,0.2076042182854311,0.3271611876145331,0.21969815398904013,0.18003133040881789,0.26614900657104396
0.35452412661050536,-0.24273723984142714,-0.1596955525272547,0.12456253097125865,0.3271545059933337,0.21971282636058653,0.180113913412478,0.266187993999195
0.511025768087215,-0.07665386521308225,-0.038326932606541124,-0.11498079781962338,0.32714821518978304,0.2197275256099945,0.18019827366038554,0.26622729829912045
0.6100370106541129,0.1053990646679881,0.02235737735381566,-0.06387822101090188,0.3271423207353752,0.219742252084358,0.18028440906256835,0.26626691868324615
0.3768815039643211,0.303421549801784,0.02235737735381566,-0.303421549801784,0.3271368282381933,0.2197570060145927,0.1803723171050435,0.2663068540865051
0.2139920403865213,0.303421549801784,0.025551288404360755,-0.35452412661050536,0.32713174341090584,0.21977178753577142,0.18046199479746364,0.26634710322689575
0.16608337462834488,0.24273723984142714,0.019163466303270562,-0.29064590559960357,0.3271270719186972,0.21978659679261658,0.1805534386627196,0.2663876647406841
0.13733817517343905,0.19482857408325072,0.006387822101090189,-0.24273723984142714,0.32712281918277314,0.21980143399050667,0.1806466447406627,0.2664285372715979
0.1053990646679881,0.18205292988107036,-0.038326932606541124,-0.17885901883052527,0.32711899025590624,0.21981629935862537,0.18074160859090438,0.2664697194518002
0.038326932606541124,0.3002276387512388,0.08623559836471753,0.12456253097125865,0.3271155897577581,0.21983119310475868,0.18083832530736088,0.2665112098245457
-0.009581733151635281,0.1596955525272547,0.028745199454905845,0.19482857408325072,0.3271126218180972,0.2198461154158829,0.18093678955113776,0.26655300676965066
-0.05749039890981169,0.07345995416253714,0.012775644202180378,0.3257789271555996,0.32711009002347174,0.2198610664547343,0.18103699557213745,0.2665951084851263
-0.028745199454905845,-0.006387822101090189,0.01596955525272547,0.025551288404360755,0.32710799739537005,0.21987604628330512,0.18113893719766172,0.26663751302529687
-0.5685161669970267,-0.1117868867690783,-0.05749039890981169,0.306615460852329,0.32710634644996495,0.2198910547558152,0.1812426078172457,0.2666802183120878
-1.0763480240336967,-0.3641058597621407,-0.20121639618434092,0.5078318570366699,0.32710513946246156,0.21990609150139892,0.18134800040945673,0.26672322214861777
-0.8655498946977205,-0.4184023476214073,-0.22996159563924676,0.5046379459861249,0.32710437895274025,0.219921156057381,0.18145510763033718,0.26676652235817594
-0.2107981293359762,-0.43437190287413274,-0.2139920403865213,0.38646323711595637,0.32710406803623104,0.21993624807383524,0.181563921927607,0.26681011696753026
0.23315550668979185,-0.33855457135777994,-0.16927728567888997,0.17566510777998018,0.3271042102888466,0.21995136744783655,0.18167443560952742,0.2668540042406497
0.475892746531219,-0.0031939110505450944,0.05749039890981169,-0.4599231912784935,0.32710480935885844,0.21996651430459974,0.18178664083459387,0.26689818257051845
0.4439536360257681,0.33855457135777994,0.05110257680872151,-0.6164248327552032,0.32710586879522086,0.2199816888523785,0.18190052954062957,0.26694265043379384
0.5014440349355798,0.35452412661050536,0.12456253097125865,-0.6547517653617443,0.3271073921277225,0.21999689128229988,0.182016093369203,0.2669874065254748
0.29064590559960357,0.19482857408325072,0.09581733151635283,-0.35452412661050536,0.3271093829458318,0.22001212181486263,0.18213332364470217,0.26703244992128045
0.21718595143706637,0.2650946171952428,0.07665386521308225,-0.27148243929633303,0.3271118448528171,0.2200273807509202,0.18225221139576173,0.2670777800574332
0.16608337462834488,0.10220515361744302,0.05429648785926659,-0.23634941774033696,0.32711478132834465,0.2200426684277068,0.18237274736157172,0.2671233965450182
0.13414426412289396,0.10859297571853319,0.04152084365708622,-0.19482857408325072,0.3271181955883907,0.22005798513638508,0.18249492197158804,0.26716929898888464
0.09581733151635283,0.06387822101090188,0.02235737735381566,-0.13414426412289396,0.32712209049437063,0.22007333103816543,0.182618725320681,0.2672154868841725
0.060684309960356786,-0.012775644202180378,0.035133021555996034,-0.12456253097125865,0.3271264684946499,0.2200887060916825,0.18274414715060022,0.26726195954786514
0.03193911050545094,-0.05749039890981169,0.05110257680872151,-0.10220515361744302,0.32713133157477525,0.22010411000163912,0.1828711768441354,0.2673087160610459
-0.012775644202180378,-0.07665386521308225,0.019163466303270562,-0.1469199083250743,0.32713668121320444,0.22011954219578375,0.18299980343300154,0.26735575523527055
-0.24273723984142714,-0.04152084365708622,-0.028745199454905845,-0.006387822101090189,0.3271425183699147,0.22013500183531812,0.18313001560472184,0.2674030755980379
-0.7441812747770069,-0.23954332879088208,-0.19802248513379583,0.2746763503468781,0.327148843606101,0.22015048784831445,0.18326180171747178,0.26745067538532374
-1.1370323339940533,-0.38965714816650143,-0.2650946171952428,0.511025768087215,0.32715565744513525,0.22016599901600398,0.18339514987243455,0.2674985526064833
-0.8016716736868186,-0.45672928022794845,-0.21718595143706637,0.4056267034192269,0.327162960869905,0.2201815341428474,0.1835300480384012,0.26754670523464386
-0.04152084365708622,-0.43756581392467786,-0.1117868867690783,0.2938398166501486,0.3271707555555638,0.220197092240497,0.18366648413085554,0.267595131382894
0.24593115089197226,-0.2619007061446977,-0.07345995416253714,0.25231897299306244,0.32717904358955446,0.22021267261616245,0.18380444598332463,0.2676438293109545
0.47269883548067393,-0.18524684093161545,-0.06707213206144698,0.1628894635777998,0.32718782703289767,0.2202282748218742,0.18394392126058295,0.2676927973153883
0.6260065659068385,-0.12136861992071357,0.0031939110505450944,-0.16608337462834488,0.3271971078147916,0.2202438985119673,0.184084897385641,0.26774203361727417
0.5333831454410307,0.13733817517343905,0.07984777626362735,-0.33855457135777994,0.32720688792147373,0.22025954330410696,0.1842273614982012,0.26779153630263547
0.22676768458870167,0.36729977081268583,0.12456253097125865,-0.3353606603072349,0.32721716952552815,0.220275208724664,0.18437130045055494,0.2678413033542708
0.17247119672943506,0.306615460852329,0.09262342046580772,-0.2810641724479683,0.3272279548859479,0.22029089427039963,0.18451670084617408,0.26789133273955024
0.14053208622398414,0.2491250619425173,0.0,-0.24593115089197226,0.32723924612329447,0.22030659951327647,0.18466354907246818,0.267941622451424
0.1117868867690783,0.19802248513379583,-0.21718595143706637,-0.5525466117443013,0.32725104504729013,0.22032232412733468,0.1848118312963226,0.26799217050802904
0.06707213206144698,0.29703372770069375,-0.34174848240832506,-0.13095035307234884,0.3272633530767453,0.2203380678422927,0.18496153350263764,0.26804297498840257
0.035133021555996034,0.2203798624876115,-0.1628894635777998,-0.08623559836471753,0.32727617119077096,0.22035383041579373,0.18511264161589544,0.2680940340231722
0.0,0.11817470887016848,-0.028745199454905845,0.306615460852329,0.32728949987960954,0.22036961162554117,0.18526514156699533,0.2681453456684409
0.009581733151635281,0.009581733151635281,0.0,0.20121639618434092,0.327303339100959,0.22038541120786706,0.1854190192047186,0.26819690782277705
-0.4471475470763132,-0.11817470887016848,-0.047908665758176414,0.1596955525272547,0.32731768829725055,0.22040122874762594,0.1855742601565036,0.2682487182548145
-0.9581733151635283,-0.27787026139742316,-0.16608337462834488,0.3449423934588701,0.3273325466111282,0.22041706362822283,0.18573084977700052,0.26830077462702717
-0.7952838515857285,-0.43437190287413274,-0.1469199083250743,0.4663110133795837,0.32734791332580526,0.22043291512288485,0.18588877320088068,0.2683530745373379
-0.32897283820614465,-0.4663110133795837,-0.01596955525272547,0.4503414581268582,0.3273637882207783,0.22044878258413167,0.18604801541148563,0.2684056156467692
0.1596955525272547,-0.38646323711595637,0.04471475470763132,0.025551288404360755,0.3273801715122005,0.22046466561009276,0.18620856123556204,0.2684583957692131
0.3704936818632309,-0.29703372770069375,0.05749039890981169,-0.1565016414767096,0.32739706351644854,0.22048056409545347,0.18637039528719582,0.26851141277303103
0.475892746531219,-0.09262342046580772,0.07984777626362735,-0.2076042182854311,0.3274144644456697,0.22049647815347248,0.18653350194355325,0.2685646643950716
0.49505621283448964,0.1469199083250743,0.10859297571853319,-0.2587067950941526,0.32743237446340684,0.22051240795901025,0.18669786536703492,0.2686181481777713
0.3353606603072349,0.303421549801784,0.20121639618434092,-0.32258501610505447,0.32745079380319897,0.22052835362280288,0.1868634695505573,0.2686718615375265
0.19802248513379583,0.2746763503468781,0.19163466303270565,-0.29064590559960357,0.3274697227642776,0.22054431519399956,0.18703029838280222,0.26872580185048434
0.1596955525272547,0.2235737735381566,0.1565016414767096,-0.2491250619425173,0.3274891615783389,0.220560292737034,0.18719833571088362,0.2687799664986802
0.12775644202180375,0.18205292988107036,0.12775644202180375,-0.20441030723488604,0.3275091102528815,0.2205762863566352,0.18736756535880697,0.2688343528608056
0.11817470887016848,0.22996159563924676,-0.43437190287413274,-0.16608337462834488,0.3275295684705083,0.22059229616009318,0.1875379711323709,0.2688889582611627
0.12456253097125865,0.25231897299306244,1.628894635777998,-0.18205292988107036,0.32755053554422076,0.2206083222312473,0.18770953702334056,0.2689437799123608
0.05749039890981169,0.1501138193756194,1.3222791749256688,-0.12456253097125865,0.32757201039755884,0.22062436463637616,0.1878822478027889,0.2689988148743916
0.019163466303270562,-0.0031939110505450944,0.8304168731417244,-0.19482857408325072,0.32759399153801866,0.2206404233982106,0.1880560896515831,0.2690540600319816
0.01596955525272547,-0.060684309960356786,0.4918623017839445,-0.06387822101090188,0.32761647701121,0.2206564983994028,0.1882310502289969,0.26910951208128675
-0.4056267034192269,-0.1628894635777998,0.17247119672943506,0.27148243929633303,0.32763946439717184,0.2206725892943748,0.1884071181993885,0.2691651675226938
-1.0859297571853321,-0.3193911050545094,-0.12136861992071357,0.5685161669970267,0.3276629510110881,0.22068869553433823,0.1885842826720336,0.26922102271887705
-0.849580339444995,-0.39604497026759167,-0.24593115089197226,0.6036491885530227,0.3276869343686153,0.2207048165057984,0.18876253282313799,0.269277074092023
-0.22676768458870167,-0.440759724975223,-0.33855457135777994,0.5238014122893954,0.3277114125757199,0.22072095170137246,0.1889418577665431,0.26933331836875285
0.2555128840436075,-0.3481363045094153,-0.3609119487115956,0.39604497026759167,0.3277363842445959,0.22073710084121695,0.18912224661478197,0.2693897526874038
0.45672928022794845,-0.2491250619425173,-0.35452412661050536,0.16608337462834488,0.3277618481291536,0.22075326389462913,0.18930368858450736,0.26944637451589576
0.5301892343904856,-0.02235737735381566,-0.3704936818632309,-0.2491250619425173,0.3277878029605207,0.2207694409867814,0.18948617305514232,0.26950318146412544
0.5238014122893954,0.1628894635777998,-0.3193911050545094,-0.5972613664519327,0.3278142475425776,0.22078563223320388,0.18966968958181551,0.26956017115710157
0.22996159563924676,0.3161971940039643,-0.3449423934588701,-0.3800754150148662,0.3278411808428416,0.22080183763034705,0.18985422788461573,0.2696173412952912
0.1533077304261645,0.2746763503468781,-0.2938398166501486,-0.2938398166501486,0.32786860191274886,0.22081805709698524,0.19003977782720424,0.2696746897729125
0.12456253097125865,0.2235737735381566,-0.40243279236868185,-0.3130032829534192,0.32789650968795336,0.22083429057574575,0.19022632940224132,0.26973221466004593
0.10220515361744302,0.18844075198216054,-0.6547517653617443,-0.32258501610505447,0.3279249028181218,0.22085053805830593,0.19041387277134714,0.26978991410786973
0.08623559836471753,0.22676768458870167,-0.2650946171952428,0.08304168731417244,0.32795377958655714,0.22086679954382926,0.19060239836826953,0.26984778628474376
0.047908665758176414,0.2139920403865213,0.25231897299306244,0.38646323711595637,0.3279831378746898,0.22088307500826038,0.19079189692628176,0.26990582931734414
-0.0031939110505450944,0.07026604311199207,0.13414426412289396,0.20121639618434092,0.3280129751287442,0.22089936438955182,0.19098235933939303,0.26996404125744944
-0.02235737735381566,-0.025551288404360755,0.006387822101090189,0.10220515361744302,0.3280432883208352,0.22091566753240469,0.19117377646840703,0.2700224200863076
-0.18524684093161545,-0.05110257680872151,0.07665386521308225,0.41201452552031714,0.3280740739376086,0.2209319840904121,0.1913661389881018,0.27008096369425594
-0.7793142963330029,-0.19482857408325072,-0.06707213206144698,0.41201452552031714,0.3281053280987354,0.22094831347024568,0.19155943729586639,0.27013966990234395
-1.19132882185332,-0.3609119487115956,-0.2107981293359762,0.41201452552031714,0.32813704692995366,0.22096465489095743,0.19175366150672513,0.27019853658698834
-0.84638642839445,-0.4663110133795837,-0.2746763503468781,0.39604497026759167,0.32816922709821167,0.22098100755034308,0.19194880152933294,0.2702575617877793
-0.04471475470763132,-0.4471475470763132,-0.22996159563924676,0.2555128840436075,0.32820186607635143,0.22099737081853169,0.19214484717656016,0.2703167437150749
0.2587067950941526,-0.28425808349851334,-0.1565016414767096,0.06707213206144698,0.32823496185750467,0.22101374435125581,0.19234178823479675,0.27037608066549373
0.4056267034192269,-0.1469199083250743,-0.1117868867690783,-0.16608337462834488,0.3282685124852216,0.22103012805466568,0.19253961444480963,0.2704355708696526
0.4279840807730426,0.13414426412289396,0.035133021555996034,-0.29064590559960357,0.328302515892416,0.221046521935275,0.1927383154246018,0.2704952123784966
0.45672928022794845,0.29064590559960357,0.035133021555996034,-0.48866839073339935,0.32833697000492973,0.22106292596406332,0.19293788058367517,0.27055500310455943
0.2746763503468781,0.2874519945490585,0.04152084365708622,-0.4599231912784935,0.32837187282551517,0.2210793400609807,0.19313829905878035,0.27061494099032146
0.2203798624876115,0.22996159563924676,0.038326932606541124,-0.38646323711595637,0.32840722239640374,0.22109576416148408,0.19333955968716643,0.27067502416209793
0.1565016414767096,0.18844075198216054,-0.009581733151635281,-0.3257789271555996,0.328443016679164,0.22111219824742803,0.19354165100438162,0.27073525096475554
0.3800754150148662,0.13414426412289396,-0.9070707383548067,-0.45353536917740334,0.3284792534538075,0.22112864230554777,0.19374456132608822,0.2707956199125193
-0.9326220267591674,0.19482857408325072,0.3257789271555996,-0.2076042182854311,0.32851593038588606,0.2211450962656344,0.1939482790257617,0.27085612964549605
-0.6611395874628344,0.11817470887016848,0.4279840807730426,-0.19163466303270565,0.32855304531530355,0.2211615599644106,0.19415279282854045,0.27091677887454707
-0.43756581392467786,0.025551288404360755,0.3481363045094153,-0.1533077304261645,0.3285905965274426,0.22117803311864728,0.19435809184505642,0.27097756627119723
-0.2619007061446977,-0.01596955525272547,0.23315550668979185,-0.038326932606541124,0.32862858272018897,0.22119451526417366,0.19456416544513566,0.27103849035039407
-0.5876796333002972,-0.06387822101090188,0.07026604311199207,0.3098093719028741,0.3286670027795035,0.22121100568232746,0.19477100313105777,0.27109954940271813
-0.9933063367195243,-0.25231897299306244,-0.1596955525272547,0.5525466117443013,0.3287058557267983,0.22122750339212974,0.19497859439404402,0.2711607415434447
-0.7633447410802774,-0.4631171023290387,-0.23634941774033696,0.5589344338453914,0.3287451409504245,0.2212440072629677,0.19518692861042722,0.2712220649191301
-0.19163466303270565,-0.5078318570366699,-0.2650946171952428,0.4215962586719524,0.32878485839939836,0.22126051622976184,0.19539599505432403,0.27128351793088845
0.33855457135777994,-0.4279840807730426,-0.32258501610505447,0.10220515361744302,0.3288250084221191,0.22127702950122682,0.19560578297985856,0.271345099270088
0.5493527006937562,-0.2746763503468781,-0.3002276387512388,0.009581733151635281,0.32886559145553157,0.22129354663541126,0.19581628169711823,0.27140680772754955
0.6898847869177402,-0.13414426412289396,-0.16608337462834488,-0.3704936818632309,0.32890660796033594,0.22131006745257578,0.1960274806021273,0.2714686419533822
0.6451700322101089,0.1501138193756194,0.06707213206144698,-0.4184023476214073,0.3289480585939267,0.22132659186274475,0.19623936912671353,0.27153060041299176
0.6260065659068385,0.3193911050545094,0.14053208622398414,-0.35452412661050536,0.32898994436475004,0.22134311973832965,0.1964519366265518,0.2715926815450231
0.49505621283448964,0.29703372770069375,0.09262342046580772,-0.2682885282457879,0.32903226665480684,0.22135965091812504,0.1966651722954241,0.2716548838871116
0.39604497026759167,0.24273723984142714,0.07345995416253714,-0.21718595143706637,0.3290750271380553,0.2213761852846855,0.19687906513953252,0.2717172060523839
0.3257789271555996,0.19802248513379583,0.060684309960356786,-0.17566510777998018,0.32911822764239845,0.2213927227922984,0.19709360396367934,0.27177964663443227
0.3193911050545094,0.2810641724479683,-0.46950492443012876,-0.18205292988107036,0.329161870008959,0.2214092634327769,0.19730877738732835,0.2718422041230983
0.303421549801784,0.2938398166501486,1.1466140671456888,-0.32897283820614465,0.3292059559956093,0.22142580721908464,0.19752457405237034,0.27190487687070597
0.22676768458870167,0.2107981293359762,0.7345995416253717,-0.3800754150148662,0.3292504872237392,0.22144235420748837,0.19774098307560364,0.2719676631387848
0.09901124256689792,0.12456253097125865,0.25231897299306244,-0.28425808349851334,0.3292954651194267,0.22145890449157168,0.19795799438517028,0.2720305611937263
0.08942950941526263,-0.006387822101090189,0.03193911050545094,-0.12775644202180375,0.32934089081455103,0.22147545812166589,0.19817559856262534,0.27209356934163614
-0.2491250619425173,-0.19482857408325072,-0.02235737735381566,0.23954332879088208,0.32938676505757636,0.2214920149972095,0.19839378637336544,0.2721566858564643
-0.9677550483151636,-0.46950492443012876,-0.12775644202180375,0.4439536360257681,0.3294330882881499,0.2215085748586996,0.19861254841669776,0.2722199089207278
-0.7345995416253717,-0.5653222559464817,-0.1565016414767096,0.3800754150148662,0.3294798609734324,0.22152513746093033,0.19883187503528488,0.2722832366949626
-0.20121639618434092,-0.6643334985133795,-0.18205292988107036,0.23634941774033696,0.3295270839429585,0.22154170283999253,0.19905175636959185,0.27234666742616404
0.2491250619425173,-0.606843099603568,-0.19802248513379583,0.17247119672943506,0.3295747583387535,0.2215582715212697,0.19927218242968506,0.27241019943749933
0.34174848240832506,-0.34174848240832506,-0.22996159563924676,0.09262342046580772,0.3296228853073243,0.2215748445845049,0.1994931431433586,0.2724738310064747
0.41201452552031714,0.060684309960356786,-0.1533077304261645,-0.14372599727452925,0.32967146584076923,0.221591423539193,0.19971462838497897,0.2725375602410813
0.4854744796828543,0.2874519945490585,-0.05110257680872151,-0.18205292988107036,0.32972050083372073,0.22160801006431882,0.19993662796468387,0.27260138502124026
0.2491250619425173,0.4056267034192269,-0.09901124256689792,-0.1596955525272547,0.329769991171156,0.22162460583346577,0.20015913156469575,0.27266530300788555
0.17566510777998018,0.33855457135777994,-0.09262342046580772,-0.14053208622398414,0.3298199377083187,0.22164121255106123,0.20038212867422708,0.2727293116704437
0.13414426412289396,0.2746763503468781,-0.21718595143706637,-0.13414426412289396,0.3298703411364884,0.22165783204850711,0.20060560858379803,0.2727934082888984
0.1053990646679881,0.2619007061446977,-0.5269953233399406,-0.13095035307234884,0.3299212018395398,0.22167446628461113,0.20082956047225226,0.27285758993826004
0.07345995416253714,0.27787026139742316,-0.08304168731417244,-0.20121639618434092,0.32997251980903836,0.22169111728828889,0.2010539735605724,0.2729218534844251
0.06707213206144698,0.25231897299306244,0.32897283820614465,-0.3002276387512388,0.3300242945974908,0.22170778712224595,0.20127883719129294,0.27298619561839704
0.05749039890981169,0.06387822101090188,0.24273723984142714,-0.18205292988107036,0.33007652528815273,0.22172447785218288,0.20150414078842505,0.2730506129251526
0.019163466303270562,-0.012775644202180378,0.1501138193756194,-0.01596955525272547,0.3301292104761903,0.22174119145879598,0.2017298738155601,0.273115101908202
-0.1565016414767096,-0.019163466303270562,0.09581733151635283,0.2938398166501486,0.3301823482637912,0.22175792970215774,0.20195602573712548,0.2731796589304469
-0.7505690968780971,-0.18205292988107036,-0.13733817517343905,0.3193911050545094,0.33023593635200654,0.2217746940383232,0.20218258593892785,0.2732442801942856
-1.2456253097125867,-0.33216674925668976,-0.303421549801784,0.43756581392467786,0.3302899723885034,0.22179148566724455,0.2024095436867278,0.2733089618513599
-0.8719377167988107,-0.41201452552031714,-0.2746763503468781,0.34174848240832506,0.3303444545173346,0.22180830569442075,0.20263688818456463,0.27337370014631823
-0.060684309960356786,-0.34174848240832506,-0.11817470887016848,0.3002276387512388,0.33039938167776606,0.22182515530689836,0.20286460865744851,0.2734384914798494
0.2874519945490585,-0.23315550668979185,-0.019163466303270562,0.36729977081268583,0.33045475333158547,0.22184203585412998,0.20309269433334837,0.27350333238951563
0.46950492443012876,-0.12456253097125865,-0.025551288404360755,0.3098093719028741,0.3305105689926636,0.2218589487972744,0.20332113432056279,0.27356821951853855
0.49505621283448964,0.17566510777998018,0.038326932606541124,0.019163466303270562,0.3305668280804606,0.22187589558771653,0.20354991749359064,0.27363314957767565
0.47269883548067393,0.3130032829534192,0.009581733151635281,-0.3002276387512388,0.33062353004377437,0.22189287758829812,0.20377903245032783,0.2736981192478472
0.23954332879088208,0.23954332879088208,0.038326932606541124,-0.3449423934588701,0.3306806744358744,0.2219098960976724,0.2040084675095023,0.2737631251096576
0.17566510777998018,0.18844075198216054,0.025551288404360755,-0.29064590559960357,0.33073826083071517,0.22192695240667007,0.20423821071498374,0.2738281637024479
0.1533077304261645,0.17566510777998018,-0.009581733151635281,-0.24593115089197226,0.33079628865410954,0.22194404779264992,0.20446824984161008,0.2738932316064632
0.20121639618434092,0.10220515361744302,-0.8687438057482655,-0.23954332879088208,0.3308547570525401,0.22196118346271787,0.20469857247841486,0.2739583254375864
0.29064590559960357,0.1053990646679881,0.28425808349851334,-0.2203798624876115,0.33091366486443097,0.2219783604923254,0.20492916629691166,0.2740234418001879
0.2235737735381566,0.035133021555996034,0.27787026139742316,-0.2235737735381566,0.33097301066598744,0.22199557976920453,0.20516001931500633,0.27408857725432484
0.11817470887016848,-0.035133021555996034,0.12456253097125865,-0.22996159563924676,0.3310327928073751,0.22201284194132626,0.20539111986681913,0.2741537283007625
0.01596955525272547,-0.006387822101090189,0.11498079781962338,-0.07345995416253714,0.33109300936595076,0.2220301473712921,0.20562245639182905,0.2742188913634725
-0.4982501238850346,-0.08304168731417244,0.06707213206144698,0.2235737735381566,0.33115365807930874,0.22204749611032945,0.20585401727805103,0.27428406274835987
-1.0731541129831517,-0.23954332879088208,-0.12775644202180375,0.49505621283448964,0.3312147364862093,0.22206488792459275,0.2060857907858508,0.2743492386418693
-0.9741428704162537,-0.475892746531219,-0.24593115089197226,0.45353536917740334,0.3312762423722736,0.22208232241642412,0.20631776503967753,0.27441441524139476
-0.4439536360257681,-0.4918623017839445,-0.24593115089197226,0.4184023476214073,0.33133817418617095,0.2220997992374688,0.20654992809278022,0.2744795889363331
0.08304168731417244,-0.3481363045094153,-0.25231897299306244,0.2587067950941526,0.3314005310002703,0.22211731828504494,0.20678226801742475,0.27454475637168363
0.306615460852329,-0.2107981293359762,-0.19163466303270565,-0.06387822101090188,0.3314633120923,0.222134879745006,0.20701477295384024,0.2746099143535151
0.4439536360257681,-0.07984777626362735,-0.05110257680872151,-0.2587067950941526,0.3315265166177257,0.2221524839669268,0.20724743108831994,0.274675059680043
0.5142196791377601,0.1117868867690783,0.08623559836471753,-0.35133021555996036,0.3315901436102503,0.2221701312802016,0.20748023056996456,0.27474018904828423
0.32897283820614465,0.306615460852329,0.13733817517343905,-0.2874519945490585,0.33165419212395864,0.22218782188256905,0.20771315942663365,0.2748052991078962
0.18844075198216054,0.2874519945490585,0.09901124256689792,-0.2139920403865213,0.3317186612629829,0.22220555587025545,0.20794620554431328,0.2748703865406849
0.1501138193756194,0.23954332879088208,0.07984777626362735,-0.16608337462834488,0.3317835500554642,0.2222233333401555,0.2081793566835667,0.2749354480450091
0.12136861992071357,0.19163466303270565,0.060684309960356786,-0.1565016414767096,0.3318488572906963,0.22224115443387965,0.20841260047444984,0.27500048025810586
0.09262342046580772,0.2076042182854311,-0.8942950941526264,-0.41201452552031714,0.33191458141449637,0.22225901930362507,0.20864592447201563,0.27506547971610384
0.07345995416253714,0.24273723984142714,0.2682885282457879,-0.39604497026759167,0.3319807204766248,0.22227692807335542,0.20887931639823848,0.27513044292208705
0.07026604311199207,0.06387822101090188,0.22676768458870167,-0.20441030723488604,0.3320472720979373,0.22229488082159923,0.20911276436856718,0.2751953664621215
-0.012775644202180378,0.012775644202180378,0.14053208622398414,-0.07345995416253714,0.332114233445536,0.22231287752997406,0.20934625681974428,0.27526024700613577
-0.01596955525272547,-0.08304168731417244,0.08942950941526263,-0.12456253097125865,0.3321816012062271,0.22233091798318946,0.20957978228200852,0.2753250811686845
-0.4471475470763132,-0.13414426412289396,0.12775644202180375,0.3449423934588701,0.33224937160089923,0.22234900170896835,0.20981332923615773,0.2753898653997606
-1.121062778741328,-0.28425808349851334,-0.028745199454905845,0.5940674554013875,0.33231754060331803,0.22236712802019393,0.21004688605380004,0.2754545960576188
-0.7952838515857285,-0.35771803766105054,-0.028745199454905845,0.5940674554013875,0.33238610441891714,0.22238529613539512,0.2102804409561889,0.27551926964181284
-0.18844075198216054,-0.4247901697224975,-0.012775644202180378,0.511025768087215,0.3324550598542412,0.22240350532875758,0.21051398196881918,0.2755838830177934
0.23634941774033696,-0.3257789271555996,0.012775644202180378,0.47269883548067393,0.3325244041905832,0.22242175505114756,0.2107474968851278,0.2756484334930788
0.4279840807730426,-0.2650946171952428,-0.10859297571853319,0.08623559836471753,0.3325941348007221,0.22244004496489989,0.2109809732619906,0.2757129187341377
0.47269883548067393,0.012775644202180378,-0.012775644202180378,-0.009581733151635281,0.3326642489875848,0.22245837486815842,0.21121439844649834,0.27577733654973047
0.5206075012388504,0.17247119672943506,-0.01596955525272547,-0.4503414581268582,0.3327347440782705,0.222476744543595,0.21144775959801265,0.27584168465492725
0.2810641724479683,0.306615460852329,0.060684309960356786,-0.35133021555996036,0.33280561752363913,0.22249515365402897,0.21168104367965598,0.27590596063616313
0.19482857408325072,0.2650946171952428,0.05749039890981169,-0.2587067950941526,0.3328768668589459,0.22251360178139934,0.21191423745398566,0.2759701620949293
0.1501138193756194,0.23954332879088208,-0.07345995416253714,-0.23315550668979185,0.33294848954877354,0.22253208852466863,0.21214732750592918,0.27603428671506647
0.12456253097125865,0.19802248513379583,-0.32897283820614465,-0.3098093719028741,0.3330204828304886,0.22255061352886044,0.21238030029376734,0.27609833220984176
0.1117868867690783,0.22676768458870167,0.047908665758176414,0.05110257680872151,0.33309284362446206,0.22256917645313723,0.21261314223665043,0.27616229626618255
0.09901124256689792,0.2203798624876115,0.24273723984142714,0.38965714816650143,0.33316556849270024,0.2225877769430993,0.21284583978095462,0.2762261765037093
0.04152084365708622,0.1117868867690783,0.2619007061446977,0.2938398166501486,0.33323865361270116,0.22260641461618838,0.21307837941588187,0.27628997047486986
-0.04152084365708622,0.025551288404360755,0.2139920403865213,-0.06387822101090188,0.3333120947468526,0.22262508901524083,0.21331074770608988,0.27635367571075176
-0.19802248513379583,-0.02235737735381566,0.10220515361744302,0.1117868867690783,0.33338588722503754,0.22264379951343558,0.2135429313219377,0.27641728968777396
-0.7314056305748264,-0.24593115089197226,-0.07984777626362735,0.2650946171952428,0.33346002604052266,0.22266254524488155,0.21377491699239784,0.2764808097245751
-1.1434201560951436,-0.4247901697224975,-0.19163466303270565,0.32897283820614465,0.33353450618687325,0.22268132516658717,0.21400669142633605,0.27654423297996533
-0.7825082073835481,-0.511025768087215,-0.22676768458870167,0.2810641724479683,0.3336093231523131,0.22270013825892138,0.21423824130019398,0.2766075565610967
-0.012775644202180378,-0.47269883548067393,-0.12456253097125865,0.2235737735381566,0.3336844731581831,0.2227189837447166,0.21446955330914375,0.276670777601492
0.2810641724479683,-0.306615460852329,-0.025551288404360755,0.09901124256689792,0.3337599528771725,0.22273786119522712,0.21470061418069544,0.27673389323843917
0.4918623017839445,-0.18524684093161545,0.0031939110505450944,-0.17566510777998018,0.33383575900426055,0.22275677047694184,0.2149314106004518,0.2767969005268805
0.5174135901883052,0.08942950941526263,0.03193911050545094,-0.3193911050545094,0.3339118881635859,0.222775711587828,0.21516192911501764,0.27685979638557445
0.48866839073339935,0.28425808349851334,0.038326932606541124,-0.373687592913776,0.33398833706833425,0.22279468449869239,0.2153921560865073,0.2769225776512312
0.20441030723488604,0.3098093719028741,0.04152084365708622,-0.35771803766105054,0.33406510260302724,0.2228136891128457,0.21562207769843336,0.27698524120059187
0.1565016414767096,0.2587067950941526,0.03193911050545094,-0.2938398166501486,0.33414218171992194,0.22283272533628598,0.21585167997325827,0.2770477840322531
0.12775644202180375,0.23315550668979185,0.009581733151635281,-0.2587067950941526,0.334219571243282,0.22285179313624726,0.21608094877796527,0.27711020326259483
0.14053208622398414,0.14053208622398414,-0.7569569189791873,-0.24273723984142714,0.3342972677212902,0.22287089252040815,0.21630986988819867,0.2771724960711549
0.1628894635777998,0.18205292988107036,0.09262342046580772,-0.2874519945490585,0.33437526737514367,0.22289002347230705,0.21653842919980623,0.2772346596515146
0.1533077304261645,0.06387822101090188,0.1596955525272547,-0.08623559836471753,0.33445356610395055,0.22290918588781208,0.2167666129020615,0.277296691180265
0.09262342046580772,-0.047908665758176414,-0.05110257680872151,0.13733817517343905,0.33453215949576387,0.22292837951510627,0.2169944073916084,0.27735858776117933
-0.01596955525272547,-0.04152084365708622,-0.14372599727452925,0.11498079781962338,0.3346110428063873,0.22294760388888116,0.21722179909213019,0.2774203463434604
-0.5078318570366699,-0.08942950941526263,-0.038326932606541124,0.20441030723488604,0.3346902109462876,0.22296685828507085,0.2174487743800254,0.27748196368084
-0.986918514618434,-0.24593115089197226,-0.1053990646679881,0.34174848240832506,0.3347696586541487,0.2229861417374565,0.2176753195708651,0.2775434363703678
-0.9102646494053518,-0.440759724975223,-0.20441030723488604,0.35452412661050536,0.33484938092744726,0.22300545314475478,0.2179014209218252,0.27760476095786196
-0.3832693260654113,-0.4471475470763132,-0.1565016414767096,0.32258501610505447,0.3349293733984636,0.22302479145744494,0.21812706467513787,0.2776659340530689
0.07345995416253714,-0.32897283820614465,-0.006387822101090189,0.19163466303270565,0.3350096322788691,0.22304415584611884,0.2183522371002292,0.2777269523732034
0.24273723984142714,-0.20441030723488604,0.09262342046580772,0.09262342046580772,0.33509015395830066,0.2230635457343723,0.21857692446235263,0.2777878126811605
0.373687592913776,-0.03193911050545094,0.13095035307234884,-0.05110257680872151,0.3351709346890632,0.2230829606827024,0.2188011129655145,0.277848511655917
0.4471475470763132,0.17247119672943506,0.18844075198216054,-0.1117868867690783,0.33525197057376305,0.22310240021595606,0.21902478876299905,0.27790904577308023
0.33216674925668976,0.29064590559960357,0.12775644202180375,-0.33216674925668976,0.33533325769665306,0.22312186373012113,0.2192479380174195,0.27796941127844127
0.2235737735381566,0.27787026139742316,0.07345995416253714,-0.3641058597621407,0.33541479217878495,0.22314135054167222,0.21947054693017604,0.2780296042900517
0.17566510777998018,0.22676768458870167,0.05429648785926659,-0.3098093719028741,0.33549657010543527,0.22316085998518742,0.2196926017105748,0.2780896209551274
0.14053208622398414,0.18844075198216054,0.047908665758176414,-0.2491250619425173,0.3355785874047317,0.22318039144148663,0.2199140885201555,0.2781494575328064
0.12456253097125865,0.2107981293359762,-0.39604497026759167,-0.24273723984142714,0.33566083975450745,0.2231999443011219,0.22013499346854812,0.2782091103709391
0.10859297571853319,0.23315550668979185,1.0284393582755202,-0.11817470887016848,0.3357433225295894,0.22321951793185557,0.22035530279548518,0.278268575837578
0.07026604311199207,0.09262342046580772,0.7729264742319127,0.01596955525272547,0.33582603076973616,0.22323911166734642,0.22057500328775503,0.2783278502307487
0.038326932606541124,-0.038326932606541124,0.38646323711595637,-0.08304168731417244,0.33590895914876306,0.22325872476609288,0.22079408263653483,0.27838692966655826
0.0031939110505450944,-0.06387822101090188,0.29064590559960357,-0.08304168731417244,0.3359921019352731,0.22327835632353446,0.22101252939566643,0.27844581000062846
-0.4152084365708622,-0.12775644202180375,0.18205292988107036,0.29703372770069375,0.3360754529911144,0.22329800520720747,0.22123033266000938,0.2785044868409501
-1.0348271803766105,-0.3257789271555996,-0.11817470887016848,0.606843099603568,0.336159005961237,0.22331767008463463,0.22144748178044196,0.2785629556812175
-0.7058543421704658,-0.4215962586719524,-0.17885901883052527,0.6323943880079286,0.3362427547076609,0.2233373495541615,0.22166396620505657,0.2786212121560576
-0.18205292988107036,-0.4599231912784935,-0.2107981293359762,0.373687592913776,0.3363266936437795,0.2233570423289074,0.22187977541736037,0.27867925228653334
0.23315550668979185,-0.3098093719028741,-0.18524684093161545,0.2235737735381566,0.33641081761694547,0.2233767473735798,0.222094898947075,0.27873707251516205
0.3641058597621407,-0.2235737735381566,-0.20121639618434092,0.019163466303270562,0.33649512156333455,0.22339646391251164,0.22230932639835063,0.2787946695116555
0.475892746531219,0.0,-0.18205292988107036,-0.24273723984142714,0.3365796003637487,0.2234161913076229,0.22252304745777,0.2788520399277944
0.5206075012388504,0.16927728567888997,-0.17247119672943506,-0.33855457135777994,0.33666424893753105,0.22343592888188188,0.22273605188864098,0.27890918029238204
0.27148243929633303,0.3193911050545094,-0.1628894635777998,-0.39923888131813673,0.33674906235593216,0.2234556758224825,0.22294832951920837,0.2789660870927645
0.17885901883052527,0.27787026139742316,-0.1501138193756194,-0.35771803766105054,0.336834035816605,0.22347543124052255,0.22315987022673636,0.27902275691767253
0.13733817517343905,0.2235737735381566,-0.27148243929633303,-0.2938398166501486,0.33691916448581344,0.2234951942818699,0.2233706639338858,0.27907918652767955
0.1117868867690783,0.2107981293359762,-0.4982501238850346,-0.28425808349851334,0.33700444333519436,0.22351496415475536,0.2235807006662501,0.27913537283593065
0.12456253097125865,0.17885901883052527,-0.07345995416253714,-0.3193911050545094,0.3370898670527963,0.2235347400877873,0.22378997066325762,0.2791913128586182
0.10220515361744302,0.17566510777998018,0.3449423934588701,-0.32258501610505447,0.33717543001115213,0.22355452128463577,0.22399846441534868,0.2792470036934071
0.05749039890981169,0.05429648785926659,0.2107981293359762,-0.32897283820614465,0.3372611262535054,0.2235743068828533,0.22420617260640519,0.27930244253091163
-0.04152084365708622,0.019163466303270562,0.2076042182854311,-0.05110257680872151,0.3373469494704349,0.2235940958893063,0.22441308607499638,0.279357626643758
-0.16608337462834488,-0.02235737735381566,0.2587067950941526,0.3002276387512388,0.3374328929787617,0.2236138870944587,0.22461919580308845,0.27941255331070675
-0.7282117195242814,-0.20441030723488604,-0.025551288404360755,0.574903989098117,0.3375189498020665,0.22363367902727008,0.22482449288486842,0.2794672197815092
-1.1402262450445986,-0.3609119487115956,-0.22676768458870167,0.6834969648166501,0.3376051129949492,0.2236534700216433,0.225028968471073,0.27952162343211745
-0.8623559836471754,-0.4471475470763132,-0.2682885282457879,0.6898847869177402,0.3376913761480798,0.22367325839197885,0.22523261373551545,0.2795757620343024
-0.08304168731417244,-0.4056267034192269,-0.2203798624876115,0.4663110133795837,0.3377777336655588,0.2236930426243885,0.22543541991899654,0.2796296339236284
0.2874519945490585,-0.3002276387512388,-0.1469199083250743,0.16927728567888997,0.3378641805232595,0.22371282147590327,0.22563737838329875,0.27968323794768984
0.43437190287413274,-0.19163466303270565,-0.1501138193756194,-0.05749039890981169,0.3379507118338522,0.22373259394335415,0.22583848059023362,0.2797365732157832
0.4471475470763132,0.08942950941526263,-0.05110257680872151,-0.39604497026759167,0.3380373226935289,0.22375235913892083,0.2260387180359718,0.27978963882639213
0.4152084365708622,0.27787026139742316,0.12136861992071357,-0.4471475470763132,0.33812400827346234,0.22377211615936082,0.22623808218922165,0.2798424338021566
0.23954332879088208,0.306615460852329,0.012775644202180378,-0.3704936818632309,0.3382107638736653,0.22379186405056076,0.22643656444647106,0.27989495722802976
0.18524684093161545,0.25231897299306244,0.0031939110505450944,-0.3002276387512388,0.3382975848488245,0.2238116018735771,0.22663415609445486,0.2799472083637255
0.1628894635777998,0.21718595143706637,-0.038326932606541124,-0.2619007061446977,0.33838446647177145,0.22383132875972553,0.22683084826770072,0.2799991866182306
0.1565016414767096,0.17247119672943506,-0.8591620725966302,-0.2746763503468781,0.3384714038235682,0.22385104388947175,0.22702663200461226,0.2800508914685518
0.12136861992071357,0.25231897299306244,0.6898847869177402,-0.07665386521308225,0.33855839174033847,0.22387074644357932,0.22722149855754298,0.28010232238780075
0.047908665758176414,0.2107981293359762,0.6260065659068385,-0.11498079781962338,0.338645424779514,0.22389043558529453,0.22741543980765258,0.2801534787584053
0.038326932606541124,0.035133021555996034,0.4152084365708622,0.1565016414767096,0.33873249717062615,0.2239101104533155,0.22760844843347497,0.2802043597790327
0.025551288404360755,-0.06387822101090188,0.22676768458870167,0.25231897299306244,0.3388196027595402,0.22392977009964457,0.22780051777639598,0.2802549644400149
-0.4631171023290387,-0.13733817517343905,0.11498079781962338,0.2938398166501486,0.33890673501536833,0.22394941339915014,0.22799164158419136,0.2803052915877647
-0.9996941588206144,-0.2491250619425173,-0.12456253097125865,0.38646323711595637,0.3389938872400583,0.2239690390365353,0.22818181376640678,0.28035534002766044
-0.948591582011893,-0.4439536360257681,-0.3193911050545094,0.39604497026759167,0.33908105302207475,0.22398864560833553,0.2283710282573872,0.2804051086268054
-0.43437190287413274,-0.48228056863230917,-0.2682885282457879,0.4088206144697721,0.33916822664192575,0.22400823179948656,0.2285592790315069,0.280454596397209
-0.009581733151635281,-0.4088206144697721,-0.18524684093161545,0.14053208622398414,0.3392554030417676,0.22402779655299426,0.22874656018171832,0.28050380251803997
0.2555128840436075,-0.35452412661050536,-0.22996159563924676,-0.11498079781962338,0.33934257740877244,0.22404733914053204,0.22893286593756396,0.28055272624702526
0.4854744796828543,-0.18205292988107036,-0.23954332879088208,-0.33216674925668976,0.33942974483900135,0.22406685911057458,0.22911819063320168,0.2806013667808244
0.5621283448959365,0.07345995416253714,-0.18844075198216054,-0.3449423934588701,0.33951690036440674,0.22408635615062983,0.22930252869445647,0.2806497232241456
0.41201452552031714,0.3002276387512388,-0.035133021555996034,-0.38965714816650143,0.3396040391568378,0.22410582993688438,0.22948587461866982,0.28069779469083156
0.22996159563924676,0.32258501610505447,0.009581733151635281,-0.32258501610505447,0.3396911566077467,0.22412528008936353,0.2296682228913062,0.2807455804036078
0.18205292988107036,0.2650946171952428,0.006387822101090189,-0.2650946171952428,0.3397782482149439,0.22414470624879157,0.2298495678693638,0.2807930797128886
0.1501138193756194,0.22676768458870167,-0.0031939110505450944,-0.2203798624876115,0.3398653094036086,0.22416410814047183,0.23002990370404391,0.28084029204799077
0.14372599727452925,0.25231897299306244,-0.5972613664519327,-0.27787026139742316,0.3399523354023756,0.22418348555781123,0.23020922437487407,0.2808872168493836
0.19163466303270565,0.23315550668979185,0.7857021184340931,-0.3641058597621407,0.3400393211946032,0.22420283832697252,0.23038752393591275,0.2809338535446248
0.14372599727452925,0.11498079781962338,0.5589344338453914,-0.23315550668979185,0.3401262615161384,0.22422216628197264,0.23056479690945159,0.2809802015799261
0.06387822101090188,0.01596955525272547,0.3098093719028741,-0.04152084365708622,0.3402131508559334,0.22424146920439036,0.23074103850630887,0.2810262604188026
0.01596955525272547,-0.03193911050545094,0.13733817517343905,0.02235737735381566,0.3402999834153385,0.2242607467140737,0.23091624450147147,0.2810720294290374
-0.45353536917740334,-0.11498079781962338,0.05429648785926659,0.3002276387512388,0.34038675307704946,0.22427999818108954,0.2310904109373454,0.2811175077505181
-1.121062778741328,-0.28425808349851334,-0.2107981293359762,0.5397709675421208,0.34047345358135234,0.22429922273788522,0.23126353388519105,0.2811626943318877
-0.8304168731417244,-0.36729977081268583,-0.2235737735381566,0.5365770564915758,0.34056007898649826,0.22431841940144603,0.23143560936843496,0.28120758816133773
-0.3193911050545094,-0.39285105921704655,-0.13414426412289396,0.35452412661050536,0.3406466240539642,0.2243375872416176,0.23160663340264834,0.28125218849178685
0.1596955525272547,-0.303421549801784,-0.1053990646679881,0.2682885282457879,0.3407330841564618,0.2243567255031712,0.23177660201914235,0.28129649487566927
0.35133021555996036,-0.2938398166501486,-0.1501138193756194,0.12456253097125865,0.3408194548812583,0.22437583363081745,0.2319455112270832,0.2813405070294004
0.4279840807730426,-0.019163466303270562,-0.1053990646679881,-0.14372599727452925,0.34090573179051653,0.22439491120183003,0.2321133569777743,0.2813842246565192
0.5301892343904856,0.18844075198216054,0.028745199454905845,-0.23954332879088208,0.3409919104617205,0.22441395779649156,0.23228013514804632,0.28142764733049125
0.3257789271555996,0.2938398166501486,-0.07665386521308225,-0.3609119487115956,0.3410779866107591,0.2244329729021238,0.23244584150603473,0.2814707744929945
0.2203798624876115,0.2587067950941526,-0.07984777626362735,-0.303421549801784,0.3411639561083818,0.22445195594304948,0.23261047167537333,0.2815136055466755
0.17247119672943506,0.2139920403865213,-0.12456253097125865,-0.32258501610505447,0.3412498148612124,0.2244709063637677,0.23277402113794976,0.2815561399448581
0.14053208622398414,0.17885901883052527,-0.46950492443012876,-0.2491250619425173,0.3413355586598301,0.22448982364473702,0.23293648530082336,0.2815983772140591
0.038326932606541124,0.19482857408325072,0.7920899405351833,-0.2203798624876115,0.3414211830706909,0.22450870726050187,0.23309785969475577,0.2816403169224355
-0.16608337462834488,0.2746763503468781,1.3765756627849355,0.08623559836471753,0.3415066833659463,0.22452755665269677,0.23325814037192255,0.2816819586144893
-0.24273723984142714,0.1565016414767096,1.0444089135282455,0.12136861992071357,0.3415920545093737,0.2245463712414496,0.23341732441681104,0.28172330171999255
-0.07984777626362735,0.03193911050545094,0.5653222559464817,0.2874519945490585,0.3416772912073812,0.22456515041716207,0.23357541025240908,0.2817643454897155
-0.07984777626362735,0.02235737735381566,0.303421549801784,0.38646323711595637,0.3417623879348427,0.22458389345590188,0.2337323974731217,0.28180508903806795
-0.6323943880079286,-0.16608337462834488,0.009581733151635281,0.5685161669970267,0.34184733894048913,0.22460259942137664,0.23388828634699158,0.2818455314983128
-1.089123668235877,-0.35771803766105054,-0.23634941774033696,0.6898847869177402,0.34193213845343756,0.22462126717746042,0.2340430773444521,0.28188567222956
-0.8655498946977205,-0.4184023476214073,-0.3130032829534192,0.613230921704658,0.3420167811437167,0.22463989553909475,0.23419677091264124,0.28192551101264623
-0.02235737735381566,-0.4088206144697721,-0.2491250619425173,0.41201452552031714,0.3421012624261952,0.2246584834614715,0.23434936749223378,0.2819650481446414
0.33216674925668976,-0.2874519945490585,-0.27787026139742316,0.29064590559960357,0.3421855782533992,0.2246770301455788,0.23450086759972816,0.2820042843611049
0.48228056863230917,-0.19802248513379583,-0.3098093719028741,-0.10220515361744302,0.3422697247104428,0.22469553501517095,0.2346512718553095,0.2820432206293303
0.5174135901883052,-0.012775644202180378,-0.3449423934588701,-0.4247901697224975,0.34235369790691134,0.22471399759256225,0.23480058099666926,0.2820818579473942
0.5046379459861249,0.17247119672943506,-0.2587067950941526,-0.5078318570366699,0.3424374941145874,0.22473241734125327,0.23494879590616216,0.2821201973007622
0.2938398166501486,0.2746763503468781,-0.306615460852329,-0.5397709675421208,0.34252110984829803,0.22475079358487773,0.23509591761559426,0.2821582398001192
0.22676768458870167,0.22996159563924676,-0.25231897299306244,-0.4503414581268582,0.34260454179513844,0.22476912555709067,0.23524194728406758,0.28219598683761377
0.20441030723488604,0.21718595143706637,-0.25231897299306244,-0.3768815039643211,0.342687786660278,0.22478741248768605,0.23538688617308393,0.28223344012233503
0.20121639618434092,0.1533077304261645,-1.0444089135282455,-0.32897283820614465,0.3427708410365685,0.22480565362066038,0.23553073570041969,0.2822706016105614
0.23954332879088208,0.20121639618434092,0.035133021555996034,-0.3130032829534192,0.34285370135004406,0.22482384817921428,0.23567349763011142,0.2823074734074881
0.1501138193756194,0.17247119672943506,0.17885901883052527,-0.28425808349851334,0.34293636385230997,0.22484199533564742,0.2358151741448199,0.28234405769090026
0.035133021555996034,0.07984777626362735,0.17885901883052527,-0.14053208622398414,0.34301882459703575,0.22486009419409417,0.23595576761578974,0.28238035664996475
0.006387822101090189,-0.025551288404360755,0.09901124256689792,-0.06387822101090188,0.34310107935915723,0.2248781437463954,0.23609528036202695,0.2824163723944665
-0.4279840807730426,-0.060684309960356786,0.0,0.32897283820614465,0.3431831235720971,0.22489614279630396,0.23623371456892794,0.282452106855967
-0.9262342046580774,-0.25231897299306244,-0.20441030723488604,0.5685161669970267,0.34326495247527183,0.22491408992475706,0.23637107223972634,0.28248756181340917
-0.8974890052031714,-0.5206075012388504,-0.3161971940039643,0.45672928022794845,0.34334656152984677,0.22493198358411223,0.23650735520021343,0.28252273908742426
-0.3257789271555996,-0.606843099603568,-0.2587067950941526,0.4056267034192269,0.34342794679838023,0.22494982233188673,0.23664256521202456,0.28255764072529677
0.14053208622398414,-0.45353536917740334,-0.13733817517343905,0.20441030723488604,0.34350910491335496,0.22496760508073466,0.2367767040742152,0.28259226901131806
0.3353606603072349,-0.2587067950941526,-0.17566510777998018,0.09262342046580772,0.34359003272121824,0.22498533118693312,0.23690977360931392,0.28262662632450186
0.47908665758176416,-0.12456253097125865,-0.1596955525272547,-0.18205292988107036,0.3436707270374168,0.22500300032537646,0.23704177559467338,0.2826607149550931
0.47908665758176416,0.12136861992071357,-0.038326932606541124,-0.4088206144697721,0.3437511846890093,0.22502061226843678,0.23717271171531162,0.2826945370147978
0.3353606603072349,0.29064590559960357,0.1117868867690783,-0.440759724975223,0.3438314026417526,0.2250381667316709,0.23730258351969427,0.28272809451944864
0.1469199083250743,0.306615460852329,0.08942950941526263,-0.32258501610505447,0.3439113779988946,0.22505566336923902,0.23743139237563832,0.2827613895465549
0.11817470887016848,0.24273723984142714,0.07026604311199207,-0.27148243929633303,0.3439911078543225,0.2250731018588934,0.23755913945719975,0.2827944242983219
0.08942950941526263,0.2076042182854311,0.047908665758176414,-0.2203798624876115,0.34407058911447125,0.22509048194793385,0.23768582574229294,0.2828272010405045
0.11817470887016848,0.19163466303270565,-0.9102646494053518,-0.23634941774033696,0.3441498183901204,0.2251078034224961,0.23781145207826268,0.2828597220107721
0.06707213206144698,0.2746763503468781,0.29703372770069375,0.009581733151635281,0.34422879196189377,0.22512506606530105,0.23793601943587284,0.28289198934245396
0.019163466303270562,0.14372599727452925,0.27148243929633303,0.02235737735381566,0.34430750576457375,0.2251422696461845,0.2380595291576005,0.28292400496423664
-0.0031939110505450944,0.0,0.21718595143706637,-0.05110257680872151,0.344385955351971,0.22515941389642835,0.23818198291239354,0.28295577048084636
-0.028745199454905845,-0.07345995416253714,0.16608337462834488,-0.14372599727452925,0.34446413585532293,0.22517649841562853,0.238303382496216,0.28298728711959226
-0.4599231912784935,-0.1469199083250743,0.08623559836471753,0.20121639618434092,0.34454204200969973,0.22519352258349232,0.23842372970216952,0.28301855577750046
-1.1018993124380576,-0.3130032829534192,-0.14372599727452925,0.5046379459861249,0.3446196683938796,0.22521048558233714,0.23854302624241136,0.2830495771442512
-0.6771091427155599,-0.39285105921704655,-0.1596955525272547,0.5429648785926661,0.34469700989901,0.22522738652941202,0.23866127370221285,0.2830803518984348
-0.20121639618434092,-0.440759724975223,-0.1469199083250743,0.40243279236868185,0.3447740620553682,0.22524422464533705,0.23877847354477286,0.28311088091604103
0.20441030723488604,-0.306615460852329,-0.07345995416253714,0.19482857408325072,0.34485082088252206,0.22526099937566038,0.2388946271252273,0.28314116533790246
0.33216674925668976,-0.19482857408325072,-0.038326932606541124,-0.13414426412289396,0.34492728251753296,0.22527771039931832,0.2390097356652563,0.2831712064419085
0.45353536917740334,0.025551288404360755,0.012775644202180378,-0.5333831454410307,0.34500344305162756,0.22529435751380503,0.23912380019356302,0.28320100548488186
0.4854744796828543,0.20441030723488604,0.04471475470763132,-0.6036491885530227,0.3450792986108451,0.22531094047313296,0.23923682149259426,0.28323056373495464
0.29703372770069375,0.3002276387512388,0.06707213206144698,-0.2746763503468781,0.34515484547023856,0.2253274589126794,0.23934880008195752,0.28325988265461866
0.20441030723488604,0.2491250619425173,0.05749039890981169,-0.18524684093161545,0.34523008004801503,0.22534391241073826,0.23945973623608766,0.2832889639508572
0.1628894635777998,0.20121639618434092,-0.006387822101090189,-0.1565016414767096,0.34530499877879217,0.22536030057345477,0.23956963000289452,0.28331780940873197
0.13414426412289396,0.1565016414767096,-0.23634941774033696,-0.1469199083250743,0.34537959797163975,0.2253766230362927,0.2396784812165841,0.28334642070576044
0.07984777626362735,0.14053208622398414,0.8623559836471754,-0.2746763503468781,0.3454538737182814,0.22539287940653552,0.23978628961984588,0.2833747993391821
0.12456253097125865,0.1628894635777998,1.628894635777998,-0.3193911050545094,0.34552782183892716,0.22540906921043155,0.23989305529449242,0.2834029466571889
0.09901124256689792,0.012775644202180378,1.1114810455896926,-0.2650946171952428,0.3456014378555647,0.22542519185756513,0.23999877934949237,0.28343086394089045
-0.025551288404360755,-0.05429648785926659,0.6579456764122893,-0.05749039890981169,0.3456747169827005,0.22544124659132114,0.2401034643693161,0.2834585524386663
-0.1628894635777998,0.006387822101090189,0.3353606603072349,0.18205292988107036,0.34574765411521136,0.22545723242320712,0.24020711424040786,0.28348601329658946
-0.7409873637264618,-0.12456253097125865,0.035133021555996034,0.39285105921704655,0.345820243895126,0.22547314809789998,0.24030973358749158,0.2835132474915388
-1.2009105550049552,-0.2938398166501486,-0.2555128840436075,0.5429648785926661,0.3458924810331676,0.22548899213357418,0.24041132725444267,0.28354025591662585
-0.9166524715064419,-0.39923888131813673,-0.3641058597621407,0.5014440349355798,0.34596436083982357,0.22550476295541125,0.2405119000537129,0.2835670395868209
-0.11817470887016848,-0.40243279236868185,-0.2938398166501486,0.2938398166501486,0.3460358795326124,0.2255204590775554,0.2406114567824371,0.2835935997813494
0.23315550668979185,-0.28425808349851334,-0.23634941774033696,0.12775644202180375,0.34610703399328335,0.2255360792296371,0.24071000230894182,0.28361993799735435
0.4982501238850346,-0.23315550668979185,-0.33216674925668976,0.0031939110505450944,0.3461778212993034,0.22555162236178938,0.24080754158099876,0.2836460557481432
0.5525466117443013,0.035133021555996034,-0.29703372770069375,-0.20121639618434092,0.3462482385594918,0.22556708754525562,0.2409040796080112,0.2836719543533004
0.5301892343904856,0.19163466303270565,-0.23315550668979185,-0.5365770564915758,0.3463182830538085,0.225582473834176,0.2409996214666238,0.2836976348942457
0.25231897299306244,0.3098093719028741,-0.32897283820614465,-0.2203798624876115,0.34638795234060543,0.22559778019196094,0.24109417229512178,0.28372309836772847
0.18524684093161545,0.2619007061446977,-0.2810641724479683,-0.17247119672943506,0.34645724417232165,0.22561300554323233,0.24118773728328258,0.2837483458192438
0.1565016414767096,0.23315550668979185,-0.2938398166501486,-0.1501138193756194,0.3465261562995886,0.2256281488631885,0.24128032168151567,0.2837733782869638
0.1565016414767096,0.22676768458870167,-1.0667662908820614,-0.19802248513379583,0.3465946863121624,0.22564320919823833,0.2413719308823594,0.2837981966802385
0.02235737735381566,0.25231897299306244,-0.025551288404360755,0.009581733151635281,0.3466628315596143,0.2256581856412381,0.24146257061418555,0.28382280171995566
0.02235737735381566,0.1501138193756194,0.1596955525272547,0.08623559836471753,0.3467305890863073,0.2256730773114465,0.241552246994386,0.2838471938906978
0.025551288404360755,-0.009581733151635281,0.08623559836471753,0.06387822101090188,0.34679795555667486,0.22568788331073433,0.2416409662638055,0.283871373379206
0.012775644202180378,-0.012775644202180378,0.06387822101090188,-0.05429648785926659,0.3468649272101589,0.22570260262002914,0.2417287345038799,0.2838953400459784
-0.4088206144697721,-0.07345995416253714,0.09901124256689792,0.2682885282457879,0.34693149989099875,0.22571723399005744,0.24181555754231074,0.2839190934461298
-0.9645611372646183,-0.27148243929633303,-0.08304168731417244,0.43437190287413274,0.34699766925594927,0.22573177592554503,0.2419014409405373,0.28394263292648
-1.0284393582755202,-0.48228056863230917,-0.2555128840436075,0.38965714816650143,0.347063431223962,0.22574622680918485,0.2419863900129214,0.28396595780718215
-0.4247901697224975,-0.574903989098117,-0.2682885282457879,0.33216674925668976,0.347128782412958,0.22576058513283978,0.24207040990057666,0.2839890675375634
0.13095035307234884,-0.4503414581268582,-0.22676768458870167,0.2076042182854311,0.3471937201574482,0.22577484972434977,0.2421535056720978,0.28401196171888304
0.3098093719028741,-0.2682885282457879,-0.1469199083250743,0.08304168731417244,0.3472582421295605,0.2257890198308164,0.2422356823732846,0.284034640007281
0.47269883548067393,-0.08304168731417244,-0.16608337462834488,-0.28425808349851334,0.3473223460214319,0.2258030950076154,0.2423169449958277,0.2840571019855918
0.5333831454410307,0.12456253097125865,-0.08623559836471753,-0.5589344338453914,0.34738602954597647,0.22581707490117442,0.24239729841657842,0.2840793471430973
0.4247901697224975,0.2938398166501486,0.09262342046580772,-0.3641058597621407,0.34744929058513957,0.22583095909020287,0.24247674734522615,0.2841013750210197
0.2076042182854311,0.306615460852329,0.08942950941526263,-0.23315550668979185,0.3475121272400589,0.22584474708843397,0.24255529628241462,0.28412318534885017
0.17247119672943506,0.2491250619425173,0.06707213206144698,-0.20441030723488604,0.34757453771683533,0.22585843844144649,0.24263294949430442,0.28414477800069293
0.13733817517343905,0.2076042182854311,0.025551288404360755,-0.1628894635777998,0.3476365201462657,0.22587203277685425,0.24270971099652786,0.28416615285324764
0.1117868867690783,0.25231897299306244,-0.7569569189791873,-0.1501138193756194,0.34769807245466094,0.2258855297793008,0.24278558459922717,0.2841873096825174
0.11498079781962338,0.33216674925668976,0.3832693260654113,-0.04152084365708622,0.34775919230314073,0.22589892916955673,0.24286057412387996,0.2842082481023274
0.04152084365708622,0.2235737735381566,0.47269883548067393,-0.025551288404360755,0.34781987705480094,0.22591223072869668,0.2429346836730601,0.28422896749738696
-0.019163466303270562,0.06707213206144698,0.2746763503468781,0.04152084365708622,0.3478801237381371,0.225925434299657,0.24300791770321553,0.2842494669506839
-0.02235737735381566,-0.012775644202180378,0.13414426412289396,0.03193911050545094,0.3479399290009282,0.22593853969279318,0.2430802809067463,0.2842697452014179
-0.4311779918235877,-0.1533077304261645,-0.006387822101090189,0.22676768458870167,0.34799928911676514,0.2259515465540993,0.24315177802499696,0.28428980065859166
-1.0635723798315164,-0.32897283820614465,-0.16608337462834488,0.511025768087215,0.3480582001970384,0.2259644543368087,0.24322241366397782,0.28430963150854277
-0.6451700322101089,-0.4088206144697721,-0.16927728567888997,0.5908735443508424,0.34811665863432545,0.2259772624256114,0.24329219221092233,0.2843292359472715
-0.17566510777998018,-0.43756581392467786,-0.2555128840436075,0.24593115089197226,0.34817466141632586,0.22598997032242518,0.24336111787689593,0.28434861241731674
0.2938398166501486,-0.3609119487115956,-0.16608337462834488,-0.0031939110505450944,0.34823220598809795,0.22600257777605118,0.24342919477545347,0.2843677596222713
0.440759724975223,-0.28425808349851334,-0.1628894635777998,-0.13414426412289396,0.3482892899322603,0.22601508480569515,0.24349642695590065,0.2843866763000289
0.5174135901883052,-0.06387822101090188,-0.09581733151635283,-0.2076042182854311,0.34834591087810246,0.22602749162007943,0.24356281837831797,0.28440536101391484
0.48228056863230917,0.19802248513379583,0.035133021555996034,-0.08304168731417244,0.34840206661305506,0.2260397984708861,0.24362837285505828,0.2844238121209713
0.2682885282457879,0.2874519945490585,0.1117868867690783,-0.3098093719028741,0.34845775515899985,0.22605200554777002,0.24369309398827846,0.28444202781916633
0.17247119672943506,0.24273723984142714,0.10220515361744302,-0.3002276387512388,0.34851297470042475,0.22606411299481766,0.24375698514060729,0.28446000620589146
0.13414426412289396,0.19802248513379583,0.05749039890981169,-0.28425808349851334,0.34856772341128195,0.22607612097210442,0.2438200494455113,0.28447774536514453
0.11498079781962338,0.16927728567888997,-0.28425808349851334,-0.3161971940039643,0.3486219992973206,0.22608802965700134,0.24388228983387622,0.2844952434350903
0.04152084365708622,0.23315550668979185,-0.27148243929633303,-0.2587067950941526,0.34867580010488713,0.22609983920441712,0.24394370910153115,0.28451249862329187
0.012775644202180378,0.2203798624876115,0.19482857408325072,-0.1565016414767096,0.34872912325932787,0.22611154973237715,0.2440043100124114,0.28452950918527387
-0.060684309960356786,0.11817470887016848,0.20441030723488604,0.025551288404360755,0.34878196581061094,0.22612316132944246,0.24406409534635257,0.2845462733494291
-0.028745199454905845,0.006387822101090189,0.1533077304261645,0.303421549801784,0.3488343244085846,0.2261346740194284,0.24412306787019375,0.2845627892156901
-0.07026604311199207,-0.047908665758176414,0.1565016414767096,0.43437190287413274,0.3488861953114034,0.22614608766529978,0.24418123029330685,0.2845790547570825
-0.7282117195242814,-0.17566510777998018,0.012775644202180378,0.47908665758176416,0.34893757446947465,0.22615740189471029,0.24423858522262284,0.2845950679777198
-1.1977166439544102,-0.33855457135777994,-0.14372599727452925,0.5908735443508424,0.34898845784722804,0.22616861614003397,0.24429513510451756,0.28461082711142366
-0.8974890052031714,-0.43437190287413274,-0.1565016414767096,0.5621283448959365,0.349038841970462,0.22617972979317866,0.24435088219235135,0.28462633076215416
-0.13095035307234884,-0.373687592913776,-0.025551288404360755,0.4982501238850346,0.3490887242582674,0.22619074238534775,0.24440582856270068,0.28464157797576073
0.22676768458870167,-0.22996159563924676,0.06387822101090188,0.3002276387512388,0.34913810279306623,0.2262016536783809,0.24445997611561135,0.28465656822009405
0.4215962586719524,-0.18205292988107036,-0.01596955525272547,-0.02235737735381566,0.3491869758511499,0.22621246361849448,0.24451332652951063,0.28467130123763573
0.5333831454410307,0.02235737735381566,-0.0031939110505450944,-0.32897283820614465,0.349235341716398,0.2262231722018808,0.24456588121811745,0.28468577682118723
0.5876796333002972,0.1053990646679881,0.0031939110505450944,-0.45672928022794845,0.34928319880499,0.2262337793310722,0.24461764130444458,0.2846999947002819
0.2810641724479683,0.27148243929633303,0.08942950941526263,-0.5046379459861249,0.3493305458044256,0.22624428473969257,0.24466860761192671,0.28471395464761934
0.2076042182854311,0.23954332879088208,0.07984777626362735,-0.4152084365708622,0.3493773816374432,0.22625468803818458,0.24471878069245415,0.28472765665411637
0.1628894635777998,0.2076042182854311,0.04471475470763132,-0.3704936818632309,0.3494237052799227,0.22626498881342733,0.24476816087281014,0.28474110099338584
0.18205292988107036,0.19163466303270565,-0.7952838515857285,-0.2682885282457879,0.3494695155891537,0.2262751866690313,0.24481674834543543,0.28475428816910303
0.21718595143706637,0.23634941774033696,0.4471475470763132,-0.19802248513379583,0.34951481123304484,0.2262852812085057,0.2448645434117133,0.28476721880919814
0.12456253097125865,0.18844075198216054,0.475892746531219,-0.019163466303270562,0.3495595906850054,0.22629527202332936,0.24491154676941684,0.28477989353429095
0.009581733151635281,0.08623559836471753,0.2938398166501486,0.07665386521308225,0.34960385220412626,0.22630515868152645,0.24495775958497443,0.28479231280975537
-0.035133021555996034,0.0031939110505450944,0.17566510777998018,-0.035133021555996034,0.3496475937589358,0.22631494066860208,0.24500318335898436,0.28480447682582527
-0.3832693260654113,-0.11498079781962338,0.025551288404360755,0.13095035307234884,0.3496908129771249,0.22632461729427375,0.24504781973277703,0.2848163854528224
-0.9390098488602575,-0.25231897299306244,-0.11498079781962338,0.43437190287413274,0.34973350730134173,0.22633418765968374,0.24509167030088583,0.28482803829374076
-1.0603784687809712,-0.440759724975223,-0.23634941774033696,0.3704936818632309,0.3497756744198861,0.22634365075508484,0.24513473650804266,0.28483943484493895
-0.4982501238850346,-0.5365770564915758,-0.2203798624876115,0.27148243929633303,0.34981731271504657,0.22635300565870684,0.24517701967963282,0.28485057467274455
0.08942950941526263,-0.4311779918235877,-0.11498079781962338,0.17566510777998018,0.34985842131431316,0.22636225173545924,0.24521852109795714,0.28486145745448627
0.34174848240832506,-0.303421549801784,-0.08304168731417244,0.07984777626362735,0.34989899971976046,0.2263713887209643,0.24525924200566826,0.2848720828778244
0.48228056863230917,-0.13414426412289396,-0.06387822101090188,-0.09581733151635283,0.34993904747088,0.22638041664402134,0.24529918353695015,0.28488245050530786
0.5174135901883052,0.11498079781962338,-0.019163466303270562,-0.22996159563924676,0.34997856413597944,0.226389335649082,0.24533834664705573,0.2848925596936122
0.39285105921704655,0.29064590559960357,0.02235737735381566,-0.38646323711595637,0.3500175494530697,0.22639814584628684,0.24537673206492558,0.2849024096270602
0.19163466303270565,0.27787026139742316,0.019163466303270562,-0.3800754150148662,0.35005600335889137,0.226406847289848,0.2454143402617292,0.2849119994552272
0.1501138193756194,0.22676768458870167,0.01596955525272547,-0.3130032829534192,0.35009392585914334,0.22641544004720449,0.245451171436617,0.28492132842892937
0.11817470887016848,0.18844075198216054,-0.012775644202180378,-0.2619007061446977,0.3501313168471245,0.22642392423403204,0.24548722551508503,0.284930395937708
0.1533077304261645,0.1565016414767096,-0.8304168731417244,-0.3641058597621407,0.3501681759830479,0.2264322999780125,0.2455225022288679,0.28493920147170254
0.14053208622398414,0.18205292988107036,0.2619007061446977,-0.33855457135777994,0.3502045026565077,0.22644056736560272,0.2455570013772354,0.28494774460110267
0.1628894635777998,0.06707213206144698,0.306615460852329,-0.19802248513379583,0.35024029599248774,0.22644872640325303,0.24559072308340882,0.2849560249846232
0.1533077304261645,-0.08942950941526263,0.19802248513379583,-0.028745199454905845,0.35027555486687384,0.22645677697525685,0.24562366778261804,0.28496404231734823
0.08942950941526263,-0.13095035307234884,0.05110257680872151,0.04471475470763132,0.35031027791249153,0.2264647187986005,0.24565583604645896,0.28497179618499685
-0.4471475470763132,-0.16608337462834488,-0.08942950941526263,0.3002276387512388,0.35034446353526255,0.22647255141621728,0.24568722842737362,0.28497928594186855
-1.121062778741328,-0.2874519945490585,-0.2555128840436075,0.7090482532210107,0.35037811008318404,0.2264802742468441,0.2457178453673818,0.28498651078335957
-0.7218238974231912,-0.3800754150148662,-0.2619007061446977,0.6579456764122893,0.350411216251404,0.22648788668160455,0.2457476872200191,0.2849934700398041
-0.2938398166501486,-0.45353536917740334,-0.2235737735381566,0.3130032829534192,0.3504437814041283,0.22649538821543513,0.24577675434784038,0.2850001634587247
0.06387822101090188,-0.32258501610505447,-0.09262342046580772,0.09901124256689792,0.35047580544005874,0.22650277856524917,0.24580504716680293,0.2850065911973067
0.2810641724479683,-0.2076042182854311,-0.025551288404360755,-0.08623559836471753,0.35050728837883893,0.22651005769480864,0.24583256608500484,0.28501275355172495
0.440759724975223,0.019163466303270562,0.028745199454905845,-0.22676768458870167,0.3505382301214686,0.22651722570955607,0.24585931138749603,0.2850186507013517
0.49505621283448964,0.23315550668979185,0.05110257680872151,-0.24593115089197226,0.3505686305151892,0.2265242826920425,0.24588528314890318,0.28502428264352614
0.3098093719028741,0.33216674925668976,0.11498079781962338,-0.3449423934588701,0.3505984895120536,0.22653122862829117,0.24591048121539336,0.2850296492695046
0.19802248513379583,0.34174848240832506,0.09901124256689792,-0.303421549801784,0.35062780719931,0.2265380634887357,0.2459349052397298,0.2850347504648001
0.1565016414767096,0.22996159563924676,0.07026604311199207,-0.2650946171952428,0.3506565836793062,0.22654478734332922,0.2459585547219557,0.28503958616808334
0.13414426412289396,0.18844075198216054,-0.12456253097125865,-0.2139920403865213,0.3506848189201809,0.22655140037725544,0.2459814290241341,0.285044156366785
0.019163466303270562,0.21718595143706637,0.17566510777998018,-0.2938398166501486,0.35071251265344167,0.2265579028242872,0.246003527382399,0.2850484610557346
-0.06387822101090188,0.2491250619425173,0.47908665758176416,-0.14372599727452925,0.35073966429823766,0.22656429491387542,0.2460248489774582,0.2850525002051127
-0.06387822101090188,0.11498079781962338,0.32897283820614465,-0.04152084365708622,0.3507662729048051,0.22657057686044965,0.24604539308665577,0.2850562737159676
-0.028745199454905845,-0.0031939110505450944,0.18205292988107036,0.09581733151635283,0.35079233713684027,0.22657674882666584,0.246065159211638,0.28505978132616877
-0.047908665758176414,0.0,0.09901124256689792,0.24273723984142714,0.3508178552727267,0.22658281081813847,0.24608414704561196,0.2850630225388975
-0.606843099603568,-0.16927728567888997,-0.019163466303270562,0.35771803766105054,0.35084282525771093,0.2265887625876226,0.24610235631706606,0.28506599667206145
-1.1050932234886026,-0.35133021555996036,-0.1596955525272547,0.5238014122893954,0.35086724497158744,0.22659460366422068,0.24611978665300333,0.28506870301832643
-0.9006829162537164,-0.4215962586719524,-0.23315550668979185,0.5461587896432111,0.35089111273118195,0.22660033352038644,0.24613643754995018,0.28507114104080933
-0.14053208622398414,-0.40243279236868185,-0.1565016414767096,0.4599231912784935,0.3509144276380216,0.22660595176892634,0.24615230844018932,0.2850733105257567
0.2619007061446977,-0.2938398166501486,-0.13095035307234884,0.35771803766105054,0.3509371894120152,0.22661145827037285,0.24616739875044388,0.285075211622532
0.4631171023290387,-0.21718595143706637,-0.16608337462834488,0.20121639618434092,0.3509593979765791,0.2266168531132949,0.246181707893573,0.2850768447579306
0.5301892343904856,0.05110257680872151,-0.09901124256689792,-0.2139920403865213,0.35098105329673723,0.22662213650139967,0.24619523523911432,0.2850782104821142
0.5238014122893954,0.2139920403865213,-0.025551288404360755,-0.47269883548067393,0.3510021554941768,0.22662730861499442,0.24620798008462233,0.2850793093580793
0.2682885282457879,0.2938398166501486,0.05429648785926659,-0.4663110133795837,0.3510227049462163,0.22663236954568008,0.2462199416040325,0.2850801419979546
0.20121639618434092,0.2587067950941526,0.04471475470763132,-0.38646323711595637,0.3510427022183479,0.22663731934814527,0.24623111879534196,0.2850807091918906
0.1628894635777998,0.22676768458870167,-0.10220515361744302,-0.32258501610505447,0.3510621478876925,0.22664215811735022,0.24624151046773946,0.2850810119657055
0.1628894635777998,0.2139920403865213,-0.680303053766105,-0.2874519945490585,0.35108104239000304,0.22664688600057387,0.24625111532185331,0.285081051525239
0.09581733151635283,0.2938398166501486,1.424484328543112,-0.32897283820614465,0.35109938594292883,0.22665150317500568,0.24625993227989068,0.2850808291753586
0.08304168731417244,0.1501138193756194,1.252013131813677,-0.2555128840436075,0.35111717850141716,0.22665600984112758,0.24626796111000043,0.2850803462745238
-0.0031939110505450944,0.04152084365708622,0.84638642839445,-0.12456253097125865,0.35113441970708775,0.22666040619459962,0.24627520296753297,0.28507960419717937
-0.025551288404360755,-0.028745199454905845,0.5621283448959365,-0.0031939110505450944,0.35115110883168604,0.22666469232948336,0.24628166043203614,0.2850786042412145
-0.36729977081268583,-0.08304168731417244,0.32897283820614465,0.25231897299306244,0.35116724476748606,0.2266688681294777,0.24628733712194298,0.28507734750608166
-0.8623559836471754,-0.2619007061446977,-0.04471475470763132,0.41201452552031714,0.35118282619471547,0.2266729332464295,0.24629223722189572,0.2850758348796931
-1.0476028245787907,-0.4503414581268582,-0.3098093719028741,0.4088206144697721,0.3511978519937631,0.22667688720759357,0.24629636510501737,0.28507406718817924
-0.5174135901883052,-0.5174135901883052,-0.4056267034192269,0.38646323711595637,0.3512123216839747,0.22668072962052424,0.24629972515910525,0.28507204537067937
0.05749039890981169,-0.4088206144697721,-0.3257789271555996,0.2650946171952428,0.35122623549603643,0.22668446037091766,0.24630232183690068,0.28506977054110905
0.306615460852329,-0.27787026139742316,-0.3161971940039643,0.028745199454905845,0.3512395940191008,0.2266880796925304,0.24630415975366754,0.2850672439168271
0.4503414581268582,-0.12136861992071357,-0.33216674925668976,-0.2874519945490585,0.3512523978517604,0.22669158807699602,0.24630524369860834,0.285064466671306
0.48866839073339935,0.14053208622398414,-0.2235737735381566,-0.440759724975223,0.35126464757684656,0.22669498609960026,0.2463055786004,0.28506143986357396
0.43756581392467786,0.2746763503468781,-0.25231897299306244,-0.4056267034192269,0.35127634390697626,0.22669827428645398,0.246305169483396,0.2850581645428578
0.2235737735381566,0.2746763503468781,-0.2938398166501486,-0.23315550668979185,0.3512874877440864,0.22670145310510617,0.24630402142329264,0.285054641884541
0.17566510777998018,0.2235737735381566,-0.24593115089197226,-0.19163466303270565,0.35129808008831515,0.22670452303061003,0.24630213953374852,0.28505087318132777
0.14372599727452925,0.19163466303270565,-0.2587067950941526,-0.1533077304261645,0.3513081218749125,0.22670748457626028,0.24629952897296373,0.28504685972283067
0.1469199083250743,0.18844075198216054,-0.9549794041129831,-0.09581733151635283,0.35131761384806837,0.22671033826365208,0.24629619500599612,0.28504260268112996
0.17247119672943506,0.18844075198216054,0.0031939110505450944,0.05429648785926659,0.35132655651026146,0.22671308458304332,0.24629214317281373,0.28503810303153887
0.13414426412289396,0.05110257680872151,0.03193911050545094,-0.07026604311199207,0.3513349501175179,0.22671572396146372,0.2462873793224264,0.2850333614891877
0.09901124256689792,-0.07345995416253714,-0.02235737735381566,-0.24593115089197226,0.35134279467848434,0.2267182567085168,0.24628190933629798,0.2850283784864816
0.05429648785926659,-0.08304168731417244,-0.06387822101090188,-0.18205292988107036,0.3513500899288631,0.22672068294795997,0.24627573884391343,0.2850231542271822
-0.43437190287413274,-0.12775644202180375,-0.1053990646679881,0.18844075198216054,0.3513568353229645,0.22672300258868686,0.24626887316024632,0.2850176887701875
-0.986918514618434,-0.3161971940039643,-0.22676768458870167,0.47269883548067393,0.3513630301957697,0.2267252153647153,0.24626131734154322,0.2850119820943789
-0.5876796333002972,-0.4088206144697721,-0.18844075198216054,0.5717100780475718,0.35136867413991774,0.22672732095169174,0.24625307627170692,0.28500603421549814
-0.2107981293359762,-0.4152084365708622,-0.10859297571853319,0.5621283448959365,0.3513737672740732,0.22672931913180486,0.2462441547327907,0.2849998453841234
0.17566510777998018,-0.3193911050545094,-0.05429648785926659,0.2938398166501486,0.35137831010447024,0.226731209916193,0.24623455739906353,0.28499341622021784
0.3481363045094153,-0.2491250619425173,-0.04471475470763132,-0.04152084365708622,0.3513823032025884,0.22673299355516607,0.24622428876730892,0.28498674763930903
0.43756581392467786,-0.019163466303270562,0.012775644202180378,-0.2235737735381566,0.3513857470750673,0.2267346704408449,0.24621335308673828,0.28497984061813625
0.475892746531219,0.19163466303270565,0.012775644202180378,-0.24273723984142714,0.35138864225329436,0.2267362409555143,0.2462017543163054,0.2849726960150215
0.2650946171952428,0.32258501610505447,0.09901124256689792,-0.3353606603072349,0.351390989402823,0.22673770538138552,0.24618949611021665,0.28496531457030405
0.1501138193756194,0.29703372770069375,0.10859297571853319,-0.2938398166501486,0.3513927893023152,0.22673906395471155,0.2461765818438315,0.28495769699719625
0.11498079781962338,0.23315550668979185,0.07345995416253714,-0.2587067950941526,0.3513940426953704,0.22674031697086872,0.24616301466540608,0.2849498440415401
0.09262342046580772,0.2076042182854311,-0.012775644202180378,-0.2938398166501486,0.35139475013119437,0.22674146480872365,0.24614879751925153,0.2849417564847337
0.047908665758176414,0.2491250619425173,0.2587067950941526,-0.18844075198216054,0.3513949118699137,0.22674250788917394,0.2461339331410786,0.28493343511914226
0.025551288404360755,0.2619007061446977,0.7377934526759168,-0.1117868867690783,0.35139452783051145,0.22674344664978713,0.24611842415496638,0.28492488070261596
-0.006387822101090189,0.12136861992071357,0.5238014122893954,-0.035133021555996034,0.3513935975482977,0.22674428154391907,0.24610227335545487,0.2849160938711692
-0.019163466303270562,-0.0031939110505450944,0.32897283820614465,-0.06707213206144698,0.3513921201429993,0.2267450129957181,0.2460854839702086,0.284907075032732
-0.05110257680872151,-0.006387822101090189,0.24273723984142714,0.1628894635777998,0.351390094309952,0.22674564128273308,0.24606805965420298,0.2848978243083319
-0.6292004769573835,-0.18205292988107036,-0.035133021555996034,0.3832693260654113,0.35138751839357546,0.22674616643495585,0.24605000427997753,0.28488834157671916
-1.1178688676907829,-0.3353606603072349,-0.2491250619425173,0.6739152316650149,0.3513843906858879,0.226746588264217,0.2460313217284974,0.2848786266522206
-0.9134585604558969,-0.39923888131813673,-0.2874519945490585,0.7058543421704658,0.3513807099457368,0.22674690652489507,0.2460120158028367,0.28486867956925016
-0.10220515361744302,-0.4215962586719524,-0.2203798624876115,0.475892746531219,0.35137647574411723,0.2267471210988623,0.24599209027318727,0.28485850083191777
0.2587067950941526,-0.2938398166501486,-0.18524684093161545,0.13733817517343905,0.3513716882791791,0.22674723210303502,0.2459715489328634,0.2848480914370261
0.4184023476214073,-0.21718595143706637,-0.1565016414767096,-0.025551288404360755,0.3513663479402052,0.2267472398812763,0.24595039557809695,0.2848374526315604
0.5014440349355798,0.05749039890981169,-0.08623559836471753,-0.17247119672943506,0.3513604551320077,0.2267471448964218,0.2459286339474278,0.28482658559756646
0.5238014122893954,0.20121639618434092,-0.08623559836471753,-0.3800754150148662,0.35135401038391156,0.22674694758887023,0.2459062676586934,0.28481549131219447
0.24273723984142714,0.29064590559960357,-0.03193911050545094,-0.440759724975223,0.3513470144544796,0.2267466483066002,0.2458833001504529,0.284804170646418
0.17885901883052527,0.2491250619425173,-0.02235737735381566,-0.3704936818632309,0.35133946827373264,0.22674624735143856,0.24585973463302854,0.28479262454979554
0.14372599727452925,0.19802248513379583,-0.14372599727452925,-0.3098093719028741,0.35133137276625276,0.22674574505080983,0.24583557406197382,0.28478085414581095
0.1533077304261645,0.2107981293359762,-0.85277425049554,-0.2587067950941526,0.3513227286953737,0.22674514176320482,0.245810821231117,0.28476886070344165
0.19163466303270565,0.23315550668979185,0.606843099603568,-0.2810641724479683,0.35131353660126835,0.22674443784776055,0.24578547908690238,0.28475664556072344
0.12136861992071357,0.17566510777998018,0.6739152316650149,-0.17247119672943506,0.35130379679870555,0.22674363365099864,0.24575955109436967,0.284744210061893
-0.012775644202180378,0.07345995416253714,0.43437190287413274,-0.10220515361744302,0.351293509365925,0.22674272948791835,0.24573304137461924,0.2847315554958615
-0.06387822101090188,-0.009581733151635281,0.2076042182854311,-0.047908665758176414,0.35128267408682157,0.22674172557341246,0.2457059545918538,0.28471868300545655
-0.3609119487115956,-0.07984777626362735,0.08942950941526263,0.2235737735381566,0.3512712904181804,0.22674062192673275,0.24567829570857175,0.28470559350525854
-0.8399986062933597,-0.25231897299306244,-0.10220515361744302,0.4279840807730426,0.3512593576373911,0.2267394183364755,0.24565006971847592,0.2846922877038697
-1.089123668235877,-0.45672928022794845,-0.24593115089197226,0.4854744796828543,0.3512468752364937,0.2267381144570048,0.24562128148524714,0.28467876626594146
-0.5557405227948463,-0.5429648785926661,-0.2139920403865213,0.41201452552031714,0.351233843361313,0.2267367100190399,0.24559193573670351,0.2846650300092155
0.05429648785926659,-0.440759724975223,-0.14053208622398414,0.2650946171952428,0.3512202629048464,0.2267352050439006,0.24556203712418034,0.2846510799887899
0.29703372770069375,-0.3130032829534192,-0.1565016414767096,0.08942950941526263,0.35120613515838495,0.2267335999326462,0.2455315902349735,0.28463691741890534
0.45672928022794845,-0.13095035307234884,-0.19163466303270565,-0.3002276387512388,0.3511914614417246,0.22673189538677205,0.2455005995616944,0.28462254351482724
0.49505621283448964,0.1501138193756194,-0.10220515361744302,-0.4439536360257681,0.3511762430637098,0.22673009222956156,0.24546906948632907,0.2846079594224694
0.440759724975223,0.28425808349851334,-0.025551288404360755,-0.38965714816650143,0.35116048147010975,0.22672819125964522,0.24543700425932405,0.2845931663099409
0.18844075198216054,0.2938398166501486,-0.07026604311199207,-0.2746763503468781,0.3511441783035921,0.22672619323253815,0.24540440793953056,0.2845781654829016
0.1469199083250743,0.23634941774033696,-0.05749039890981169,-0.2203798624876115,0.3511273352979142,0.22672409892703363,0.24537128433761904,0.2845629583770586
0.11498079781962338,0.19482857408325072,-0.09581733151635283,-0.17885901883052527,0.3511099540939034,0.22672190917780277,0.24533763700642433,0.28454754645726854
0.1117868867690783,0.18844075198216054,-0.8431925173439048,-0.2874519945490585,0.3510920361016469,0.22671962484111177,0.2453034693345456,0.28453193113031294
0.16608337462834488,0.22996159563924676,0.1117868867690783,-0.39923888131813673,0.35107358244950676,0.22671724675060229,0.24526878478871963,0.28451611374241625
0.12775644202180375,0.13733817517343905,0.10220515361744302,-0.13733817517343905,0.3510545939880037,0.2267147756994063,0.24523358707570786,0.28450009563976214
0.11817470887016848,-0.07345995416253714,-0.06707213206144698,-0.11498079781962338,0.3510350713060182,0.226712212416386,0.24519787999972603,0.28448387816785065
0.08623559836471753,-0.1501138193756194,-0.13414426412289396,-0.1628894635777998,0.35101501472701346,0.22670955751160274,0.24516166723763103,0.2844674625693443
-0.43437190287413274,-0.17885901883052527,-0.08942950941526263,0.16927728567888997,0.35099442431985967,0.22670681144182092,0.24512495226775227,0.2844508499014878
-1.0763480240336967,-0.306615460852329,-0.1596955525272547,0.5269953233399406,0.35097330007398775,0.22670397454725824,0.2450877383869256,0.2844340410699962
-0.6579456764122893,-0.4215962586719524,-0.09901124256689792,0.48228056863230917,0.35095164229727166,0.22670104715409678,0.2450500287312842,0.28441703698553333
-0.303421549801784,-0.440759724975223,-0.025551288404360755,0.40243279236868185,0.35092945191882774,0.22669802971358993,0.2450118262782164,0.2843998387531271
0.10859297571853319,-0.33216674925668976,0.06387822101090188,0.303421549801784,0.35090673036250797,0.22669492291574406,0.24497313381189958,0.28438244774152366
0.3098093719028741,-0.2076042182854311,0.04471475470763132,0.13095035307234884,0.35088347917799473,0.22669172769928653,0.2449339538801629,0.2843648654949281
0.4439536360257681,-0.0031939110505450944,0.060684309960356786,-0.05429648785926659,0.3508596998392719,0.22668844513522995,0.244894288780472,0.28434709356345966
0.49505621283448964,0.17247119672943506,0.11817470887016848,-0.303421549801784,0.3508353938099121,0.2266850762496736,0.24485414057240365,0.28432913335148646
0.3002276387512388,0.32897283820614465,0.09901124256689792,-0.306615460852329,0.35081056268105143,0.22668162192787403,0.24481351110753743,0.28431098609589184
0.18524684093161545,0.3193911050545094,0.07026604311199207,-0.23634941774033696,0.3507852081839781,0.2266780829831333,0.24477240206043083,0.2842926529613576
0.14372599727452925,0.23315550668979185,0.05110257680872151,-0.20121639618434092,0.35075933205931736,0.22667446028227833,0.24473081493134113,0.2842741351017042
0.11817470887016848,0.2076042182854311,-0.08623559836471753,-0.2139920403865213,0.35073293590149945,0.2266707547802192,0.24468875102670884,0.28425543363228906
0.09581733151635283,0.2491250619425173,-0.16608337462834488,-0.27148243929633303,0.3507060210619402,0.22666696747401105,0.24464621145973323,0.2842365495939104
0.038326932606541124,0.2555128840436075,0.27787026139742316,-0.18205292988107036,0.35067858859703194,0.22666309936969273,0.24460319720558238,0.284217483954646
-0.060684309960356786,0.17566510777998018,0.23954332879088208,-0.05749039890981169,0.3506506392262779,0.2266591514826813,0.2445597092013921,0.28419823759932833
-0.10220515361744302,0.05110257680872151,0.20121639618434092,-0.047908665758176414,0.35062217330627365,0.226655124811929,0.24451574842766963,0.2841788112534751
-0.06707213206144698,0.0,0.19802248513379583,0.1501138193756194,0.3505931908381787,0.22665102024723371,0.24447131592140495,0.2841592053908908
-0.5238014122893954,-0.2746763503468781,0.0031939110505450944,0.20441030723488604,0.3505636915315843,0.22664683847529524,0.24442641272909754,0.2841394202202592
-0.9965002477700692,-0.4631171023290387,-0.19802248513379583,0.4311779918235877,0.35053367502969274,0.22664258002186813,0.24438103982999784,0.28411945577597986
-0.7409873637264618,-0.4982501238850346,-0.2587067950941526,0.47908665758176416,0.3505031413240073,0.22663824545802821,0.24433519810072238,0.284099312083459
0.07665386521308225,-0.5525466117443013,-0.17566510777998018,0.38965714816650143,0.35047209103323973,0.2266338356286863,0.2442888883699464,0.28407898933158415
0.3481363045094153,-0.38965714816650143,-0.11817470887016848,0.32897283820614465,0.3504405252415734,0.22662935177304466,0.2442421114734468,0.28405848795041266
0.3800754150148662,-0.2746763503468781,-0.19163466303270565,0.32258501610505447,0.3504084451611413,0.22662479550726536,0.2441948682332637,0.2840378085718471
0.2874519945490585,0.02235737735381566,-0.09581733151635283,0.14053208622398414,0.35037585200950716,0.22662016867930998,0.24414715941776302,0.2840169519412429
0.24273723984142714,0.17885901883052527,0.03193911050545094,-0.35133021555996036,0.3503427470289254,0.2266154731582246,0.2440989857119229,0.28399591882982334
0.23315550668979185,0.3704936818632309,0.13733817517343905,-0.41201452552031714,0.3503091314528265,0.2266107107061564,0.24405034767176065,0.2839747100077634
0.19163466303270565,0.32258501610505447,0.11498079781962338,-0.34174848240832506,0.3502750064398317,0.22660588303144183,0.24400124569834267,0.28395332631213643
0.1501138193756194,0.29064590559960357,-0.10220515361744302,-0.2938398166501486,0.3502403730233561,0.22660099191489516,0.24395168005790802,0.2839317687131279
0.13733817517343905,0.28425808349851334,-0.6771091427155599,-0.373687592913776,0.3502052320645162,0.22659603925688548,0.2439016509566094,0.28391003830416894
0.18205292988107036,0.2650946171952428,0.1565016414767096,-0.3704936818632309,0.35016958421354333,0.22659102705234868,0.2438511587078529,0.28388813628141313
0.12136861992071357,0.18205292988107036,0.3161971940039643,-0.3257789271555996,0.35013342989746515,0.226585957352924,0.24380020387128704,0.283866063957477
0.038326932606541124,0.05429648785926659,0.2139920403865213,-0.1469199083250743,0.35009676930956146,0.2265808322047036,0.24374878722008714,0.28384382274932873
-0.035133021555996034,0.009581733151635281,0.1533077304261645,0.08304168731417244,0.3500596023619939,0.2265756535382403,0.24369690963931487,0.28382141408180955
-0.3641058597621407,-0.006387822101090189,0.14053208622398414,0.4184023476214073,0.3500219286540572,0.22657042304462346,0.24364457205183887,0.2837988392739014
-0.8368046952428146,-0.19482857408325072,-0.038326932606541124,0.6611395874628344,0.34998374761070694,0.22656514211285017,0.24359177534391352,0.28377609958299993
-1.1561958002973238,-0.3832693260654113,-0.16608337462834488,0.6451700322101089,0.34994505888083816,0.22655981189415542,0.24353852029814607,0.28375319645059144
-0.5876796333002972,-0.47908665758176416,-0.1565016414767096,0.38965714816650143,0.34990586280341524,0.2265544334915333,0.24348480757385604,0.28373013173248707
0.07665386521308225,-0.38646323711595637,-0.1117868867690783,0.19163466303270565,0.34986616052710273,0.22654900817024698,0.2434306377346748,0.2837069076910415
0.3098093719028741,-0.25231897299306244,-0.10859297571853319,0.006387822101090189,0.34982595366189023,0.22654353745287428,0.2433760112667599,0.28368352676310826
0.4471475470763132,-0.14053208622398414,-0.08942950941526263,-0.13095035307234884,0.34978524389004145,0.22653802305385384,0.24332092856000326,0.2836599912823766
0.5046379459861249,0.07665386521308225,-0.06707213206144698,-0.27148243929633303,0.34974403290644923,0.22653246672249747,0.24326538988030116,0.28363630333399337
0.4854744796828543,0.2076042182854311,0.04152084365708622,-0.36729977081268583,0.3497023225592999,0.22652687010459932,0.24320939534414468,0.283612464803519
0.19482857408325072,0.2746763503468781,0.10220515361744302,-0.35133021555996036,0.34966011492115623,0.2265212347078334,0.24315294489672978,0.283588477527251
0.1533077304261645,0.22676768458870167,0.08304168731417244,-0.2938398166501486,0.3496174121934556,0.22651556196555045,0.24309603831143098,0.2835643434030754
0.12775644202180375,0.18844075198216054,0.009581733151635281,-0.24593115089197226,0.3495742165156526,0.22650985329892806,0.24303867520165026,0.2835400644038451
0.14053208622398414,0.1533077304261645,-0.7825082073835481,-0.22996159563924676,0.34953052981944377,0.22650411010960522,0.24298085508001613,0.28351564252572853
0.14053208622398414,0.22996159563924676,0.25231897299306244,-0.13414426412289396,0.3494863537782744,0.22649833373942124,0.2429225775638241,0.28349107972073195
0.07026604311199207,0.14053208622398414,0.2587067950941526,-0.047908665758176414,0.34944168979843415,0.2264925254524176,0.24286384258730156,0.28346637781859996
0.006387822101090189,0.009581733151635281,0.19163466303270565,0.019163466303270562,0.3493965389927446,0.22648668641590833,0.2428046503770908,0.28344153842624226
-0.025551288404360755,-0.05749039890981169,0.16608337462834488,-0.006387822101090189,0.349350902123239,0.22648081763033848,0.2427450012929361,0.2834165628303703
-0.47908665758176416,-0.1628894635777998,0.1053990646679881,0.13733817517343905,0.3493047795941954,0.2264749198575294,0.24268489572248025,0.28339145195113363
-1.0571845577304262,-0.3130032829534192,-0.10220515361744302,0.4184023476214073,0.34925817166904977,0.22646899364825102,0.24262433401726902,0.28336620639900717
-0.6036491885530227,-0.4311779918235877,-0.11498079781962338,0.4471475470763132,0.34921107891677,0.22646303948200333,0.242563316442146,0.28334082665946964
-0.21718595143706637,-0.4631171023290387,-0.09262342046580772,0.373687592913776,0.34916350250681627,0.22645705794927476,0.24250184315202136,0.283315313311412
0.18844075198216054,-0.3609119487115956,-0.05110257680872151,0.2810641724479683,0.34911544405178196,0.2264510498888506,0.24243991418168548,0.28328966712626
0.3704936818632309,-0.2682885282457879,-0.08304168731417244,0.07026604311199207,0.3490669052633801,0.22644501641392473,0.2423775294268566,0.2832638890043795
0.47269883548067393,-0.04152084365708622,-0.07984777626362735,-0.09901124256689792,0.3490178878213817,0.2264389588143181,0.24231468862740815,0.28323797981498994
0.5046379459861249,0.19802248513379583,-0.047908665758176414,-0.2203798624876115,0.3489683934739654,0.2264328783908354,0.24225139136631926,0.2832119402544264
0.29703372770069375,0.32258501610505447,0.04152084365708622,-0.38646323711595637,0.3489184241558628,0.2264267763503293,0.24218763706619598,0.2831857708381857
0.18844075198216054,0.3641058597621407,0.07026604311199207,-0.35452412661050536,0.3488679819703241,0.22642065385337914,0.24212342497599681,0.28315947202612207
0.14372599727452925,0.2235737735381566,0.05110257680872151,-0.2874519945490585,0.3488170690420606,0.22641451212815997,0.24205875416725658,0.28313304435054976
0.11817470887016848,0.18205292988107036,-0.047908665758176414,-0.33216674925668976,0.3487656873571505,0.22640835249820582,0.24199362354088774,0.28310648845090985
0.09262342046580772,0.25231897299306244,-0.2619007061446977,-0.3130032829534192,0.3487138386651242,0.22640217631806028,0.24192803184932438,0.2830798050523151
0.07026604311199207,0.24593115089197226,0.1533077304261645,-0.1053990646679881,0.3486615244283443,0.2263959849247818,0.2418619777652304,0.28305299493363184
0.035133021555996034,0.1501138193756194,0.12775644202180375,0.16927728567888997,0.3486087457858264,0.22638977963745224,0.2417954599599013,0.28302605885225657
0.07345995416253714,0.02235737735381566,0.07345995416253714,0.2810641724479683,0.34855550352355397,0.22638356172738014,0.24172847710818385,0.282998997456543
0.10220515361744302,-0.019163466303270562,0.11817470887016848,0.33855457135777994,0.34850179806661663,0.22637733231782248,0.24166102783623059,0.28297181129131616
-0.45353536917740334,-0.24273723984142714,0.009581733151635281,0.49505621283448964,0.3484476295369425,0.22637109229492436,0.24159311067782688,0.28294450090637563
-1.0795419350842417,-0.475892746531219,-0.1117868867690783,0.606843099603568,0.3483929979829348,0.22636484235992504,0.24152472404687234,0.2829170670104424
-0.9102646494053518,-0.5014440349355798,-0.13414426412289396,0.46950492443012876,0.3483379038250855,0.22635858324068928,0.2414558662306943,0.28288951062226897
-0.17247119672943506,-0.4918623017839445,-0.06707213206144698,0.23634941774033696,0.34828234821497883,0.22635231592139027,0.2413865354165064,0.2828618331208111
0.25231897299306244,-0.35452412661050536,-0.04152084365708622,0.047908665758176414,0.3482263329239443,0.2263460417477639,0.2413167297072686,0.28283403610969626
0.3481363045094153,-0.20441030723488604,-0.04152084365708622,-0.24273723984142714,0.3481698599406002,0.22633976238032352,0.2412464470934841,0.28280612118203863
0.43437190287413274,0.07026604311199207,0.006387822101090189,-0.41201452552031714,0.3481129312575985,0.22633347963720585,0.24117568541374676,0.28277808979955443
0.48866839073339935,0.24273723984142714,0.07665386521308225,-0.4088206144697721,0.3480555489253662,0.2263271953151762,0.24110444233477665,0.28274994337732334
0.2107981293359762,0.3353606603072349,0.09901124256689792,-0.38646323711595637,0.34799771514014066,0.22632091111630637,0.2410327153614292,0.28272168343629617
0.1501138193756194,0.28425808349851334,0.07984777626362735,-0.32258501610505447,0.34793943220249157,0.226314628713792,0.24096050187402843,0.2826933116690627
0.11817470887016848,0.22996159563924676,-0.18524684093161545,-0.29703372770069375,0.34788070235739377,0.22630834983459808,0.2408877991706658,0.28266482991195163
0.09901124256689792,0.2555128840436075,-0.7633447410802774,-0.2874519945490585,0.3478215276436997,0.2263020762626807,0.24081460457023027,0.2826362400857815
0.11498079781962338,0.28425808349851334,0.07984777626362735,-0.3002276387512388,0.3477619098229255,0.2262958098082039,0.24074091562608205,0.28260754415021544
0.08304168731417244,0.2491250619425173,0.3002276387512388,-0.19163466303270565,0.3477018503576795,0.22628955230348213,0.2406667302541367,0.28257874407582534
0.019163466303270562,0.09901124256689792,0.18844075198216054,-0.012775644202180378,0.34764135039696203,0.22628330559559048,0.24059204663941905,0.2825498417857502
-0.04152084365708622,0.019163466303270562,0.1565016414767096,0.06387822101090188,0.34758041074477514,0.22627707147336523,0.240516863105533,0.2825208390332006
-0.3641058597621407,-0.019163466303270562,0.2139920403865213,0.3353606603072349,0.3475190318579862,0.22627085153943888,0.2404411780606071,0.282491737305665
-0.8751316278493557,-0.23315550668979185,0.07665386521308225,0.38965714816650143,0.3474572140115224,0.22626464712604077,0.24036498996509445,0.28246253788931996
-1.1402262450445986,-0.43756581392467786,-0.13414426412289396,0.45353536917740334,0.34739495771424,0.22625845935630917,0.24028829729422854,0.2824332420592415
-0.6643334985133795,-0.5078318570366699,-0.14372599727452925,0.4311779918235877,0.34733226418495267,0.22625228934966268,0.2402110985010904,0.2824038512433771
-0.019163466303270562,-0.4152084365708622,-0.05749039890981169,0.35452412661050536,0.3472691354771669,0.22624613844110766,0.24013339199879627,0.2823743670881677
0.3609119487115956,-0.2810641724479683,-0.10859297571853319,0.34174848240832506,0.34720557412523256,0.22624000826919388,0.2400551761479196,0.2823447914409898
0.5621283448959365,-0.14372599727452925,-0.10220515361744302,0.19163466303270565,0.34714158275576623,0.2262339006989506,0.23997644923641293,0.2823151262803972
0.6323943880079286,0.05429648785926659,-0.04152084365708622,-0.21718595143706637,0.3470771640735223,0.2262278176494621,0.23989720947035933,0.28228537361909134
0.5653222559464817,0.2107981293359762,-0.01596955525272547,-0.49505621283448964,0.3470123210671882,0.22622176093288238,0.2398174549577906,0.28225553544055765
0.16927728567888997,0.2746763503468781,0.06707213206144698,-0.4471475470763132,0.34694705709206103,0.22621573220470373,0.23973718367334323,0.28222561375769867
0.12456253097125865,0.2203798624876115,0.05749039890981169,-0.3800754150148662,0.3468813757143413,0.22620973302841088,0.23965639344109882,0.2821956107436398
0.09901124256689792,0.17885901883052527,-0.047908665758176414,-0.32258501610505447,0.3468152804391304,0.22620376494063632,0.23957508194704105,0.28216552877953566
0.01596955525272547,0.20121639618434092,-0.8623559836471754,-0.3641058597621407,0.34674877450797414,0.22619782944582775,0.2394932468287831,0.28213537040220665
-0.06707213206144698,0.27787026139742316,0.3098093719028741,-0.20441030723488604,0.3466818608055788,0.22619192799372517,0.2394108859341769,0.28210513823810357
-0.009581733151635281,0.16927728567888997,0.35771803766105054,0.02235737735381566,0.34661454181746376,0.22618606199084565,0.23932799757722809,0.2820748349176587
0.08623559836471753,0.035133021555996034,0.20121639618434092,0.07984777626362735,0.34654681961674627,0.22618023279512328,0.23924458052811012,0.28204446292808016
0.07984777626362735,-0.060684309960356786,0.06707213206144698,0.03193911050545094,0.34647869587834956,0.22617444163596587,0.23916063382585057,0.2820140244697955
-0.4184023476214073,-0.17885901883052527,0.0031939110505450944,0.35771803766105054,0.3464101719430222,0.2261686895251387,0.23907615659094766,0.28198352142142025
-0.9965002477700692,-0.306615460852329,-0.1501138193756194,0.5685161669970267,0.34634124903001856,0.2261629772706494,0.23899114788052658,0.2819529554679586
-0.5461587896432111,-0.46950492443012876,-0.18524684093161545,0.29064590559960357,0.34627192862036893,0.22615730561046946,0.23890560664615154,0.28192232833432584
-0.18205292988107036,-0.48866839073339935,-0.17247119672943506,0.25231897299306244,0.34620221270889956,0.2261516754005562,0.23881953179602244,0.281891641916934
0.13095035307234884,-0.32258501610505447,-0.19163466303270565,0.25231897299306244,0.34613210364537594,0.2261460877593732,0.23873292226418857,0.2818608982177823
0.2746763503468781,-0.22676768458870167,-0.17566510777998018,-0.009581733151635281,0.346061603793656,0.22614054407640782,0.2386457770369757,0.2818300992098671
0.3704936818632309,0.009581733151635281,-0.035133021555996034,-0.1117868867690783,0.3459907153824621,0.22613504587640756,0.23855809514256526,0.28179924671188333
0.39923888131813673,0.24273723984142714,0.11498079781962338,-0.047908665758176414,0.345919440575839,0.22612959463767057,0.23846987560124108,0.2817683422794893
0.3193911050545094,0.306615460852329,0.12775644202180375,-0.4215962586719524,0.3458477815838209,0.22612419170988465,0.23838111737243764,0.2817373871863208
0.23315550668979185,0.2810641724479683,0.10220515361744302,-0.4215962586719524,0.34577574069013417,0.22611883838020308,0.23829181934925503,0.2817063825519245
0.18205292988107036,0.17885901883052527,0.07345995416253714,-0.3481363045094153,0.34570332018686517,0.22611353596046901,0.2382019803722058,0.28167532953890945
0.1501138193756194,0.2139920403865213,-0.02235737735381566,-0.306615460852329,0.34563052227346924,0.22610828578291126,0.23811159921250588,0.28164422945801154
0.14053208622398414,0.1565016414767096,-0.4247901697224975,-0.3098093719028741,0.3455573489744077,0.2261030891446828,0.23802067456768267,0.2816130837433672
0.08623559836471753,0.1053990646679881,0.1628894635777998,-0.18524684093161545,0.3454838020865376,0.22609794725947746,0.23792920515045654,0.2815818938871319
-0.06387822101090188,0.038326932606541124,0.1596955525272547,0.028745199454905845,0.3454098831369541,0.22609286120284755,0.23783718979839202,0.2815506613538628
-0.13414426412289396,0.0,0.1501138193756194,0.1053990646679881,0.34533559334741726,0.22608783183621217,0.23774462746911765,0.28151938745278965
-0.009581733151635281,-0.05110257680872151,0.1469199083250743,0.10220515361744302,0.3452609336197654,0.22608285973614245,0.2376515171708082,0.2814880732310082
-0.511025768087215,-0.1533077304261645,0.038326932606541124,0.2555128840436075,0.3451859045685119,0.22607794517544264,0.2375578579181714,0.28145671946318035
-1.0795419350842417,-0.3098093719028741,-0.1501138193756194,0.4088206144697721,0.34511050672729576,0.2260730881909808,0.23746364869594053,0.28142532674265136
-0.8719377167988107,-0.3768815039643211,-0.17247119672943506,0.4631171023290387,0.34503474099945947,0.2260682887297503,0.2373688884402474,0.28139389564393097
-0.1501138193756194,-0.38965714816650143,-0.05110257680872151,0.39604497026759167,0.34495860901360365,0.22606354681262208,0.2372735760594959,0.2813624268853076
0.2650946171952428,-0.27787026139742316,0.02235737735381566,0.2555128840436075,0.3448821129918759,0.22605886263648262,0.23717771043144917,0.28133092139251964
0.4471475470763132,-0.2107981293359762,0.05110257680872151,-0.07345995416253714,0.34480525535865153,0.22605423657007706,0.23708129034513464,0.2812993802203417
0.5397709675421208,0.025551288404360755,0.047908665758176414,-0.35133021555996036,0.34472803858421397,0.22604966905392979,0.2369843144523485,0.2812678044047662
0.5269953233399406,0.20441030723488604,0.019163466303270562,-0.5301892343904856,0.344650465298817,0.22604516046392967,0.2368867812603937,0.28123619492158436
0.2619007061446977,0.3002276387512388,0.08304168731417244,-0.36729977081268583,0.3445725383946851,0.22604071104657503,0.23678868913668313,0.28120455281783463
0.19163466303270565,0.2619007061446977,0.07984777626362735,-0.2874519945490585,0.3444942609584512,0.22603632097995457,0.23669003632100286,0.2811728793333862
0.1533077304261645,0.23315550668979185,-0.2555128840436075,-0.24273723984142714,0.3444156360874075,0.22603199046398526,0.2365908209696864,0.2811411758640676
0.1533077304261645,0.2107981293359762,-0.5876796333002972,-0.23634941774033696,0.34433666673003777,0.22602771973882174,0.23649104127777024,0.28110944384915587
0.1117868867690783,0.28425808349851334,0.7218238974231912,-0.28425808349851334,0.3442573556093946,0.226023509060377,0.23639069572721577,0.28107768470018873
0.05429648785926659,0.2076042182854311,0.8336107841922695,-0.511025768087215,0.3441777051835484,0.22601935869321071,0.23628978340572823,0.2810458998130209
0.0031939110505450944,0.08623559836471753,0.5493527006937562,-0.48866839073339935,0.34409771759498925,0.22601526890013812,0.23618830423637177,0.2810140906744177
0.035133021555996034,0.02235737735381566,0.3193911050545094,-0.2587067950941526,0.3440173946097848,0.2260112398709095,0.23608625898115987,0.28098225897893414
-0.17885901883052527,-0.07345995416253714,0.14372599727452925,0.303421549801784,0.3439367375941903,0.2260072716107116,0.23598364901335173,0.2809504066201235
-0.7090482532210107,-0.2491250619425173,-0.1053990646679881,0.8911011831020812,0.3438557476212952,0.2260033638885217,0.235880476003888,0.28091853564112845
-0.9613672262140732,-0.440759724975223,-0.2810641724479683,0.9709489593657086,0.3437744257959865,0.22599951632056509,0.2357767417008373,0.28088664840175076
-0.4854744796828543,-0.606843099603568,-0.40243279236868185,0.7569569189791873,0.3436927736721258,0.22599572857833292,0.23567244789571823,0.2808547479189537
0.14053208622398414,-0.5589344338453914,-0.39604497026759167,0.36729977081268583,0.34361079339317735,0.22599200063116037,0.23556759653940648,0.28082283801318975
0.2938398166501486,-0.34174848240832506,-0.24593115089197226,0.08942950941526263,0.3435284874370305,0.22598833288915574,0.2354621898573666,0.28079092308101844
0.3832693260654113,-0.1053990646679881,-0.08304168731417244,-0.11498079781962338,0.34344585831895447,0.22598472614409443,0.23535623033182548,0.2807590076794129
0.35452412661050536,0.17247119672943506,0.07345995416253714,-0.3098093719028741,0.34336290853235957,0.22598118134983813,0.23524972055614174,0.28072709621895015
0.2107981293359762,0.3161971940039643,0.019163466303270562,-0.47269883548067393,0.3432796406019213,0.2259776994337706,0.23514266307116521,0.28069519292646444
0.1628894635777998,0.3002276387512388,-0.07665386521308225,-0.35771803766105054,0.3431960570556041,0.22597428127763003,0.2350350602678339,0.2806633019953281
0.13095035307234884,0.24593115089197226,-0.06707213206144698,-0.29064590559960357,0.3431121603172178,0.2259709277930832,0.23492691436018937,0.28063142770674887
0.10220515361744302,0.20121639618434092,-0.13414426412289396,-0.23954332879088208,0.3430279526069081,0.2259676399485436,0.23481822740267191,0.2805995744120701
0.019163466303270562,0.2491250619425173,-0.8879072720515362,-0.2938398166501486,0.3429434358744597,0.22596441873166906,0.23470900140312265,0.28056774644900245
-0.006387822101090189,0.3481363045094153,0.23315550668979185,-0.39285105921704655,0.34285861173680676,0.22596126512851294,0.23459923859255905,0.28053594810519705
0.028745199454905845,0.17885901883052527,0.27787026139742316,-0.3481363045094153,0.34277348141845626,0.22595818015053493,0.23448894163498318,0.2805041836577083
-0.04471475470763132,0.09581733151635283,0.19482857408325072,-0.3481363045094153,0.3426880457259511,0.22595516483216163,0.2343781135479729,0.2804724574287842
-0.04152084365708622,0.006387822101090189,0.035133021555996034,-0.20441030723488604,0.3426023050607599,0.2259522201342675,0.2342667574952247,0.28044077378828136
-0.47269883548067393,-0.1469199083250743,-0.12456253097125865,0.3002276387512388,0.342516259483235,0.22594934682023002,0.23415487663707213,0.2804091370983279
-0.9613672262140732,-0.35133021555996036,-0.23634941774033696,0.6579456764122893,0.3424299089388112,0.22594654543277393,0.2340424740556444,0.28037755169684003
-0.6196187438057482,-0.4854744796828543,-0.20121639618434092,0.5493527006937562,0.3423432536663,0.22594381642828668,0.23392955277814628,0.28034602202510467
-0.1501138193756194,-0.5589344338453914,-0.11498079781962338,0.39604497026759167,0.3422562944655745,0.22594116040122209,0.23381611583988002,0.28031455279924505
0.3098093719028741,-0.5301892343904856,-0.028745199454905845,0.2555128840436075,0.34216903255504155,0.22593857827767583,0.23370216627403148,0.28028314901685175
0.45353536917740334,-0.35771803766105054,-0.038326932606541124,0.09901124256689792,0.34208146928357097,0.2259360713962195,0.233587707026638,0.2802518157860337
0.47908665758176416,-0.05749039890981169,0.006387822101090189,-0.1469199083250743,0.34199360606464396,0.22593364142998798,0.2334727408720256,0.28022055811588553
0.48866839073339935,0.20121639618434092,0.02235737735381566,-0.2874519945490585,0.34190544448591126,0.22593129017483346,0.23335727036883444,0.2801893807896815
0.2682885282457879,0.33216674925668976,0.035133021555996034,-0.28425808349851334,0.3418169863746681,0.22592901937176907,0.2332412978479544,0.2801582883756259
0.1628894635777998,0.2938398166501486,0.03193911050545094,-0.23315550668979185,0.34172823372799965,0.22592683070511319,0.23312482541889312,0.2801272853084269
0.12775644202180375,0.23954332879088208,0.02235737735381566,-0.18844075198216054,0.34163918854437,0.22592472588552856,0.23300785498193208,0.28009637592388736
0.1053990646679881,0.2203798624876115,0.0,-0.17247119672943506,0.3415498526625818,0.22592270666875516,0.2328903882305462,0.2800655644238216
0.13733817517343905,0.21718595143706637,-0.39923888131813673,-0.24593115089197226,0.3414602276765116,0.22592077481324066,0.23277242667942324,0.2800348548326092
