processed_ch1,processed_ch2,processed_ch3,processed_ch4
0.052539145,0.109976198,0.57772853,0.909305413
0.052571372,0.109962141,0.579701928,0.91151675
0.052603182,0.109948059,0.581673897,0.913723348
0.052634579,0.109933955,0.583644401,0.915925156
0.052665563,0.109919832,0.585613403,0.918122121
0.052696139,0.109905693,0.587580864,0.92031419
0.052726307,0.10989154,0.589546746,0.92250131
0.052756071,0.109877378,0.591511009,0.924683431
0.052785434,0.109863208,0.593473611,0.926860504
0.052814397,0.109849033,0.595434512,0.929032482
0.052842964,0.109834857,0.59739367,0.931199321
0.052871137,0.109820682,0.599351044,0.933360976
0.05289892,0.109806512,0.601306591,0.935517404
0.052926314,0.10979235,0.603260272,0.93766856
0.052953322,0.109778199,0.605212048,0.939814398
0.052979948,0.109764061,0.607161878,0.941954875
0.053006194,0.109749938,0.609109723,0.944089943
0.053032063,0.109735834,0.611055543,0.946219556
0.053057557,0.109721751,0.612999296,0.948343665
0.053082679,0.109707692,0.614940942,0.950462225
0.05310743,0.109693661,0.61688044,0.952575186
0.053131814,0.109679662,0.618817749,0.954682503
0.053155833,0.109665699,0.620752824,0.956784126
0.053179488,0.109651776,0.622685621,0.95888001
0.053202783,0.109637895,0.624616097,0.960970108
0.053225718,0.10962406,0.626544206,0.963054371
0.053248298,0.109610275,0.628469901,0.965132753
0.053270523,0.109596543,0.630393137,0.967205207
0.053292395,0.109582867,0.632313867,0.969271686
0.053313918,0.109569252,0.634232046,0.971332143
0.053335093,0.109555702,0.63614763,0.973386531
0.053355922,0.109542218,0.638060576,0.975434803
0.053376408,0.109528804,0.639970843,0.977476911
0.053396553,0.109515462,0.641878389,0.979512808
0.05341636,0.109502197,0.643783177,0.981542445
0.05343583,0.109489009,0.645685168,0.983565771
0.053454966,0.109475905,0.647584329,0.985582735
0.053473771,0.109462887,0.649480622,0.987593286
0.053492248,0.109449961,0.651374014,0.989597374
0.053510399,0.10943713,0.653264467,0.991594946
0.053528225,0.109424399,0.655151945,0.993585951
0.05354573,0.109411771,0.657036409,0.995570335
0.053562915,0.109399252,0.658917819,0.997548047
0.053579783,0.109386845,0.660796137,0.999519034
0.053596335,0.109374554,0.662671323,1.001483243
0.053612575,0.109362386,0.664543339,1.003440623
0.053628504,0.109350343,0.666412148,1.00539112
0.053644125,0.109338429,0.668277715,1.007334685
0.053659439,0.109326649,0.670140002,1.009271266
0.05367445,0.109315006,0.671998974,1.011200816
0.053689158,0.109303503,0.673854598,1.013123287
0.053703568,0.109292144,0.675706839,1.015038634
0.05371768,0.109280934,0.677555668,1.016946811
0.053731498,0.109269878,0.679401054,1.018847775
0.053745023,0.109258979,0.681242968,1.020741481
0.053758258,0.109248243,0.683081376,1.022627884
0.053771204,0.109237673,0.684916248,1.024506938
0.053783865,0.109227274,0.68674755,1.026378599
0.053796241,0.109217048,0.688575249,1.02824282
0.053808336,0.109206999,0.690399311,1.030099557
0.053820151,0.109197131,0.692219702,1.031948765
0.053831689,0.109187446,0.694036388,1.033790397
0.053842951,0.109177947,0.695849335,1.035624406
0.053853941,0.109168638,0.697658509,1.037450746
0.053864659,0.109159521,0.699463875,1.039269369
0.053875108,0.109150597,0.701265398,1.041080228
0.05388529,0.109141868,0.70306304,1.042883277
0.053895207,0.109133336,0.704856767,1.044678467
0.053904861,0.109125,0.706646542,1.046465752
0.053914254,0.109116864,0.708432329,1.048245083
0.053923387,0.109108929,0.710214091,1.050016412
0.053932262,0.1091012,0.711991792,1.051779692
0.053940882,0.109093678,0.713765396,1.053534875
0.053949247,0.109086368,0.715534868,1.055281912
0.053957359,0.109079271,0.71730017,1.057020756
0.05396522,0.109072392,0.719061266,1.058751356
0.053972833,0.109065731,0.72081812,1.060473663
0.053980198,0.109059293,0.722570692,1.062187628
0.053987317,0.10905308,0.724318946,1.063893203
0.053994193,0.109047095,0.726062843,1.06559034
0.054000827,0.10904134,0.727802346,1.067278992
0.054007222,0.109035819,0.729537415,1.068959112
0.054013379,0.109030533,0.731268011,1.070630655
0.0540193,0.109025484,0.732994094,1.072293572
0.054024986,0.109020675,0.734715624,1.073947817
0.054030439,0.109016107,0.736432561,1.075593341
0.054035661,0.109011783,0.738144865,1.077230099
0.054040654,0.109007705,0.739852496,1.078858043
0.054045418,0.109003877,0.741555412,1.080477125
0.054049956,0.109000301,0.743253571,1.082087299
0.054054268,0.108996981,0.744946929,1.083688519
0.054058356,0.108993919,0.746635443,1.085280737
0.054062222,0.108991118,0.748319067,1.086863908
0.054065866,0.108988579,0.749997755,1.088437985
0.054069289,0.108986305,0.75167146,1.090002922
0.054072494,0.108984298,0.753340135,1.091558674
0.05407548,0.10898256,0.755003733,1.093105198
0.05407825,0.10898109,0.756662206,1.09464245
0.054080804,0.10897989,0.758315507,1.09617039
0.054083144,0.10897896,0.759963591,1.097688978
0.054085269,0.108978299,0.761606408,1.099198173
0.054087183,0.108977907,0.763243915,1.100697934
0.054088884,0.108977785,0.764876065,1.102188224
0.054090375,0.108977933,0.766502817,1.103669007
0.054091657,0.108978351,0.768124129,1.10514025
0.054092731,0.108979042,0.76973996,1.106601918
0.054093599,0.108980006,0.771350268,1.108053979
0.05409426,0.108981244,0.772955013,1.109496402
0.054094717,0.108982756,0.774554153,1.110929155
0.05409497,0.108984542,0.776147647,1.11235221
0.05409502,0.108986603,0.777735453,1.113765537
0.054094869,0.10898894,0.779317531,1.115169107
0.054094519,0.108991552,0.780893841,1.116562892
0.054093969,0.10899444,0.782464342,1.117946863
0.054093222,0.108997603,0.784028993,1.119320993
0.054092278,0.109001042,0.785587753,1.120685256
0.054091139,0.109004753,0.787140579,1.122039624
0.054089807,0.109008737,0.78868743,1.12338407
0.054088281,0.109012992,0.790228262,1.12471857
0.054086563,0.109017516,0.79176303,1.1260431
0.054084655,0.10902231,0.793291691,1.127357637
0.054082558,0.109027373,0.794814199,1.128662157
0.054080274,0.109032706,0.796330512,1.129956639
0.054077802,0.109038309,0.797840585,1.13124106
0.054075145,0.10904418,0.799344377,1.132515398
0.054072304,0.10905032,0.800841845,1.133779633
0.05406928,0.109056727,0.802332945,1.135033746
0.054066075,0.109063402,0.803817633,1.136277718
0.05406269,0.109070343,0.805295865,1.137511535
0.054059126,0.109077549,0.806767594,1.138735181
0.054055386,0.109085019,0.808232776,1.139948644
0.05405147,0.10909275,0.809691363,1.141151912
0.05404738,0.109100741,0.811143309,1.142344982
0.054043118,0.109108988,0.812588567,1.143527851
0.054038685,0.109117489,0.814027092,1.144700522
0.054034081,0.109126241,0.81545884,1.145863001
0.054029309,0.109135242,0.816883766,1.14701529
0.05402437,0.10914449,0.818301826,1.148157393
0.054019264,0.109153984,0.819712978,1.149289313
0.054013994,0.109163722,0.821117178,1.150411055
0.05400856,0.109173703,0.822514383,1.151522625
0.054002963,0.109183925,0.823904549,1.152624029
0.053997205,0.109194387,0.825287632,1.153715276
0.053991286,0.109205087,0.826663589,1.154796373
0.053985208,0.109216026,0.828032376,1.155867329
0.053978972,0.109227199,0.829393949,1.156928153
0.053972578,0.109238607,0.830748264,1.157978854
0.053966028,0.109250247,0.832095279,1.159019441
0.053959323,0.109262117,0.833434949,1.160049922
0.053952463,0.109274214,0.834767231,1.161070307
0.053945451,0.109286535,0.83609208,1.162080604
0.053938286,0.10929908,0.837409451,1.163080821
0.05393097,0.109311844,0.838719297,1.164070965
0.053923503,0.109324828,0.840021573,1.165051045
0.053915887,0.109338028,0.841316232,1.166021068
0.053908121,0.109351444,0.842603225,1.166981039
0.053900207,0.109365075,0.843882504,1.167930967
0.053892146,0.109378917,0.845154022,1.168870859
0.053883938,0.109392969,0.846417729,1.16980072
0.053875584,0.10940723,0.847673576,1.170720559
0.053867085,0.109421698,0.848921516,1.17163038
0.053858442,0.10943637,0.850161502,1.172530191
0.053849655,0.109451245,0.851393487,1.173419997
0.053840726,0.109466319,0.852617426,1.174299808
0.053831654,0.109481591,0.853833278,1.175169628
0.053822441,0.109497057,0.855041003,1.176029467
0.053813086,0.109512714,0.85624056,1.176879329
0.05380359,0.10952856,0.857431911,1.177719221
0.053793954,0.109544594,0.858615019,1.178549148
0.053784178,0.109560812,0.859789846,1.179369117
0.053774262,0.109577214,0.860956355,1.180179132
0.053764207,0.1095938,0.862114511,1.180979199
0.053754013,0.109610566,0.863264276,1.181769326
0.053743681,0.109627511,0.864405614,1.182549517
0.05373321,0.109644634,0.865538488,1.183319781
0.053722602,0.10966193,0.866662861,1.184080123
0.053711856,0.109679399,0.867778695,1.184830549
0.053700974,0.109697036,0.868885954,1.185571066
0.053689955,0.109714839,0.869984599,1.186301678
0.053678799,0.109732806,0.871074595,1.18702239
0.053667508,0.109750935,0.872155904,1.187733205
0.05365608,0.109769222,0.873228492,1.188434126
0.053644517,0.109787665,0.874292322,1.189125158
0.053632818,0.109806261,0.875347359,1.189806304
0.053620984,0.109825008,0.876393571,1.190477567
0.053609014,0.109843902,0.877430924,1.191138953
0.053596909,0.109862941,0.878459386,1.191790464
0.053584669,0.109882124,0.879478927,1.192432104
0.053572293,0.10990145,0.880489516,1.193063876
0.053559782,0.109920917,0.881491121,1.193685783
0.053547137,0.109940523,0.882483714,1.194297824
0.053534356,0.109960266,0.883467262,1.194900001
0.05352144,0.109980143,0.884441735,1.195492315
0.05350839,0.110000154,0.885407104,1.196074764
0.053495204,0.110020295,0.886363341,1.196647347
0.053481884,0.110040565,0.887310418,1.197210065
0.053468429,0.110060961,0.888248309,1.197762914
0.053454839,0.110081479,0.889176988,1.198305893
0.053441114,0.110102118,0.890096427,1.198839
0.053427255,0.110122872,0.8910066,1.199362233
0.05341326,0.110143739,0.89190748,1.199875591
0.05339913,0.110164715,0.892799039,1.200379072
0.053384865,0.110185797,0.89368125,1.200872674
0.053370464,0.110206983,0.894554084,1.201356394
0.053355926,0.11022827,0.895417513,1.201830233
0.053341252,0.110249655,0.896271508,1.202294189
0.05332644,0.110271136,0.897116041,1.202748262
0.053311489,0.11029271,0.897951084,1.203192449
0.0532964,0.110314373,0.898776614,1.203626751
0.05328117,0.110336122,0.899592605,1.204051168
0.0532658,0.110357954,0.900399035,1.204465702
0.053250288,0.110379865,0.901195879,1.204870355
0.053234633,0.110401853,0.901983118,1.205265128
0.053218836,0.110423913,0.902760728,1.205650023
0.053202896,0.110446043,0.903528692,1.206025043
0.053186813,0.110468238,0.904286989,1.206390192
0.053170587,0.110490495,0.905035604,1.206745473
0.053154217,0.110512811,0.905774519,1.20709089
0.053137704,0.110535181,0.906503717,1.207426448
0.053121048,0.110557604,0.90722318,1.207752152
0.05310425,0.110580078,0.907932892,1.208068008
0.053087308,0.110602601,0.908632833,1.208374022
0.053070225,0.110625171,0.909322985,1.2086702
0.053052999,0.110647787,0.91000333,1.208956546
0.053035631,0.110670446,0.910673852,1.209233065
0.053018122,0.110693147,0.911334533,1.209499763
0.053000472,0.110715886,0.911985357,1.209756643
0.05298268,0.110738663,0.912626308,1.210003714
0.052964748,0.110761475,0.913257369,1.210240982
0.052946676,0.11078432,0.913878525,1.210468455
0.052928463,0.110807197,0.914489761,1.210686144
0.05291011,0.110830102,0.915091061,1.210894057
0.052891617,0.110853032,0.915682413,1.211092207
0.052872986,0.110875984,0.916263804,1.211280605
0.052854215,0.110898956,0.916835219,1.211459261
0.052835306,0.110921943,0.917396649,1.211628187
0.052816259,0.110944945,0.917948081,1.211787397
0.052797075,0.110967959,0.918489502,1.211936903
0.052777755,0.110990984,0.919020902,1.212076719
0.052758298,0.111014019,0.919542267,1.212206858
0.052738706,0.111037061,0.920053588,1.212327332
0.052718978,0.111060109,0.920554855,1.212438157
0.052699116,0.111083161,0.921046062,1.212539348
0.05267912,0.111106214,0.921527204,1.21263092
0.05265899,0.111129269,0.92199828,1.21271289
0.052638726,0.111152323,0.922459288,1.212785277
0.052618329,0.111175374,0.922910229,1.212848096
0.0525978,0.111198422,0.923351103,1.212901366
0.052577139,0.111221462,0.923781913,1.212945104
0.052556346,0.111244493,0.924202658,1.212979325
0.052535422,0.111267511,0.924613341,1.213004047
0.052514366,0.111290515,0.925013962,1.213019284
0.052493179,0.111313503,0.925404522,1.213025054
0.05247186,0.111336473,0.925785024,1.21302137
0.052450411,0.111359425,0.926155469,1.213008252
0.052428831,0.111382356,0.926515858,1.212985714
0.05240712,0.111405267,0.926866193,1.212953776
0.052385278,0.111428156,0.927206473,1.212912458
0.052363305,0.111451021,0.9275367,1.212861782
0.052341203,0.111473863,0.927856874,1.212801771
0.052318971,0.111496679,0.928166995,1.212732448
0.052296609,0.11151947,0.928467061,1.212653837
0.052274118,0.111542235,0.928757074,1.212565959
0.052251498,0.11156497,0.929037031,1.212468837
0.05222875,0.111587675,0.929306933,1.212362493
0.052205874,0.111610347,0.92956678,1.212246947
0.052182869,0.111632983,0.929816571,1.212122221
0.052159737,0.11165558,0.930056307,1.211988336
0.052136478,0.111678136,0.930285989,1.211845312
0.052113091,0.11170065,0.93050562,1.211693171
0.052089577,0.11172312,0.930715203,1.211531935
0.052065937,0.111745545,0.930914741,1.211361628
0.052042169,0.111767923,0.931104237,1.211182276
0.052018273,0.111790254,0.931283697,1.210993903
0.051994251,0.111812535,0.931453123,1.210796536
0.051970101,0.111834764,0.93161252,1.210590201
0.051945824,0.111856941,0.931761892,1.210374924
0.051921419,0.111879062,0.931901245,1.210150727
0.051896886,0.111901127,0.932030584,1.209917637
0.051872225,0.111923133,0.932149917,1.209675677
0.051847437,0.111945078,0.932259255,1.209424873
0.05182252,0.111966959,0.932358607,1.209165255
0.051797476,0.111988773,0.932447985,1.208896853
0.051772303,0.112010517,0.932527401,1.208619697
0.051747002,0.112032187,0.932596865,1.208333821
0.051721572,0.11205378,0.932656391,1.208039257
0.051696013,0.112075294,0.932705989,1.207736043
0.051670325,0.112096726,0.932745676,1.207424215
0.051644508,0.112118075,0.932775465,1.207103811
0.051618561,0.112139338,0.932795373,1.20677487
0.051592485,0.112160513,0.932805416,1.206437429
0.051566279,0.112181599,0.932805611,1.206091527
0.051539943,0.112202593,0.932795975,1.205737208
0.051513477,0.112223493,0.932776528,1.205374513
0.051486882,0.112244297,0.932747289,1.205003487
0.051460157,0.112265004,0.932708279,1.204624177
0.051433302,0.112285612,0.932659516,1.204236627
0.051406318,0.112306118,0.932601023,1.203840887
0.051379204,0.112326521,0.932532821,1.203437006
0.05135196,0.112346817,0.932454934,1.203025038
0.051324587,0.112367004,0.932367386,1.202605037
0.051297085,0.11238708,0.932270201,1.202177058
0.051269453,0.112407043,0.932163405,1.201741154
0.051241691,0.112426891,0.932047024,1.201297381
0.0512138,0.112446625,0.931921084,1.200845791
0.051185779,0.112466243,0.931785613,1.200386442
0.051157627,0.112485745,0.931640639,1.199919389
0.051129345,0.112505128,0.931486191,1.199444692
0.051100933,0.112524391,0.9313223,1.198962409
0.05107239,0.112543534,0.931148997,1.198472596
0.051043717,0.112562555,0.930966312,1.197975312
0.051014913,0.112581452,0.930774279,1.197470614
0.050985978,0.112600224,0.930572927,1.196958559
0.050956912,0.112618868,0.930362289,1.196439203
0.050927715,0.112637383,0.930142396,1.195912601
0.050898387,0.112655765,0.929913277,1.195378808
0.050868927,0.112674011,0.929674964,1.194837876
0.050839334,0.112692119,0.929427485,1.194289857
0.05080961,0.112710085,0.929170872,1.1937348
0.050779752,0.112727906,0.928905154,1.193172757
0.050749761,0.112745581,0.928630358,1.192603778
0.050719636,0.112763108,0.928346513,1.192027913
0.050689378,0.112780483,0.928053646,1.191445215
0.050658986,0.112797705,0.927751785,1.190855734
0.050628458,0.11281477,0.927440956,1.190259521
0.050597796,0.112831676,0.927121186,1.189656631
0.050566999,0.11284842,0.926792501,1.189047117
0.050536066,0.112864999,0.926454928,1.188431032
0.050504996,0.112881409,0.926108493,1.187808429
0.05047379,0.112897649,0.925753223,1.187179359
0.050442447,0.112913714,0.925389144,1.186543871
0.050410966,0.1129296,0.925016284,1.185902015
0.050379346,0.112945303,0.924634668,1.185253837
0.050347589,0.11296082,0.924244322,1.184599385
0.050315692,0.112976146,0.923845273,1.183938705
0.050283656,0.112991277,0.923437546,1.183271841
0.050251481,0.113006211,0.923021165,1.182598839
0.050219165,0.113020944,0.922596156,1.181919743
0.050186708,0.113035475,0.922162545,1.181234597
0.050154109,0.113049801,0.921720356,1.180543447
0.050121368,0.11306392,0.921269617,1.179846339
0.050088484,0.113077829,0.920810354,1.17914332
0.050055458,0.113091528,0.920342593,1.178434439
0.050022288,0.113105014,0.919866362,1.177719745
0.049988974,0.113118285,0.91938169,1.17699929
0.049955517,0.11313134,0.91888861,1.176273127
0.049921914,0.113144176,0.918387152,1.175541311
0.049888167,0.113156792,0.917877349,1.174803897
0.049854275,0.113169186,0.917359235,1.174060937
0.049820237,0.113181353,0.916832845,1.173312486
0.049786053,0.113193293,0.916298216,1.172558595
0.049751722,0.113205001,0.915755385,1.171799318
0.049717243,0.113216476,0.915204391,1.171034705
0.049682616,0.113227716,0.914645272,1.170264811
0.04964784,0.11323872,0.914078065,1.169489687
0.049612914,0.113249487,0.913502808,1.168709384
0.049577838,0.113260015,0.91291954,1.167923953
0.049542611,0.113270303,0.912328298,1.167133444
0.049507232,0.113280351,0.91172912,1.166337906
0.049471701,0.113290156,0.911122043,1.165537388
0.049436017,0.113299717,0.910507105,1.16473194
0.049400181,0.113309033,0.909884343,1.16392161
0.049364191,0.113318102,0.909253797,1.163106449
0.049328047,0.113326922,0.908615508,1.162286505
0.049291749,0.11333549,0.907969516,1.161461829
0.049255298,0.113343802,0.907315859,1.160632469
0.049218692,0.113351855,0.906654577,1.159798473
0.049181932,0.113359647,0.905985707,1.158959887
0.049145019,0.113367173,0.905309289,1.158116757
0.049107952,0.113374432,0.904625361,1.157269127
0.049070732,0.113381422,0.903933961,1.156417039
0.049033359,0.11338814,0.903235128,1.155560535
0.048995832,0.113394585,0.902528899,1.154699655
0.048958154,0.113400755,0.90181531,1.15383444
0.048920322,0.113406648,0.901094398,1.152964929
0.048882339,0.113412261,0.900366199,1.15209116
0.048844204,0.113417594,0.899630748,1.151213172
0.048805918,0.113422645,0.89888808,1.150331005
0.048767482,0.11342741,0.89813823,1.149444696
0.048728895,0.11343189,0.897381232,1.148554284
0.048690158,0.11343608,0.896617119,1.147659805
0.048651272,0.11343998,0.895845928,1.146761295
0.048612237,0.113443586,0.895067692,1.145858788
0.048573054,0.113446895,0.894282446,1.144952319
0.048533723,0.113449904,0.893490226,1.144041925
0.048494244,0.113452612,0.892691068,1.143127639
0.048454619,0.113455015,0.891885008,1.142209495
0.048414848,0.113457113,0.891072083,1.141287529
0.04837493,0.113458904,0.890252333,1.140361774
0.048334868,0.113460385,0.889425796,1.139432263
0.04829466,0.113461555,0.888592511,1.138499032
0.048254307,0.113462411,0.887752518,1.137562119
0.048213809,0.11346295,0.886905853,1.13662156
0.048173168,0.113463171,0.886052554,1.13567739
0.048132383,0.113463072,0.885192658,1.134729649
0.048091456,0.113462651,0.884326203,1.133778376
0.048050387,0.113461904,0.883453225,1.132823616
0.048009178,0.113460831,0.882573763,1.131865414
0.047967829,0.11345943,0.881687853,1.130903818
0.047926342,0.113457697,0.88079553,1.129938874
0.047884718,0.113455632,0.87989683,1.128970629
0.047842959,0.113453232,0.878991788,1.127999126
0.047801064,0.113450497,0.87808044,1.127024412
0.047759037,0.113447427,0.877162822,1.126046531
0.047716877,0.11344402,0.876238969,1.125065527
0.047674585,0.113440276,0.875308917,1.124081445
0.047632163,0.113436194,0.8743727,1.123094327
0.047589613,0.113431774,0.873430353,1.122104216
0.047546935,0.113427016,0.87248191,1.121111152
0.047504131,0.113421919,0.871527407,1.120115177
0.047461201,0.113416482,0.870566877,1.119116331
0.047418149,0.113410705,0.869600355,1.118114653
0.047374974,0.113404588,0.868627874,1.117110182
0.047331678,0.11339813,0.867649468,1.116102956
0.047288263,0.11339133,0.866665171,1.115093011
0.047244729,0.113384187,0.865675015,1.114080384
0.047201078,0.1133767,0.864679032,1.113065109
0.047157311,0.113368867,0.863677254,1.112047218
0.047113429,0.113360689,0.862669715,1.111026746
0.047069433,0.113352164,0.861656446,1.110003723
0.047025324,0.113343293,0.860637483,1.108978183
0.046981103,0.113334076,0.859612859,1.107950159
0.046936772,0.113324511,0.85858261,1.106919684
0.046892331,0.113314601,0.857546771,1.105886794
0.046847781,0.113304342,0.856505377,1.104851523
0.046803124,0.113293737,0.855458463,1.103813907
0.046758361,0.113282784,0.854406064,1.102773985
0.046713493,0.113271483,0.853348215,1.101731795
0.046668521,0.113259834,0.852284948,1.100687373
0.046623447,0.113247835,0.851216298,1.099640759
0.046578271,0.113235487,0.850142298,1.098591989
0.046532994,0.113222788,0.849062983,1.097541099
0.046487618,0.113209737,0.847978386,1.096488125
0.046442143,0.113196331,0.846888544,1.095433103
0.046396571,0.11318257,0.845793492,1.09437607
0.046350903,0.113168453,0.84469327,1.093317065
0.04630514,0.113153979,0.843587917,1.09225613
0.046259283,0.113139148,0.842477473,1.091193303
0.046213333,0.113123961,0.84136198,1.090128627
0.046167291,0.113108417,0.840241479,1.089062141
0.046121159,0.113092515,0.839116012,1.087993887
0.046074936,0.113076257,0.837985621,1.086923905
0.046028626,0.11305964,0.83685035,1.085852237
0.045982227,0.113042664,0.835710242,1.084778925
0.045935742,0.113025331,0.834565341,1.083704008
0.045889171,0.113007639,0.833415693,1.082627529
0.045842515,0.112989589,0.832261339,1.081549527
0.045795774,0.112971179,0.831102324,1.080470043
0.04574895,0.112952411,0.829938689,1.079389116
0.045702043,0.112933284,0.828770474,1.078306783
0.045655054,0.112913796,0.827597723,1.077223083
0.045607983,0.112893949,0.826420474,1.076138053
0.045560832,0.112873743,0.82523877,1.07505173
0.045513599,0.112853178,0.824052649,1.073964153
0.045466287,0.112832256,0.822862151,1.072875358
0.045418895,0.112810977,0.821667315,1.071785382
0.045371425,0.112789342,0.820468183,1.070694262
0.045323877,0.112767352,0.819264793,1.069602039
0.045276252,0.112745006,0.818057188,1.068508755
0.045228551,0.112722305,0.816845407,1.067414453
0.045180773,0.11269925,0.815629496,1.066319175
0.045132921,0.11267584,0.814409496,1.065222965
0.045084994,0.112652076,0.813185455,1.064125864
0.045036993,0.112627957,0.811957419,1.063027914
0.044988921,0.112603484,0.810725434,1.061929156
0.044940776,0.112578654,0.809489546,1.060829631
0.044892562,0.112553467,0.808249799,1.05972938
0.044844278,0.112527921,0.80700624,1.058628444
0.044795926,0.112502016,0.805758913,1.057526866
0.044747508,0.112475752,0.804507862,1.056424689
0.044699023,0.11244913,0.803253131,1.055321956
0.044650474,0.11242215,0.801994765,1.05421871
0.044601863,0.112394812,0.800732807,1.053114996
0.04455319,0.112367118,0.799467301,1.052010859
0.044504458,0.112339068,0.798198289,1.050906342
0.044455667,0.112310661,0.796925816,1.049801489
0.044406819,0.112281898,0.795649924,1.048696346
0.044357915,0.112252781,0.794370658,1.047590957
0.044308957,0.112223309,0.793088063,1.046485366
0.044259946,0.112193483,0.791802182,1.04537962
0.044210882,0.112163303,0.790513059,1.044273764
0.044161767,0.112132769,0.789220737,1.043167844
0.044112603,0.11210188,0.78792526,1.042061904
0.044063389,0.112070636,0.786626668,1.040955989
0.044014127,0.112039037,0.785325005,1.039850143
0.043964819,0.112007083,0.784020312,1.038744411
0.043915464,0.111974775,0.782712632,1.037638836
0.043866064,0.111942114,0.781402004,1.036533462
0.043816619,0.111909101,0.780088469,1.035428331
0.043767131,0.111875739,0.77877207,1.034323486
0.043717601,0.111842028,0.777452845,1.03321897
0.043668029,0.11180797,0.776130838,1.032114826
0.043618417,0.111773565,0.774806091,1.031011097
0.043568765,0.111738816,0.773478647,1.029907828
0.043519076,0.111703724,0.772148553,1.02880506
0.04346935,0.11166829,0.770815852,1.027702839
0.043419587,0.111632514,0.76948059,1.026601206
0.043369789,0.111596399,0.768142813,1.025500205
0.043319957,0.111559943,0.766802563,1.024399878
0.043270092,0.111523148,0.765459888,1.023300267
0.043220195,0.111486015,0.76411483,1.022201413
0.043170267,0.111448543,0.762767435,1.02110336
0.043120308,0.111410733,0.761417749,1.020006147
0.043070319,0.111372586,0.760065814,1.018909817
0.043020302,0.111334103,0.758711673,1.017814409
0.042970258,0.111295286,0.75735537,1.016719963
0.042920188,0.111256136,0.755996945,1.015626517
0.042870092,0.111216653,0.754636441,1.014534107
0.042819971,0.11117684,0.753273897,1.013442769
0.042769827,0.111136697,0.751909356,1.01235254
0.04271966,0.111096226,0.75054286,1.011263454
0.042669472,0.111055427,0.749174451,1.010175548
0.042619262,0.111014302,0.747804171,1.009088857
0.042569034,0.110972851,0.746432061,1.008003415
0.042518787,0.110931074,0.745058159,1.006919255
0.042468523,0.110888972,0.743682508,1.00583641
0.042418244,0.110846544,0.742305145,1.004754913
0.042367952,0.110803791,0.740926112,1.003674796
0.042317647,0.110760714,0.739545449,1.002596091
0.042267333,0.110717313,0.738163197,1.00151883
0.042217011,0.110673591,0.736779398,1.000443043
0.042166683,0.110629548,0.735394096,0.999368763
0.04211635,0.110585185,0.734007337,0.998296022
0.042066015,0.110540505,0.732619171,0.997224855
0.042015679,0.110495507,0.731229648,0.996155297
0.041965344,0.110450193,0.729838822,0.995087382
0.041915012,0.110404562,0.728446752,0.994021145
0.041864685,0.110358615,0.727053499,0.992956619
0.041814364,0.110312352,0.725659127,0.991893834
0.041764052,0.110265773,0.724263697,0.990832823
0.041713749,0.110218877,0.72286727,0.989773621
0.041663459,0.110171662,0.721469908,0.988716261
0.041613183,0.110124129,0.72007167,0.987660776
0.041562922,0.110076274,0.718672614,0.9866072
0.041512679,0.110028097,0.717272798,0.985555564
0.041462455,0.109979595,0.715872283,0.9845059
0.041412253,0.10993077,0.714471124,0.983458238
0.041362073,0.10988162,0.713069381,0.982412606
0.041311918,0.109832145,0.711667108,0.981369032
0.04126179,0.109782345,0.710264363,0.980327541
0.041211688,0.109732219,0.708861199,0.979288159
0.041161616,0.109681767,0.70745767,0.978250909
0.041111575,0.109630987,0.70605383,0.977215814
0.041061565,0.10957988,0.70464973,0.976182897
0.041011588,0.109528445,0.703245422,0.975152181
0.040961645,0.109476681,0.701840958,0.974123689
0.040911738,0.109424588,0.70043639,0.973097441
0.040861868,0.109372164,0.69903177,0.972073457
0.040812037,0.109319408,0.697627152,0.971051757
0.040762245,0.109266318,0.696222589,0.970032359
0.040712494,0.109212893,0.694818133,0.969015278
0.040662786,0.109159131,0.693413838,0.968000532
0.040613121,0.109105033,0.692009759,0.966988136
0.0405635,0.109050598,0.69060595,0.965978105
0.040513925,0.108995826,0.689202466,0.964970452
0.040464396,0.108940718,0.687799363,0.96396519
0.040414915,0.108885274,0.686396697,0.962962335
0.040365482,0.108829495,0.684994521,0.9619619
0.040316098,0.108773382,0.683592892,0.960963904
0.040266763,0.108716934,0.682191862,0.959968363
0.040217479,0.108660154,0.680791486,0.958975298
0.040168247,0.108603042,0.679391814,0.957984728
0.040119066,0.108545599,0.677992899,0.956996672
0.040069938,0.108487824,0.676594789,0.956011153
0.040020863,0.108429718,0.675197532,0.955028193
0.039971843,0.108371279,0.673801179,0.954047813
0.039922877,0.10831251,0.672405776,0.953070037
0.039873968,0.108253409,0.671011372,0.952094889
0.039825116,0.108193977,0.669618017,0.951122393
0.039776322,0.108134217,0.66822576,0.95015258
0.039727587,0.108074129,0.66683465,0.949185481
0.039678912,0.108013718,0.665444736,0.94822113
0.039630298,0.107952984,0.664056065,0.947259563
0.039581745,0.107891931,0.662668685,0.946300812
0.039533255,0.107830559,0.661282641,0.945344911
0.039484828,0.107768872,0.65989798,0.94439189
0.039436465,0.107706871,0.658514745,0.943441781
0.039388167,0.107644559,0.65713298,0.942494611
0.039339934,0.107581939,0.655752729,0.941550408
0.039291768,0.107519012,0.654374033,0.940609201
0.039243669,0.107455781,0.652996934,0.939671015
0.039195639,0.107392247,0.651621475,0.938735878
0.039147678,0.107328413,0.650247695,0.937803822
0.039099786,0.10726428,0.648875636,0.936874878
0.039051964,0.107199851,0.647505334,0.935949082
0.039004214,0.10713513,0.646136829,0.935026471
0.038956535,0.107070118,0.644770158,0.934107083
0.038908928,0.10700482,0.643405357,0.933190956
0.038861395,0.106939239,0.642042465,0.932278135
0.038813934,0.106873379,0.640681516,0.931368663
0.038766549,0.106807241,0.639322545,0.930462585
0.038719238,0.106740828,0.637965585,0.929559947
0.038672003,0.106674143,0.63661067,0.928660793
0.038624845,0.106607189,0.635257829,0.927765165
0.038577765,0.106539967,0.633907094,0.926873105
0.038530764,0.106472483,0.632558496,0.925984654
0.038483844,0.106404736,0.631212064,0.925099854
0.038437004,0.106336731,0.629867831,0.924218742
0.038390248,0.106268469,0.628525827,0.923341359
0.038343576,0.106199951,0.627186083,0.922467744
0.03829699,0.10613118,0.625848631,0.921597935
0.038250492,0.106062157,0.624513503,0.92073197
0.038204083,0.105992886,0.623180731,0.919869887
0.038157766,0.105923369,0.621850347,0.919011723
0.038111543,0.10585361,0.620522383,0.918157512
0.038065415,0.105783612,0.619196871,0.917307286
0.038019384,0.105713378,0.617873841,0.916461079
0.037973452,0.105642912,0.616553325,0.915618921
0.037927622,0.105572216,0.615235352,0.914780844
0.037881896,0.105501294,0.613919952,0.913946877
0.037836275,0.10543015,0.612607156,0.91311705
0.037790762,0.105358786,0.611296993,0.91229139
0.037745358,0.105287206,0.609989493,0.911469923
0.037700068,0.105215413,0.608684684,0.910652675
0.037654891,0.10514341,0.607382597,0.909839673
0.037609831,0.1050712,0.606083258,0.909030943
0.037564889,0.104998784,0.604786697,0.908226511
0.037520067,0.104926165,0.603492939,0.907426404
0.037475367,0.104853347,0.602202009,0.906630644
0.037430791,0.104780333,0.600913932,0.905839255
0.037386341,0.104707126,0.599628732,0.905052262
0.037342017,0.104633731,0.598346434,0.90426969
0.037297822,0.104560152,0.597067062,0.903491561
0.037253758,0.104486392,0.595790641,0.9027179
0.037209825,0.104412455,0.594517197,0.901948733
0.037166026,0.104338344,0.593246752,0.901184085
0.037122361,0.104264063,0.59197933,0.900423986
0.037078833,0.104189615,0.590714955,0.899668462
0.037035443,0.104115006,0.589453648,0.898917541
0.036992191,0.104040238,0.588195431,0.898171252
0.03694908,0.103965316,0.586940325,0.897429623
0.03690611,0.103890243,0.585688349,0.896692683
0.036863283,0.103815022,0.584439522,0.895960458
0.0368206,0.103739658,0.583193863,0.895232976
0.036778062,0.103664152,0.581951391,0.894510261
0.036735669,0.103588511,0.580712124,0.893792338
0.036693423,0.103512738,0.579476083,0.893079233
0.036651326,0.103436839,0.578243287,0.892370971
0.036609377,0.103360819,0.577013758,0.891667577
0.036567578,0.103284684,0.575787516,0.890969074
0.03652593,0.10320844,0.574564582,0.890275484
0.036484435,0.103132091,0.573344978,0.889586829
0.036443092,0.103055645,0.572128723,0.888903128
0.036401904,0.102979106,0.57091584,0.888224398
0.036360871,0.10290248,0.569706349,0.887550658
0.036319995,0.102825774,0.568500272,0.886881924
0.036279277,0.102748991,0.567297631,0.886218209
0.036238718,0.102672138,0.566098446,0.885559528
0.036198319,0.102595219,0.564902737,0.884905894
0.036158081,0.102518238,0.563710522,0.884257319
0.036118005,0.1024412,0.562521821,0.883613815
0.036078093,0.102364109,0.561336652,0.882975395
0.036038345,0.102286971,0.56015503,0.88234207
0.035998761,0.102209791,0.558976973,0.88171385
0.035959343,0.102132574,0.557802497,0.881090744
0.035920091,0.102055326,0.556631619,0.880472763
0.035881006,0.101978052,0.555464353,0.879859914
0.035842088,0.101900756,0.554300715,0.879252204
0.035803338,0.101823444,0.55314072,0.878649639
0.035764757,0.101746119,0.551984383,0.878052223
0.035726344,0.101668786,0.550831721,0.877459959
0.0356881,0.10159145,0.54968275,0.876872851
0.035650027,0.101514115,0.548537486,0.876290901
0.035612123,0.101436783,0.547395948,0.875714109
0.03557439,0.10135946,0.546258151,0.875142478
0.035536827,0.101282147,0.545124113,0.874576007
0.035499435,0.101204848,0.54399385,0.874014698
0.035462213,0.101127565,0.54286738,0.873458552
0.035425162,0.101050302,0.54174472,0.872907568
0.035388282,0.100973062,0.540625887,0.872361746
0.035351572,0.100895851,0.539510898,0.871821083
0.035315032,0.100818671,0.53839977,0.871285576
0.035278663,0.100741528,0.537292519,0.870755222
0.035242464,0.100664426,0.53618916,0.870230012
0.035206435,0.100587368,0.535089707,0.86970994
0.035170577,0.100510358,0.533994172,0.869194996
0.035134889,0.100433402,0.532902568,0.868685173
0.035099372,0.100356502,0.531814904,0.868180459
0.035064025,0.100279663,0.530731191,0.867680846
0.035028848,0.100202888,0.529651437,0.867186323
0.034993842,0.10012618,0.528575651,0.86669688
0.034959006,0.100049541,0.52750384,0.866212506
0.03492434,0.099972976,0.52643601,0.865733189
0.034889844,0.099896486,0.525372167,0.865258915
0.034855518,0.099820075,0.524312319,0.864789673
0.034821362,0.099743746,0.52325647,0.864325448
0.034787375,0.099667504,0.522204628,0.86386623
0.034753559,0.099591353,0.521156798,0.86341201
0.034719912,0.099515296,0.520112986,0.862962778
0.034686435,0.099439337,0.519073197,0.862518526
0.034653128,0.099363479,0.518037437,0.862079244
0.034619992,0.099287724,0.517005711,0.861644921
0.034587027,0.099212077,0.515978024,0.861215545
0.034554232,0.09913654,0.514954377,0.860791105
0.034521607,0.099061116,0.513934773,0.860371587
0.034489154,0.098985809,0.512919214,0.859956978
0.034456871,0.09891062,0.511907703,0.859547267
0.034424759,0.098835552,0.510900246,0.85914244
0.034392817,0.098760607,0.509896847,0.858742485
0.034361046,0.098685786,0.508897516,0.858347386
0.034329446,0.09861109,0.507902261,0.857957129
0.034298016,0.098536523,0.506911091,0.857571698
0.034266757,0.098462085,0.505924015,0.857191076
0.03423567,0.09838778,0.504941045,0.85681525
0.034204753,0.09831361,0.503962195,0.856444203
0.034174009,0.098239578,0.502987478,0.856077922
0.034143437,0.098165688,0.502016908,0.85571639
0.034113037,0.098091942,0.501050499,0.85535959
0.03408281,0.098018343,0.500088265,0.855007508
0.034052756,0.097944894,0.499130222,0.854660128
0.034022876,0.097871597,0.498176383,0.854317436
0.033993169,0.097798457,0.497226762,0.853979416
0.033963638,0.097725476,0.496281375,0.853646055
0.03393428,0.097652656,0.495340234,0.853317337
0.033905098,0.09758,0.494403353,0.852993249
0.033876089,0.097507511,0.493470747,0.852673775
0.033847255,0.09743519,0.49254243,0.852358902
0.033818595,0.097363041,0.491618415,0.852048613
0.033790109,0.097291067,0.490698717,0.851742893
0.033761796,0.097219269,0.489783351,0.851441729
0.033733657,0.097147652,0.488872331,0.851145106
0.033705691,0.097076218,0.48796567,0.850853009
0.033677897,0.097004971,0.487063381,0.850565424
0.033650276,0.096933913,0.486165478,0.850282338
0.033622825,0.096863046,0.485271971,0.850003736
0.033595546,0.096792373,0.484382872,0.849729605
0.033568437,0.096721895,0.483498191,0.849459929
0.033541498,0.096651616,0.482617937,0.849194695
0.033514728,0.096581537,0.481742119,0.848933889
0.033488126,0.096511661,0.480870746,0.848677497
0.033461691,0.09644199,0.480003825,0.848425506
0.033435422,0.096372525,0.479141363,0.848177902
0.033409319,0.096303269,0.478283366,0.847934668
0.033383381,0.096234221,0.477429838,0.847695787
0.033357606,0.096165384,0.476580783,0.847461242
0.033331994,0.096096758,0.475736204,0.847231014
0.033306543,0.096028348,0.474896101,0.847005082
0.033281253,0.095960154,0.474060476,0.846783428
0.033256123,0.095892179,0.473229328,0.846566033
0.033231152,0.095824426,0.472402658,0.846352875
0.033206339,0.095756897,0.471580462,0.846143935
0.033181683,0.095689592,0.470762739,0.845939191
0.033157183,0.095622514,0.469949485,0.84573862
0.033132839,0.095555664,0.469140697,0.845542201
0.033108649,0.095489044,0.468336371,0.84534991
0.033084613,0.095422656,0.467536502,0.845161723
0.033060729,0.095356501,0.466741085,0.844977614
0.033036997,0.095290579,0.465950115,0.84479756
0.033013415,0.095224891,0.465163585,0.844621534
0.032989983,0.095159438,0.464381487,0.844449514
0.0329667,0.09509422,0.463603815,0.844281476
0.032943563,0.095029239,0.462830559,0.844117399
0.032920573,0.094964496,0.46206171,0.84395726
0.032897728,0.094899993,0.461297259,0.843801039
0.032875026,0.094835732,0.460537193,0.84364872
0.032852467,0.094771715,0.459781502,0.843500285
0.032830049,0.094707944,0.459030172,0.84335572
0.032807771,0.094644419,0.458283189,0.84321501
0.03278563,0.094581143,0.457540539,0.843078141
0.032763627,0.094518116,0.456802208,0.842945094
0.03274176,0.09445534,0.45606818,0.842815854
0.032720028,0.094392816,0.455338439,0.842690402
0.032698429,0.094330545,0.454612969,0.842568722
0.032676963,0.094268528,0.453891754,0.842450796
0.032655628,0.094206766,0.453174777,0.842336608
0.032634423,0.094145259,0.452462019,0.842226141
0.032613348,0.094084007,0.451753464,0.842119379
0.032592401,0.094023009,0.451049092,0.842016303
0.032571582,0.093962267,0.450348884,0.841916897
0.032550888,0.09390178,0.449652822,0.841821143
0.03253032,0.09384155,0.448960889,0.841729022
0.032509876,0.093781578,0.448273065,0.841640515
0.032489555,0.093721866,0.447589331,0.841555602
0.032469355,0.093662413,0.446909668,0.841474263
0.032449275,0.093603222,0.446234056,0.841396475
0.032429315,0.093544292,0.445562476,0.841322218
0.032409473,0.093485624,0.444894906,0.841251468
0.032389747,0.093427219,0.444231326,0.8411842
0.032370137,0.093369077,0.443571716,0.841120389
0.032350641,0.093311198,0.442916052,0.841060011
0.032331259,0.093253583,0.442264316,0.841003038
0.032311989,0.093196232,0.441616485,0.840949447
0.032292831,0.093139143,0.440972539,0.84089921
0.032273783,0.093082317,0.440332456,0.840852303
0.032254844,0.093025752,0.439696216,0.840808701
0.032236013,0.092969449,0.439063798,0.840768379
0.032217289,0.092913409,0.438435181,0.840731314
0.032198671,0.092857633,0.437810344,0.840697482
0.032180158,0.092802123,0.437189264,0.84066686
0.032161748,0.092746879,0.43657192,0.840639424
0.032143441,0.092691903,0.43595829,0.840615148
0.032125236,0.092637197,0.435348352,0.840594008
0.032107131,0.092582759,0.434742081,0.840575976
0.032089125,0.092528593,0.434139453,0.840561028
0.032071218,0.092474698,0.433540445,0.840549136
0.032053407,0.092421076,0.432945032,0.840540272
0.032035692,0.092367726,0.432353187,0.84053441
0.032018071,0.092314649,0.431764886,0.840531521
0.032000543,0.092261844,0.431180102,0.840531574
0.031983106,0.092209311,0.43059881,0.840534542
0.03196576,0.092157048,0.430020982,0.840540393
0.031948502,0.092105056,0.429446594,0.840549096
0.031931332,0.092053334,0.428875618,0.84056062
0.031914247,0.092001882,0.42830803,0.840574932
0.031897246,0.091950702,0.427743803,0.840592001
0.031880328,0.091899794,0.427182911,0.840611792
0.03186349,0.091849157,0.42662533,0.840634275
0.031846732,0.091798792,0.426071034,0.840659417
0.031830051,0.0917487,0.425519998,0.840687188
0.031813446,0.091698879,0.424972195,0.840717555
0.031796916,0.09164933,0.4244276,0.84075049
0.031780459,0.091600052,0.423886187,0.840785964
0.031764073,0.091551046,0.423347932,0.840823946
0.031747759,0.091502311,0.422812809,0.840864409
0.031731513,0.091453846,0.422280792,0.840907324
0.031715335,0.091405649,0.421751856,0.840952666
0.031699224,0.091357719,0.421225976,0.841000407
0.031683178,0.091310055,0.42070313,0.841050526
0.031667196,0.091262657,0.420183296,0.841102997
0.031651276,0.091215524,0.419666455,0.841157798
0.031635419,0.091168657,0.419152587,0.841214903
0.031619621,0.091122056,0.418641674,0.841274289
0.031603882,0.091075722,0.4181337,0.84133593
0.031588202,0.091029654,0.417628646,0.841399802
0.031572577,0.090983852,0.417126493,0.841465878
0.031557007,0.090938317,0.416627222,0.841534132
0.031541491,0.090893047,0.416130815,0.841604536
0.031526028,0.090848043,0.415637252,0.841677063
0.031510615,0.090803305,0.415146515,0.841751682
0.031495252,0.090758831,0.414658582,0.841828367
0.031479938,0.09071462,0.414173435,0.841907088
0.031464671,0.090670672,0.413691053,0.841987817
0.03144945,0.090626984,0.413211416,0.842070527
0.031434274,0.090583556,0.412734502,0.842155187
0.031419141,0.090540387,0.412260291,0.842241767
0.031404051,0.090497476,0.41178876,0.842330239
0.031389001,0.090454822,0.411319888,0.842420569
0.031373991,0.090412425,0.410853653,0.842512727
0.03135902,0.090370285,0.410390031,0.842606681
0.031344086,0.0903284,0.409928999,0.842702402
0.031329188,0.09028677,0.409470535,0.842799859
0.031314325,0.090245392,0.409014617,0.842899027
0.031299494,0.090204265,0.408561221,0.842999878
0.031284695,0.090163387,0.408110327,0.843102386
0.031269927,0.090122756,0.407661914,0.843206525
0.031255187,0.09008237,0.40721596,0.843312272
0.031240475,0.090042227,0.406772447,0.843419602
0.031225788,0.090002323,0.406331353,0.843528489
0.031211127,0.089962657,0.405892659,0.843638909
0.031196488,0.089923225,0.405456343,0.843750834
0.031181872,0.089884023,0.405022384,0.843864238
0.031167276,0.089845049,0.404590764,0.843979092
0.031152699,0.089806301,0.40416146,0.844095368
0.03113814,0.089767776,0.403734454,0.844213036
0.031123598,0.089729474,0.403309724,0.844332067
0.03110907,0.089691392,0.402887253,0.844452432
0.031094557,0.089653528,0.402467023,0.844574106
0.031080056,0.089615881,0.402049016,0.844697062
0.031065566,0.089578448,0.401633217,0.844821275
0.031051087,0.089541228,0.401219611,0.844946717
0.031036617,0.089504219,0.400808184,0.845073362
0.031022156,0.089467419,0.400398925,0.845201183
0.031007702,0.089430826,0.399991822,0.845330154
0.030993256,0.089394439,0.399586863,0.845460245
0.030978817,0.089358254,0.399184037,0.84559143
0.030964383,0.08932227,0.398783334,0.84572368
0.030949955,0.089286484,0.398384739,0.845856964
0.030935533,0.089250892,0.397988243,0.845991252
0.030921115,0.089215495,0.397593831,0.846126514
0.0309067,0.089180289,0.397201491,0.84626272
0.030892289,0.089145274,0.39681121,0.846399837
0.03087788,0.089110449,0.396422972,0.846537833
0.030863473,0.089075813,0.396036764,0.846676675
0.030849066,0.089041363,0.395652568,0.84681633
0.030834659,0.089007099,0.39527037,0.846956765
0.030820251,0.088973018,0.394890152,0.847097945
0.030805841,0.088939121,0.394511899,0.84723984
0.030791428,0.088905404,0.394135594,0.847382417
0.030777012,0.088871868,0.393761223,0.847525644
0.030762591,0.088838511,0.393388773,0.847669491
0.030748166,0.08880533,0.393018232,0.847813927
0.030733734,0.088772323,0.392649588,0.847958923
0.030719297,0.088739487,0.39228283,0.848104449
0.030704853,0.088706822,0.391917949,0.848250474
0.030690402,0.088674326,0.391554931,0.848396968
0.030675943,0.088641998,0.391193765,0.848543898
0.030661477,0.088609839,0.39083444,0.848691234
0.030647002,0.088577848,0.390476943,0.848838943
0.030632518,0.088546026,0.39012126,0.848986996
0.030618025,0.088514372,0.389767377,0.849135362
0.030603522,0.088482888,0.389415279,0.84928401
0.030589009,0.088451573,0.389064951,0.849432907
0.030574486,0.088420427,0.388716376,0.849582022
0.030559952,0.08838945,0.388369538,0.849731323
0.030545408,0.088358644,0.38802442,0.84988078
0.030530853,0.088328008,0.387681002,0.850030365
0.030516287,0.088297543,0.387339267,0.850180051
0.03050171,0.088267249,0.386999195,0.850329812
0.030487123,0.088237126,0.386660768,0.850479626
0.030472525,0.088207173,0.386323964,0.85062947
0.030457916,0.088177389,0.385988767,0.850779325
0.030443297,0.088147776,0.385655155,0.850929176
0.030428666,0.088118335,0.385323113,0.851079007
0.030414026,0.088089065,0.384992622,0.851228803
0.030399374,0.08805997,0.384663666,0.851378549
0.030384713,0.08803105,0.384336227,0.85152823
0.030370041,0.088002306,0.384010289,0.85167783
0.030355358,0.087973739,0.383685832,0.851827335
0.030340666,0.087945351,0.383362839,0.851976729
0.030325963,0.087917141,0.383041291,0.852125996
0.030311249,0.087889112,0.382721169,0.852275121
0.030296526,0.087861264,0.382402458,0.852424086
0.030281794,0.087833598,0.382085141,0.852572876
0.030267051,0.087806114,0.381769203,0.852721473
0.0302523,0.087778813,0.381454631,0.852869858
0.03023754,0.087751693,0.381141411,0.853018012
0.030222771,0.087724755,0.380829532,0.853165914
0.030207994,0.087697998,0.380518984,0.853313545
0.030193209,0.087671424,0.380209758,0.853460885
0.030178415,0.087645032,0.379901844,0.853607913
0.030163614,0.087618825,0.379595236,0.853754609
0.030148805,0.087592803,0.379289926,0.853900951
0.030133988,0.087566968,0.378985907,0.854046919
0.030119163,0.08754132,0.37868317,0.854192491
0.03010433,0.087515861,0.378381709,0.854337646
0.03008949,0.087490592,0.378081516,0.854482363
0.030074642,0.087465512,0.377782583,0.85462662
0.030059787,0.087440623,0.377484901,0.854770396
0.030044925,0.087415926,0.377188462,0.854913673
0.030030056,0.087391422,0.376893257,0.855056431
0.03001518,0.087367109,0.376599279,0.855198652
0.030000298,0.087342989,0.376306518,0.855340321
0.02998541,0.087319059,0.376014965,0.855481424
0.029970515,0.087295321,0.375724611,0.855621947
0.029955614,0.087271773,0.375435447,0.855761877
0.029940708,0.087248415,0.375147465,0.8559012
0.029925795,0.08722525,0.374860659,0.856039903
0.029910877,0.087202276,0.374575024,0.85617797
0.029895954,0.087179496,0.374290554,0.856315387
0.029881026,0.087156911,0.374007246,0.856452135
0.029866093,0.08713452,0.373725096,0.8565882
0.029851157,0.087112325,0.3734441,0.856723564
0.029836219,0.087090326,0.373164254,0.856858211
0.029821279,0.087068524,0.372885554,0.856992124
0.029806341,0.08704692,0.372607996,0.857125287
0.029791404,0.087025515,0.372331572,0.857257683
0.029776472,0.08700431,0.372056278,0.857389298
0.029761545,0.086983305,0.371782107,0.857520114
0.029746624,0.086962499,0.371509052,0.857650114
0.029731713,0.086941895,0.371237107,0.857779282
0.029716811,0.08692149,0.370966265,0.857907599
0.02970192,0.086901287,0.370696521,0.858035047
0.029687042,0.086881288,0.37042787,0.858161608
0.029672178,0.086861493,0.370160309,0.858287264
0.029657328,0.086841904,0.369893833,0.858411999
0.029642494,0.086822524,0.369628436,0.8585358
0.029627677,0.086803354,0.369364114,0.858658651
0.029612878,0.086784396,0.369100864,0.858780538
0.029598099,0.086765649,0.368838683,0.858901449
0.02958334,0.086747116,0.368577566,0.859021368
0.029568601,0.086728799,0.368317512,0.859140283
0.029553885,0.086710697,0.368058516,0.859258178
0.029539192,0.086692813,0.367800576,0.859375043
0.029524522,0.086675148,0.367543687,0.859490864
0.029509877,0.0866577,0.367287844,0.859605629
0.029495258,0.086640472,0.367033045,0.859719324
0.029480666,0.086623464,0.366779283,0.859831938
0.029466101,0.086606676,0.366526555,0.859943458
0.029451564,0.08659011,0.366274858,0.860053873
0.029437056,0.086573767,0.366024193,0.860163167
0.029422577,0.086557649,0.365774556,0.860271329
0.029408128,0.086541757,0.365525947,0.860378343
0.029393709,0.086526093,0.365278366,0.860484195
0.02937932,0.086510658,0.365031812,0.860588868
0.029364963,0.086495452,0.364786284,0.860692347
0.029350637,0.086480478,0.364541781,0.860794613
0.029336343,0.086465737,0.364298303,0.86089565
0.029322081,0.08645123,0.364055849,0.860995439
0.029307851,0.086436958,0.363814417,0.86109396
0.029293655,0.086422922,0.363574007,0.861191194
0.02927949,0.086409122,0.363334617,0.861287122
0.02926536,0.086395559,0.363096244,0.861381724
0.029251263,0.086382233,0.362858887,0.861474981
0.0292372,0.086369143,0.362622545,0.861566871
0.029223172,0.08635629,0.362387217,0.861657374
0.02920918,0.086343676,0.362152904,0.861746468
0.029195224,0.086331301,0.361919608,0.861834132
0.029181305,0.086319168,0.36168733,0.861920345
0.029167423,0.086307278,0.361456072,0.862005088
0.02915358,0.086295633,0.361225835,0.86208834
0.029139775,0.086284234,0.360996619,0.862170083
0.029126009,0.086273081,0.360768424,0.862250297
0.029112283,0.086262177,0.360541251,0.862328963
0.029098597,0.086251522,0.360315099,0.862406064
0.029084951,0.086241119,0.360089966,0.86248158
0.029071347,0.086230968,0.359865853,0.862555492
0.029057784,0.08622107,0.359642757,0.862627781
0.029044264,0.086211427,0.359420677,0.86269843
0.029030787,0.086202039,0.359199612,0.862767424
0.029017353,0.086192906,0.35897956,0.862834751
0.029003963,0.086184029,0.358760518,0.862900397
0.028990619,0.08617541,0.358542485,0.862964353
0.028977319,0.086167049,0.358325461,0.86302661
0.028964066,0.086158949,0.358109443,0.863087165
0.02895086,0.08615111,0.35789443,0.863146017
0.028937702,0.086143535,0.357680421,0.863203165
0.028924594,0.086136226,0.357467415,0.86325861
0.028911535,0.086129183,0.357255409,0.863312355
0.028898528,0.086122408,0.357044402,0.863364398
0.028885573,0.086115902,0.356834393,0.863414743
0.028872673,0.086109667,0.356625383,0.863463388
0.028859827,0.086103704,0.356417369,0.863510334
0.028847038,0.086098015,0.356210353,0.863555579
0.028834306,0.086092599,0.356004333,0.863599121
0.028821633,0.086087458,0.35579931,0.863640958
0.02880902,0.086082591,0.355595285,0.863681086
0.028796468,0.086077998,0.355392256,0.863719503
0.028783978,0.08607368,0.355190223,0.863756204
0.02877155,0.086069638,0.354989185,0.863791184
0.028759186,0.086065872,0.35478914,0.863824438
0.028746886,0.086062385,0.354590085,0.863855958
0.028734651,0.086059178,0.354392016,0.863885738
0.028722482,0.086056252,0.35419493,0.863913768
0.028710379,0.086053608,0.353998821,0.86394004
0.028698344,0.086051247,0.353803685,0.863964543
0.028686376,0.086049169,0.353609516,0.863987268
0.028674477,0.086047377,0.353416312,0.864008204
0.028662647,0.08604587,0.35322407,0.86402734
0.028650887,0.086044651,0.353032788,0.864044669
0.028639199,0.086043719,0.352842462,0.864060181
0.028627581,0.086043075,0.352653092,0.86407387
0.028616036,0.08604272,0.352464673,0.864085729
0.028604564,0.086042653,0.352277205,0.864095752
0.028593166,0.086042877,0.352090682,0.864103933
0.028581841,0.08604339,0.351905104,0.86411027
0.028570592,0.086044195,0.351720469,0.864114757
0.028559417,0.086045292,0.351536777,0.864117391
0.028548319,0.086046684,0.351354026,0.86411817
0.028537298,0.08604837,0.351172217,0.864117091
0.028526354,0.086050353,0.350991349,0.864114153
0.028515488,0.086052633,0.35081142,0.864109352
0.0285047,0.08605521,0.35063243,0.864102684
0.028493991,0.086058085,0.350454379,0.864094148
0.028483362,0.086061258,0.350277268,0.864083739
0.028472812,0.086064729,0.350101096,0.864071454
0.028462342,0.086068499,0.349925865,0.864057293
0.028451953,0.086072567,0.349751576,0.864041252
0.028441645,0.086076932,0.349578228,0.864023333
0.028431419,0.086081593,0.349405821,0.864003533
0.028421274,0.086086548,0.349234353,0.863981852
0.028411212,0.086091795,0.349063821,0.863958294
0.028401232,0.086097334,0.348894225,0.863932859
0.028391336,0.086103164,0.348725563,0.863905552
0.028381523,0.086109285,0.348557835,0.863876377
0.028371794,0.086115697,0.348391041,0.863845336
0.028362149,0.086122399,0.348225179,0.863812437
0.028352589,0.086129392,0.348060249,0.863777685
0.028343114,0.086136674,0.347896249,0.863741086
0.028333723,0.086144244,0.347733179,0.863702649
0.028324418,0.086152103,0.347571037,0.863662379
0.028315199,0.086160249,0.347409821,0.863620287
0.028306066,0.086168682,0.347249532,0.863576378
0.028297018,0.086177399,0.347090167,0.863530664
0.028288057,0.0861864,0.346931728,0.863483155
0.028279182,0.086195682,0.346774213,0.863433865
0.028270392,0.086205243,0.346617624,0.863382806
0.028261689,0.08621508,0.34646196,0.863329993
0.028253071,0.086225192,0.346307224,0.863275436
0.028244539,0.086235577,0.346153415,0.86321915
0.028236092,0.086246234,0.346000532,0.863161148
0.02822773,0.086257162,0.345848574,0.863101444
0.028219453,0.08626836,0.34569754,0.863040055
0.028211261,0.086279827,0.345547428,0.862976993
0.028203155,0.086291562,0.345398236,0.862912273
0.028195133,0.086303563,0.345249961,0.86284591
0.028187196,0.086315828,0.3451026,0.862777918
0.028179343,0.086328357,0.34495615,0.862708312
0.028171574,0.086341147,0.344810607,0.862637104
0.028163888,0.086354196,0.344665966,0.862564309
0.028156286,0.086367503,0.344522222,0.862489939
0.028148767,0.086381064,0.34437937,0.862414007
0.02814133,0.086394879,0.344237403,0.862336525
0.028133975,0.086408942,0.344096313,0.862257504
0.028126702,0.086423253,0.343956093,0.862176957
0.028119509,0.086437809,0.343816737,0.862094894
0.028112397,0.086452608,0.34367824,0.862011328
0.028105364,0.086467649,0.343540595,0.861926271
0.028098411,0.086482929,0.3434038,0.861839736
0.028091535,0.086498448,0.34326785,0.861751733
0.028084738,0.086514202,0.343132741,0.861662272
0.028078016,0.086530191,0.342998469,0.861571363
0.028071371,0.086546411,0.342865033,0.861479014
0.028064801,0.086562861,0.342732427,0.861385232
0.028058305,0.086579537,0.342600647,0.861290024
0.028051882,0.086596438,0.342469688,0.861193395
0.028045533,0.086613562,0.342339544,0.86109535
0.028039255,0.086630904,0.342210209,0.860995895
0.028033049,0.086648464,0.342081675,0.860895035
0.028026913,0.086666237,0.341953936,0.860792775
0.028020847,0.08668422,0.341826985,0.860689122
0.028014849,0.086702412,0.341700814,0.860584081
0.028008919,0.086720808,0.341575417,0.860477658
0.028003055,0.086739408,0.341450787,0.860369859
0.027997258,0.08675821,0.341326917,0.86026069
0.027991524,0.086777212,0.341203802,0.860150161
0.027985854,0.086796413,0.341081433,0.860038279
0.027980246,0.086815811,0.340959804,0.859925053
0.0279747,0.086835404,0.340838905,0.859810492
0.027969213,0.08685519,0.340718728,0.859694606
0.027963787,0.086875168,0.340599263,0.859577407
0.027958419,0.086895337,0.340480503,0.859458911
0.02795311,0.086915695,0.340362437,0.859339133
0.027947858,0.086936241,0.340245058,0.85921809
0.027942664,0.086956973,0.340128357,0.8590958
0.027937525,0.086977889,0.340012325,0.858972279
0.027932443,0.086998986,0.339896955,0.858847546
0.027927416,0.087020262,0.339782238,0.858721622
0.027922443,0.087041716,0.339668168,0.858594527
0.027917525,0.087063345,0.339554735,0.858466281
0.027912661,0.087085149,0.339441935,0.858336904
0.027907849,0.087107127,0.339329761,0.858206418
0.027903091,0.087129277,0.339218208,0.858074843
0.027898384,0.087151599,0.339107269,0.857942204
0.02789373,0.08717409,0.338996938,0.857808521
0.027889126,0.087196749,0.338887207,0.857673819
0.027884574,0.087219575,0.338778068,0.857538118
0.027880072,0.087242564,0.338669516,0.85740144
0.027875621,0.087265717,0.33856154,0.857263806
0.02787122,0.08728903,0.338454135,0.857125236
0.027866869,0.087312502,0.338347291,0.856985748
0.027862568,0.08733613,0.338241002,0.856845361
0.027858317,0.087359912,0.33813526,0.856704092
0.027854116,0.087383844,0.338030057,0.856561958
0.027849965,0.087407923,0.337925389,0.856418976
0.027845864,0.087432148,0.337821252,0.856275161
0.027841812,0.087456515,0.337717641,0.856130526
0.02783781,0.087481024,0.337614552,0.855985085
0.027833856,0.087505672,0.337511981,0.855838851
0.027829951,0.087530458,0.337409923,0.855691836
0.027826094,0.08755538,0.337308372,0.85554405
0.027822284,0.087580435,0.337207322,0.855395505
0.027818522,0.087605622,0.337106765,0.855246211
0.027814806,0.087630938,0.337006695,0.855096178
0.027811136,0.087656382,0.336907104,0.854945416
0.027807511,0.087681951,0.336807985,0.854793935
0.027803932,0.087707645,0.33670933,0.854641742
0.027800398,0.087733461,0.336611132,0.854488845
0.027796909,0.087759395,0.336513384,0.854335253
0.027793463,0.087785447,0.336416079,0.854180971
0.02779006,0.087811613,0.336319211,0.854026005
0.027786701,0.087837892,0.33622277,0.853870359
0.027783383,0.087864281,0.336126749,0.853714037
0.027780107,0.087890779,0.336031137,0.853557041
0.027776872,0.087917385,0.335935926,0.853399374
0.027773677,0.087944098,0.335841103,0.853241037
0.027770522,0.087970918,0.335746659,0.853082033
0.027767406,0.087997842,0.335652582,0.852922364
0.02776433,0.08802487,0.33555886,0.852762031
0.027761292,0.088052001,0.335465481,0.852601038
0.027758293,0.088079235,0.335372432,0.85243939
0.027755331,0.08810657,0.335279701,0.852277093
0.027752408,0.088134005,0.335187273,0.852114153
0.027749522,0.088161541,0.335095136,0.851950575
0.027746674,0.088189176,0.335003275,0.851786366
0.027743863,0.088216908,0.334911679,0.851621534
0.027741089,0.088244736,0.334820333,0.851456089
0.02773835,0.088272658,0.334729222,0.85129004
0.027735648,0.088300674,0.334638333,0.851123398
0.027732981,0.088328782,0.334547653,0.850956173
0.02773035,0.088356983,0.334457167,0.850788376
0.027727754,0.088385275,0.334366864,0.850620019
0.027725192,0.088413659,0.334276731,0.850451117
0.027722664,0.088442135,0.334186755,0.850281682
0.027720171,0.0884707,0.334096928,0.850111728
0.027717711,0.088499354,0.334007239,0.849941269
0.027715285,0.088528096,0.33391768,0.849770319
0.027712892,0.088556924,0.333828242,0.849598894
0.027710531,0.088585838,0.333738916,0.84942701
0.027708202,0.088614837,0.333649692,0.849254682
0.027705905,0.08864392,0.333560561,0.849081925
0.027703639,0.088673083,0.333471516,0.848908753
0.027701404,0.088702326,0.333382548,0.848735181
0.027699199,0.088731647,0.33329365,0.848561224
0.027697024,0.088761043,0.333204817,0.848386893
0.027694878,0.088790513,0.333116042,0.848212202
0.027692762,0.088820056,0.333027318,0.848037161
0.027690674,0.088849671,0.33293864,0.847861781
0.027688614,0.088879357,0.332850001,0.847686071
0.027686582,0.088909113,0.332761393,0.847510041
0.027684578,0.088938939,0.332672809,0.8473337
0.027682601,0.088968834,0.332584242,0.847157055
0.02768065,0.088998795,0.332495684,0.846980115
0.027678726,0.089028823,0.332407125,0.846802884
0.027676829,0.089058916,0.332318558,0.84662537
0.027674957,0.089089074,0.332229975,0.846447575
0.027673111,0.089119295,0.332141367,0.846269505
0.02767129,0.089149579,0.332052728,0.84609116
0.027669494,0.089179923,0.331964051,0.845912543
0.027667721,0.089210326,0.331875329,0.845733652
0.027665973,0.089240784,0.331786556,0.845554489
0.027664249,0.089271296,0.331697726,0.84537505
0.027662547,0.08930186,0.331608833,0.845195334
0.027660869,0.089332475,0.331519874,0.84501534
0.027659214,0.08936314,0.331430844,0.844835065
0.027657582,0.089393854,0.331341742,0.844654507
0.027655973,0.089424617,0.331252562,0.844473665
0.027654385,0.089455426,0.331163304,0.844292537
0.027652821,0.08948628,0.331073964,0.844111123
0.027651278,0.089517179,0.330984538,0.843929422
0.027649757,0.08954812,0.330895022,0.843747435
0.027648258,0.089579103,0.330805411,0.843565159
0.02764678,0.089610127,0.3307157,0.843382595
0.027645324,0.08964119,0.330625883,0.843199745
0.027643888,0.089672289,0.330535954,0.84301661
0.027642472,0.089703424,0.330445908,0.842833191
0.027641075,0.089734592,0.330355739,0.842649488
0.027639698,0.089765791,0.33026544,0.8424655
0.027638338,0.089797019,0.330175007,0.842281226
0.027636995,0.089828276,0.330084434,0.842096664
0.027635669,0.089859561,0.329993717,0.84191181
0.027634359,0.089890872,0.329902854,0.841726661
0.027633063,0.089922209,0.32981184,0.841541212
0.027631782,0.08995357,0.329720672,0.841355461
0.027630515,0.089984955,0.329629345,0.841169404
0.02762926,0.09001636,0.329537857,0.840983041
0.027628018,0.090047786,0.329446205,0.840796371
0.027626787,0.090079231,0.329354386,0.840609395
0.027625566,0.090110694,0.329262398,0.840422114
0.027624356,0.090142174,0.329170236,0.840234528
0.027623154,0.090173668,0.329077898,0.840046642
0.027621961,0.090205175,0.328985381,0.839858461
0.027620776,0.090236693,0.328892685,0.839669995
0.027619597,0.090268219,0.328799807,0.839481253
0.027618424,0.090299752,0.328706749,0.839292245
0.027617257,0.090331289,0.328613509,0.839102979
0.027616094,0.09036283,0.328520089,0.838913464
0.027614934,0.090394373,0.328426487,0.838723709
0.027613777,0.090425919,0.328332702,0.838533722
0.027612621,0.090457465,0.328238734,0.838343509
0.027611465,0.090489012,0.32814458,0.838153075
0.027610308,0.090520557,0.328050239,0.837962428
0.02760915,0.090552101,0.327955707,0.837771573
0.027607988,0.090583642,0.327860981,0.837580514
0.027606822,0.090615179,0.327766057,0.837389256
0.027605652,0.090646712,0.327670932,0.837197805
0.027604476,0.090678238,0.327575601,0.837006166
0.027603293,0.090709756,0.327480059,0.836814341
0.027602103,0.090741264,0.327384303,0.836622336
0.027600905,0.090772762,0.327288329,0.836430154
0.027599698,0.090804246,0.327192134,0.836237798
0.02759848,0.090835715,0.327095713,0.83604527
0.027597252,0.090867168,0.326999065,0.835852575
0.027596012,0.090898603,0.326902188,0.835659715
0.027594759,0.090930021,0.326805081,0.835466695
0.027593493,0.09096142,0.326707746,0.83527352
0.027592212,0.090992799,0.326610183,0.835080196
0.027590916,0.091024157,0.326512395,0.834886731
0.027589603,0.091055493,0.326414382,0.834693133
0.027588272,0.091086806,0.326316147,0.834499407
0.027586924,0.091118093,0.326217691,0.83430556
0.027585556,0.091149355,0.326119017,0.834111595
0.027584168,0.091180589,0.326020125,0.833917519
0.027582759,0.091211794,0.325921018,0.833723336
0.027581329,0.091242968,0.325821696,0.833529051
0.027579877,0.091274109,0.325722161,0.833334668
0.027578402,0.091305215,0.325622414,0.833140191
0.027576904,0.091336283,0.325522456,0.832945621
0.027575382,0.091367312,0.325422286,0.83275096
0.027573835,0.091398301,0.325321907,0.83255621
0.027572263,0.091429247,0.32522132,0.832361371
0.027570666,0.091460149,0.325120528,0.832166444
0.027569044,0.091491007,0.325019533,0.83197143
0.027567395,0.091521818,0.324918338,0.83177633
0.027565719,0.09155258,0.324816945,0.831581145
0.027564016,0.091583293,0.324715357,0.831385876
0.027562287,0.091613953,0.324613577,0.831190522
0.02756053,0.091644559,0.324511609,0.830995086
0.027558746,0.091675109,0.324409456,0.830799568
0.027556933,0.091705601,0.324307122,0.830603969
0.027555093,0.091736033,0.32420461,0.830408288
0.027553224,0.091766403,0.324101924,0.830212525
0.027551326,0.091796707,0.323999067,0.830016679
0.027549399,0.091826942,0.323896042,0.829820747
0.027547442,0.091857108,0.32379285,0.829624727
0.027545454,0.0918872,0.323689493,0.829428615
0.027543435,0.091917219,0.323585972,0.829232409
0.027541384,0.091947163,0.323482289,0.829036103
0.027539301,0.091977031,0.323378445,0.828839694
0.027537185,0.092006822,0.323274441,0.828643175
0.027535036,0.092036535,0.323170279,0.828446542
0.027532853,0.092066168,0.32306596,0.828249787
0.027530636,0.092095721,0.322961487,0.828052903
0.027528383,0.092125192,0.322856859,0.827855883
0.027526095,0.09215458,0.32275208,0.82765872
0.027523771,0.092183885,0.322647148,0.827461406
0.02752141,0.092213105,0.322542065,0.827263934
0.027519012,0.092242237,0.322436831,0.827066295
0.027516576,0.092271282,0.322331446,0.826868481
0.027514102,0.092300235,0.322225911,0.826670483
0.027511589,0.092329095,0.322120227,0.82647229
0.027509037,0.09235786,0.322014393,0.826273895
0.027506444,0.09238653,0.32190841,0.82607529
0.027503811,0.092415103,0.321802277,0.825876469
0.027501136,0.092443581,0.321695994,0.825677424
0.02749842,0.092471961,0.321589562,0.825478148
0.027495661,0.092500245,0.321482982,0.825278636
0.02749286,0.09252843,0.321376254,0.825078882
0.027490015,0.092556517,0.321269378,0.824878884
0.027487126,0.092584505,0.321162357,0.824678637
0.027484192,0.092612393,0.321055189,0.824478139
0.027481212,0.09264018,0.320947875,0.824277385
0.027478186,0.092667866,0.320840414,0.824076369
0.027475114,0.09269545,0.320732804,0.823875085
0.027471993,0.092722931,0.320625044,0.823673526
0.027468824,0.092750307,0.320517131,0.823471684
0.027465606,0.092777577,0.320409065,0.823269552
0.027462338,0.092804739,0.320300842,0.823067121
0.027459018,0.092831793,0.320192462,0.822864381
0.027455647,0.092858736,0.320083924,0.822661323
0.027452222,0.092885569,0.319975227,0.822457936
0.027448744,0.092912291,0.319866372,0.822254214
0.027445211,0.092938902,0.319757359,0.822050147
0.027441623,0.092965403,0.31964819,0.821845732
0.027437978,0.092991793,0.319538868,0.821640964
0.027434276,0.093018071,0.319429394,0.82143584
0.027430515,0.093044238,0.319319769,0.821230356
0.027426694,0.093070293,0.319209993,0.821024517
0.027422814,0.093096236,0.319100065,0.820818325
0.027418872,0.093122069,0.318989985,0.820611791
0.027414869,0.09314779,0.318879752,0.820404921
0.027410803,0.093173399,0.318769365,0.820197725
0.027406673,0.093198896,0.318658821,0.819990212
0.027402479,0.09322428,0.318548119,0.819782391
0.02739822,0.09324955,0.318437256,0.819574269
0.027393894,0.093274707,0.318326229,0.819365854
0.027389502,0.093299751,0.318215035,0.819157152
0.02738504,0.093324682,0.318103673,0.818948168
0.02738051,0.093349501,0.317992138,0.818738908
0.027375908,0.093374209,0.317880428,0.818529376
0.027371235,0.093398805,0.317768537,0.818319577
0.027366488,0.093423292,0.317656463,0.818109518
0.027361667,0.093447668,0.317544201,0.817899201
0.027356771,0.093471934,0.317431748,0.817688633
0.027351798,0.093496091,0.3173191,0.817477815
0.027346747,0.09352014,0.317206253,0.817266752
0.027341618,0.09354408,0.317093201,0.817055445
0.027336409,0.093567912,0.31697994,0.8168439
0.027331119,0.093591635,0.316866464,0.81663212
0.027325746,0.093615248,0.316752768,0.816420111
0.02732029,0.093638751,0.316638847,0.816207877
0.027314749,0.093662143,0.316524696,0.815995423
0.027309122,0.093685425,0.316410311,0.815782755
0.027303408,0.093708597,0.316295685,0.815569881
0.027297606,0.093731658,0.316180816,0.815356811
0.027291714,0.093754611,0.316065699,0.815143554
0.027285731,0.093777455,0.315950331,0.814930124
0.027279656,0.09380019,0.315834706,0.814716532
0.027273488,0.093822818,0.315718822,0.81450279
0.027267226,0.093845337,0.315602673,0.814288909
0.027260868,0.093867748,0.315486253,0.814074898
0.027254414,0.093890052,0.315369557,0.813860768
0.027247862,0.093912249,0.31525258,0.813646528
0.027241212,0.093934339,0.315135314,0.813432187
0.027234464,0.093956322,0.315017752,0.813217753
0.027227615,0.093978198,0.314899887,0.813003232
0.027220666,0.093999967,0.314781712,0.812788633
0.027213615,0.094021628,0.314663219,0.812573959
0.027206463,0.094043181,0.314544401,0.812359216
0.027199208,0.094064628,0.314425256,0.812144408
0.027191851,0.094085968,0.314305777,0.811929538
0.02718439,0.094107203,0.314185965,0.811714611
0.027176825,0.094128333,0.314065816,0.81149963
0.027169155,0.094149359,0.313945329,0.811284597
0.027161379,0.09417028,0.313824504,0.811069518
0.027153498,0.094191098,0.313703339,0.810854394
0.02714551,0.094211812,0.313581836,0.810639231
0.027137414,0.094232423,0.313459994,0.810424032
0.027129211,0.094252931,0.313337813,0.810208802
0.0271209,0.094273336,0.313215291,0.809993544
0.027112479,0.094293638,0.313092427,0.809778264
0.02710395,0.094313837,0.312969218,0.809562969
0.02709531,0.094333932,0.312845661,0.809347664
0.027086559,0.094353921,0.312721752,0.809132354
0.027077697,0.094373806,0.312597487,0.808917044
0.027068724,0.094393585,0.312472862,0.808701737
0.027059638,0.094413259,0.312347873,0.808486437
0.02705044,0.094432828,0.312222515,0.808271147
0.027041129,0.094452291,0.312096782,0.808055869
0.027031704,0.094471651,0.31197067,0.807840607
0.027022166,0.094490904,0.311844176,0.807625363
0.027012513,0.094510052,0.311717293,0.807410142
0.027002746,0.094529093,0.311590016,0.807194946
0.026992865,0.094548025,0.311462341,0.80697978
0.026982869,0.094566849,0.311334263,0.806764647
0.026972759,0.094585563,0.311205775,0.806549552
0.026962534,0.094604167,0.311076874,0.806334503
0.026952195,0.094622661,0.310947556,0.806119512
0.026941741,0.094641042,0.310817817,0.805904592
0.026931174,0.094659311,0.310687655,0.805689758
0.026920492,0.094677467,0.310557066,0.805475027
0.026909696,0.09469551,0.310426052,0.80526042
0.026898787,0.094713439,0.310294615,0.805045962
0.026887763,0.094731255,0.310162758,0.804831681
0.026876626,0.09474896,0.310030489,0.804617602
0.026865375,0.094766552,0.309897812,0.804403753
0.026854011,0.094784033,0.309764737,0.804190159
0.026842532,0.094801404,0.30963127,0.803976845
0.02683094,0.094818663,0.30949742,0.803763836
0.026819235,0.094835811,0.309363192,0.803551157
0.026807415,0.09485285,0.309228593,0.803338832
0.026795483,0.094869779,0.309093628,0.803126884
0.026783437,0.094886598,0.308958301,0.802915335
0.026771278,0.094903309,0.308822618,0.802704207
0.026759007,0.094919911,0.308686582,0.80249352
0.026746622,0.094936403,0.308550197,0.802283292
0.026734126,0.094952787,0.308413466,0.802073544
0.026721518,0.09496906,0.308276392,0.801864292
0.026708799,0.094985223,0.308138982,0.801655555
0.02669597,0.095001277,0.308001239,0.801447347
0.026683031,0.095017222,0.307863168,0.801239684
0.026669983,0.09503306,0.307724776,0.801032581
0.026656827,0.095048791,0.307586066,0.800826051
0.026643564,0.095064415,0.307447043,0.800620108
0.026630193,0.095079934,0.307307712,0.800414761
0.026616716,0.095095347,0.307168076,0.800210023
0.026603133,0.095110654,0.307028142,0.800005902
0.026589446,0.095125857,0.306887916,0.799802407
0.026575653,0.095140956,0.306747403,0.799599547
0.026561757,0.095155949,0.306606609,0.79939733
0.026547757,0.095170838,0.30646554,0.799195762
0.026533655,0.095185621,0.306324203,0.79899485
0.026519451,0.095200296,0.306182602,0.798794599
0.026505145,0.095214864,0.306040742,0.798595013
0.026490737,0.095229324,0.305898626,0.798396097
0.026476228,0.095243674,0.305756259,0.798197853
0.026461619,0.095257916,0.305613642,0.798000282
0.02644691,0.095272048,0.305470778,0.797803387
0.0264321,0.095286072,0.305327672,0.797607166
0.026417191,0.095299988,0.305184325,0.797411619
0.026402183,0.095313795,0.30504074,0.797216744
0.026387076,0.095327492,0.304896919,0.797022538
0.026371871,0.09534108,0.304752866,0.796828998
0.026356569,0.095354557,0.304608581,0.796636119
0.026341169,0.095367923,0.304464067,0.796443896
0.026325672,0.095381178,0.304319325,0.796252325
0.026310079,0.095394321,0.304174358,0.796061398
0.026294391,0.09540735,0.304029168,0.79587111
0.026278606,0.095420263,0.303883756,0.795681455
0.026262726,0.095433061,0.303738125,0.795492426
0.026246751,0.09544574,0.303592278,0.795304017
0.026230682,0.095458299,0.303446218,0.795116223
0.026214519,0.095470738,0.30329995,0.794929036
0.026198262,0.095483056,0.303153477,0.794742453
0.026181912,0.095495253,0.303006803,0.794556467
0.026165469,0.095507327,0.302859933,0.794371074
0.026148934,0.095519279,0.30271287,0.794186267
0.026132308,0.095531108,0.302565619,0.794002039
0.026115591,0.095542811,0.302418182,0.793818382
0.026098783,0.095554388,0.302270562,0.79363529
0.026081885,0.095565837,0.302122765,0.793452754
0.026064898,0.095577157,0.301974796,0.79327077
0.026047822,0.095588347,0.301826661,0.79308933
0.026030657,0.095599406,0.301678365,0.792908429
0.026013405,0.095610332,0.301529914,0.792728063
0.025996067,0.095621125,0.301381315,0.792548226
0.025978644,0.095631781,0.301232573,0.792368913
0.025961136,0.095642301,0.301083694,0.79219012
0.025943545,0.095652684,0.300934682,0.792011845
0.025925873,0.095662928,0.300785544,0.791834086
0.025908119,0.095673036,0.300636285,0.791656842
0.025890285,0.095683007,0.300486914,0.791480111
0.025872373,0.095692842,0.300337439,0.791303893
0.025854383,0.095702542,0.30018787,0.791128187
0.025836316,0.095712107,0.300038215,0.790952991
0.025818174,0.095721538,0.299888483,0.790778303
0.025799957,0.095730836,0.299738683,0.790604123
0.025781666,0.095740002,0.299588825,0.790430447
0.025763303,0.095749036,0.299438918,0.790257272
0.025744867,0.095757939,0.299288973,0.790084594
0.02572636,0.095766712,0.299138998,0.789912409
0.025707783,0.095775355,0.298989003,0.789740713
0.025689136,0.095783867,0.298838994,0.789569503
0.025670421,0.095792248,0.298688981,0.789398778
0.025651639,0.095800499,0.298538971,0.789228541
0.025632791,0.095808618,0.298388974,0.789058792
0.025613879,0.095816608,0.298239,0.788889536
0.025594903,0.095824469,0.298089059,0.788720775
0.025575866,0.095832202,0.297939163,0.788552515
0.025556768,0.095839808,0.297789322,0.788384763
0.025537613,0.095847286,0.297639545,0.788217528
0.025518402,0.095854639,0.297489844,0.788050816
0.025499137,0.095861865,0.29734023,0.787884633
0.025479819,0.095868967,0.297190715,0.787718986
0.025460451,0.095875944,0.297041311,0.787553881
0.025441035,0.095882797,0.296892028,0.787389322
0.025421572,0.095889527,0.296742876,0.787225313
0.025402066,0.095896134,0.296593864,0.78706186
0.025382517,0.095902618,0.296445001,0.786898964
0.025362927,0.095908978,0.296296294,0.786736629
0.0253433,0.095915216,0.296147752,0.786574858
0.025323637,0.09592133,0.295999383,0.786413654
0.02530394,0.095927323,0.295851194,0.786253017
0.02528421,0.095933195,0.295703195,0.78609295
0.02526445,0.095938949,0.295555393,0.785933452
0.025244662,0.095944586,0.295407795,0.785774527
0.025224847,0.095950106,0.295260412,0.785616174
0.025205006,0.095955511,0.295113251,0.785458395
0.025185142,0.095960801,0.294966321,0.785301191
0.025165257,0.095965978,0.294819633,0.785144563
0.025145351,0.095971043,0.294673196,0.784988508
0.025125427,0.095975997,0.294527017,0.784833025
0.025105486,0.095980841,0.294381105,0.784678111
0.02508553,0.095985575,0.294235469,0.784523762
0.025065561,0.0959902,0.294090115,0.784369977
0.02504558,0.095994717,0.293945052,0.784216751
0.025025587,0.095999124,0.293800287,0.784064079
0.025005586,0.096003423,0.293655831,0.783911957
0.024985577,0.096007612,0.293511693,0.783760378
0.024965561,0.096011694,0.293367883,0.783609335
0.024945539,0.096015669,0.293224411,0.783458821
0.024925513,0.096019539,0.293081286,0.783308826
0.024905484,0.096023303,0.292938515,0.783159342
0.024885453,0.096026965,0.292796108,0.783010359
0.02486542,0.096030523,0.29265407,0.782861869
0.024845387,0.09603398,0.292512408,0.782713864
0.024825355,0.096037337,0.292371129,0.782566338
0.024805325,0.096040595,0.292230239,0.782419281
0.024785296,0.096043754,0.292089743,0.782272685
0.024765271,0.096046816,0.291949647,0.782126542
0.02474525,0.09604978,0.291809954,0.78198084
0.024725235,0.096052647,0.291670669,0.781835572
0.024705225,0.096055415,0.291531795,0.781690725
0.024685223,0.096058086,0.291393336,0.781546289
0.024665228,0.096060657,0.291255296,0.781402253
0.024645242,0.096063131,0.29111768,0.781258606
0.024625266,0.096065508,0.290980491,0.781115336
0.024605301,0.09606779,0.290843736,0.78097243
0.024585348,0.096069977,0.290707419,0.780829877
0.024565407,0.09607207,0.290571545,0.780687662
0.02454548,0.096074072,0.290436122,0.780545773
0.024525568,0.096075981,0.290301154,0.780404197
0.024505672,0.096077799,0.290166648,0.780262922
0.024485793,0.096079527,0.290032611,0.780121935
0.024465932,0.096081165,0.289899049,0.779981224
0.02444609,0.096082714,0.289765968,0.779840776
0.024426268,0.096084174,0.289633375,0.779700579
0.024406469,0.096085546,0.289501277,0.77956062
0.024386691,0.096086831,0.289369683,0.779420888
0.024366938,0.096088026,0.289238601,0.779281372
0.02434721,0.096089133,0.289108041,0.779142062
0.024327507,0.096090152,0.288978012,0.77900295
0.024307832,0.096091084,0.288848522,0.778864027
0.024288185,0.09609193,0.288719581,0.778725283
0.024268568,0.096092692,0.288591198,0.778586707
0.024248982,0.096093372,0.288463383,0.778448289
0.024229427,0.096093972,0.288336143,0.778310019
0.024209905,0.096094494,0.288209486,0.778171883
0.024190417,0.096094939,0.288083419,0.778033872
0.024170965,0.096095308,0.287957949,0.777895972
0.024151548,0.096095605,0.287833083,0.777758172
0.024132169,0.096095831,0.287708825,0.777620459
0.024112828,0.096095987,0.287585184,0.777482821
0.024093528,0.096096075,0.287462162,0.777345244
0.02407427,0.096096096,0.287339766,0.777207715
0.024055054,0.096096051,0.287217998,0.777070223
0.024035882,0.09609594,0.287096862,0.776932757
0.024016756,0.096095764,0.286976362,0.776795306
0.023997676,0.096095525,0.2868565,0.776657858
0.023978642,0.096095223,0.286737277,0.776520404
0.023959657,0.09609486,0.286618699,0.776382933
0.023940721,0.096094438,0.286500767,0.776245436
0.023921835,0.096093957,0.286383485,0.776107903
0.023903,0.096093419,0.286266856,0.775970325
0.023884215,0.096092825,0.286150881,0.775832692
0.023865482,0.096092176,0.286035564,0.775694996
0.023846802,0.096091471,0.285920904,0.775557226
0.023828175,0.096090713,0.285806903,0.775419377
0.023809603,0.096089902,0.285693559,0.775281439
0.023791085,0.096089039,0.285580873,0.775143405
0.023772623,0.096088124,0.285468843,0.775005269
0.023754217,0.096087158,0.28535747,0.774867024
0.023735869,0.09608614,0.285246752,0.774728663
0.023717579,0.09608507,0.285136689,0.77459018
0.023699348,0.09608395,0.285027281,0.774451571
0.023681177,0.09608278,0.284918531,0.77431283
0.023663066,0.096081562,0.284810438,0.774173955
0.023645016,0.096080297,0.284703005,0.774034944
0.023627028,0.096078986,0.284596231,0.773895798
0.023609104,0.096077631,0.284490117,0.773756518
0.023591244,0.096076234,0.284384664,0.773617105
0.02357345,0.096074795,0.284279875,0.773477561
0.023555722,0.096073315,0.284175752,0.773337887
0.023538063,0.096071798,0.284072301,0.773198082
0.023520473,0.096070243,0.283969523,0.773058149
0.023502953,0.096068652,0.283867423,0.772918091
0.023485504,0.096067027,0.283766003,0.772777908
0.023468128,0.096065369,0.283665265,0.772637605
0.023450825,0.096063678,0.283565209,0.772497182
0.023433596,0.096061955,0.283465837,0.772356643
0.023416443,0.096060201,0.283367148,0.772215991
0.023399365,0.096058416,0.283269144,0.772075227
0.023382364,0.096056603,0.283171827,0.771934353
0.02336544,0.096054762,0.283075199,0.77179337
0.023348595,0.096052896,0.282979263,0.771652277
0.023331828,0.096051007,0.282884021,0.771511075
0.023315141,0.096049095,0.282789475,0.77136976
0.023298534,0.096047162,0.282695626,0.771228333
0.023282009,0.09604521,0.282602475,0.771086791
0.023265566,0.096043238,0.282510023,0.770945132
0.023249206,0.09604125,0.282418271,0.770803356
0.02323293,0.096039245,0.28232722,0.770661459
0.023216739,0.096037225,0.28223687,0.770519441
0.023200635,0.096035191,0.282147223,0.7703773
0.023184618,0.096033141,0.282058282,0.770235032
0.023168688,0.096031077,0.281970048,0.770092635
0.023152849,0.096028998,0.281882524,0.769950106
0.023137099,0.096026905,0.281795714,0.769807441
0.023121441,0.096024796,0.281709623,0.769664637
0.023105875,0.096022674,0.281624254,0.769521689
0.023090403,0.096020539,0.281539615,0.769378593
0.023075026,0.096018392,0.281455711,0.769235346
0.023059745,0.096016236,0.281372547,0.769091943
0.023044561,0.096014071,0.281290129,0.768948379
0.023029475,0.096011897,0.281208462,0.768804649
0.023014488,0.096009718,0.281127548,0.768660748
0.022999601,0.096007534,0.281047392,0.768516673
0.022984815,0.096005347,0.280967997,0.768372419
0.022970132,0.096003157,0.280889363,0.768227983
0.022955552,0.096000966,0.280811493,0.76808336
0.022941076,0.095998774,0.280734389,0.767938548
0.022926705,0.095996581,0.280658049,0.767793543
0.02291244,0.095994387,0.280582477,0.767648344
0.022898282,0.095992192,0.280507673,0.767502949
0.022884231,0.095989997,0.28043364,0.767357355
0.022870287,0.095987802,0.280360382,0.767211561
0.022856452,0.095985608,0.280287902,0.767065566
0.022842725,0.095983415,0.280216201,0.766919368
0.022829108,0.095981225,0.280145283,0.766772966
0.022815601,0.095979038,0.28007515,0.766626357
0.022802205,0.095976856,0.280005803,0.766479538
0.02278892,0.095974678,0.279937244,0.766332509
0.022775746,0.095972506,0.279869478,0.766185268
0.022762685,0.095970341,0.279802507,0.766037816
0.022749737,0.095968184,0.279736334,0.765890154
0.022736903,0.095966037,0.279670965,0.765742286
0.022724183,0.095963899,0.279606401,0.765594218
0.022711578,0.095961772,0.279542649,0.765445959
0.022699087,0.095959655,0.279479712,0.765297517
0.022686712,0.095957549,0.279417594,0.765148901
0.022674454,0.095955453,0.279356299,0.765000118
0.022662311,0.095953368,0.279295832,0.764851175
0.022650285,0.095951295,0.279236196,0.764702078
0.022638375,0.095949235,0.279177393,0.764552834
0.022626583,0.095947189,0.279119428,0.764403447
0.022614907,0.095945159,0.279062302,0.764253921
0.022603348,0.095943146,0.279006016,0.76410426
0.022591906,0.095941151,0.278950573,0.763954468
0.022580582,0.095939173,0.278895973,0.763804546
0.022569374,0.095937214,0.278842217,0.763654495
0.022558284,0.095935275,0.278789306,0.763504318
0.022547312,0.095933354,0.278737242,0.763354011
0.022536458,0.095931453,0.278686025,0.763203576
0.022525721,0.095929572,0.278635656,0.76305301
0.022515104,0.095927709,0.278586135,0.762902312
0.022504605,0.095925865,0.278537463,0.762751482
0.022494224,0.095924039,0.278489639,0.762600519
0.022483962,0.095922231,0.278442662,0.762449424
0.022473818,0.095920439,0.278396536,0.762298194
0.022463793,0.095918665,0.278351261,0.762146832
0.022453886,0.095916909,0.278306844,0.761995339
0.022444097,0.095915172,0.278263288,0.761843717
0.022434426,0.095913454,0.278220599,0.761691972
0.022424873,0.095911756,0.278178782,0.761540109
0.022415437,0.095910077,0.27813784,0.761388131
0.022406119,0.09590842,0.278097778,0.761236044
0.022396918,0.095906782,0.2780586,0.761083849
0.022387835,0.095905166,0.278020313,0.76093155
0.022378869,0.095903572,0.277982923,0.760779147
0.02237002,0.095901998,0.277946437,0.760626642
0.022361287,0.095900446,0.277910859,0.760474034
0.02235267,0.095898915,0.277876194,0.760321323
0.02234417,0.095897403,0.277842444,0.760168509
0.022335784,0.09589591,0.277809614,0.760015593
0.022327513,0.095894436,0.277777704,0.759862577
0.022319356,0.095892981,0.277746716,0.75970946
0.022311312,0.095891544,0.277716649,0.759556242
0.02230338,0.095890126,0.277687503,0.759402922
0.02229556,0.095888728,0.277659279,0.759249498
0.02228785,0.095887349,0.277631974,0.75909597
0.02228025,0.09588599,0.277605589,0.758942335
0.022272759,0.095884651,0.277580122,0.758788593
0.022265377,0.095883332,0.277555573,0.758634742
0.022258104,0.095882035,0.277531939,0.758480782
0.022250938,0.095880759,0.277509219,0.758326715
0.02224388,0.095879505,0.27748741,0.758172541
0.02223693,0.095878272,0.277466512,0.758018261
0.022230088,0.095877062,0.277446522,0.757863877
0.022223353,0.095875871,0.277427437,0.757709392
0.022216725,0.0958747,0.277409255,0.757554808
0.022210205,0.095873548,0.277391971,0.757400127
0.022203793,0.095872413,0.277375583,0.757245355
0.022197488,0.095871297,0.27736009,0.757090494
0.022191291,0.0958702,0.277345492,0.756935549
0.022185202,0.095869122,0.277331791,0.756780524
0.02217922,0.095868065,0.277318987,0.756625421
0.022173347,0.095867029,0.277307081,0.756470242
0.022167582,0.095866015,0.277296075,0.75631499
0.022161925,0.095865022,0.277285969,0.756159664
0.022156376,0.095864053,0.277276765,0.756004265
0.022150936,0.095863106,0.277268463,0.755848794
0.022145604,0.095862184,0.277261063,0.75569325
0.022140381,0.095861285,0.277254565,0.755537633
0.022135267,0.095860411,0.277248967,0.75538194
0.022130262,0.09585956,0.277244267,0.755226173
0.022125367,0.095858733,0.277240461,0.755070328
0.022120581,0.095857927,0.277237547,0.754914407
0.022115904,0.095857143,0.277235519,0.754758406
0.022111337,0.095856381,0.277234373,0.754602326
0.02210688,0.09585564,0.277234104,0.754446162
0.022102532,0.095854922,0.27723471,0.754289915
0.022098294,0.095854227,0.277236186,0.754133582
0.022094165,0.095853555,0.277238531,0.753977166
0.022090146,0.095852907,0.277241742,0.753820665
0.022086235,0.095852282,0.277245815,0.753664079
0.022082433,0.09585168,0.277250745,0.753507407
0.022078738,0.095851101,0.277256527,0.753350649
0.022075152,0.095850544,0.277263156,0.753193802
0.022071674,0.09585001,0.277270627,0.753036868
0.022068303,0.095849497,0.277278936,0.752879846
0.02206504,0.095849004,0.277288078,0.752722737
0.022061883,0.095848532,0.277298049,0.75256554
0.022058833,0.095848079,0.277308845,0.752408258
0.02205589,0.095847643,0.27732046,0.75225089
0.022053053,0.095847225,0.27733289,0.752093439
0.022050322,0.095846824,0.277346129,0.751935905
0.022047696,0.095846439,0.277360175,0.75177829
0.022045176,0.095846072,0.277375022,0.751620593
0.022042761,0.095845722,0.277390665,0.751462815
0.02204045,0.095845389,0.277407098,0.751304956
0.022038243,0.095845073,0.277424314,0.751147015
0.022036138,0.095844774,0.277442309,0.750988991
0.022034136,0.095844492,0.277461073,0.750830883
0.022032235,0.095844226,0.277480601,0.750672689
0.022030435,0.095843977,0.277500887,0.750514413
0.022028734,0.095843744,0.277521923,0.750356056
0.022027133,0.095843528,0.277543705,0.750197623
0.022025631,0.095843327,0.277566226,0.750039119
0.022024226,0.095843142,0.27758948,0.749880551
0.022022918,0.09584297,0.277613461,0.749721927
0.022021707,0.095842812,0.277638162,0.749563255
0.022020591,0.095842666,0.27766358,0.749404546
0.022019569,0.095842534,0.27768971,0.749245805
0.022018642,0.095842416,0.277716547,0.74908704
0.022017808,0.095842312,0.277744089,0.748928257
0.022017066,0.095842224,0.277772331,0.748769463
0.022016414,0.09584215,0.277801267,0.748610662
0.022015853,0.095842093,0.277830896,0.748451861
0.022015381,0.095842051,0.277861211,0.748293063
0.022014997,0.095842026,0.277892208,0.748134274
0.022014701,0.095842017,0.277923882,0.747975499
0.02201449,0.095842026,0.277956227,0.747816744
0.022014364,0.095842052,0.277989235,0.747658015
0.022014323,0.095842095,0.2780229,0.747499318
0.022014364,0.095842155,0.278057214,0.747340663
0.022014487,0.09584223,0.27809217,0.747182056
0.022014691,0.095842319,0.27812776,0.747023508
0.022014975,0.095842422,0.278163977,0.74686503
0.022015339,0.095842538,0.278200813,0.746706632
0.022015781,0.095842667,0.27823826,0.746548326
0.022016302,0.095842809,0.278276311,0.746390121
0.022016899,0.095842963,0.278314956,0.746232029
0.022017574,0.09584313,0.278354188,0.74607406
0.022018323,0.09584331,0.278393997,0.745916226
0.022019148,0.0958435,0.278434372,0.745758539
0.022020047,0.095843701,0.278475304,0.745601009
0.022021019,0.095843912,0.278516783,0.745443647
0.022022063,0.095844132,0.278558798,0.745286464
0.022023179,0.095844359,0.27860134,0.74512947
0.022024365,0.095844592,0.278644397,0.744972673
0.022025621,0.095844831,0.278687959,0.744816085
0.022026947,0.095845071,0.278732013,0.744659717
0.02202834,0.095845312,0.278776547,0.744503578
0.022029801,0.095845552,0.278821548,0.744347677
0.022031329,0.095845787,0.278867005,0.744192022
0.022032923,0.095846018,0.278912904,0.744036622
0.022034582,0.095846243,0.278959234,0.743881484
0.022036306,0.095846462,0.279005983,0.743726613
0.022038094,0.095846674,0.279053139,0.743572015
0.022039945,0.095846879,0.279100691,0.743417697
0.022041859,0.095847074,0.279148628,0.743263665
0.022043834,0.095847259,0.279196939,0.743109926
0.022045871,0.095847431,0.279245615,0.742956485
0.022047969,0.09584759,0.279294647,0.742803347
0.022050126,0.095847734,0.279344029,0.742650518
0.022052343,0.095847862,0.279393754,0.742498002
0.022054618,0.095847972,0.279443816,0.742345802
0.022056952,0.095848063,0.279494207,0.742193923
0.022059344,0.095848133,0.279544918,0.74204237
0.022061793,0.095848181,0.279595944,0.741891149
0.0220643,0.095848205,0.279647275,0.741740266
0.022066863,0.095848203,0.279698906,0.741589729
0.022069484,0.095848174,0.279750832,0.741439547
0.02207216,0.095848117,0.279803046,0.741289729
0.022074894,0.095848033,0.279855544,0.741140288
0.022077682,0.09584792,0.279908322,0.740991234
0.022080527,0.095847777,0.279961373,0.740842577
0.022083426,0.095847603,0.280014692,0.740694326
0.022086379,0.095847398,0.280068274,0.74054649
0.022089387,0.095847161,0.280122113,0.74039908
0.022092449,0.095846891,0.280176207,0.740252104
0.022095565,0.095846588,0.280230553,0.74010557
0.022098735,0.095846251,0.280285148,0.739959486
0.02210196,0.09584588,0.280339991,0.739813859
0.022105238,0.095845473,0.28039508,0.739668694
0.02210857,0.095845029,0.280450413,0.739523998
0.022111956,0.095844547,0.28050599,0.739379775
0.022115394,0.095844026,0.280561807,0.739236027
0.022118886,0.095843465,0.280617864,0.739092759
0.02212243,0.095842864,0.280674158,0.73894997
0.022126027,0.095842222,0.280730688,0.738807663
0.022129675,0.09584154,0.280787453,0.738665837
0.022133375,0.095840818,0.280844454,0.738524492
0.022137126,0.095840056,0.28090169,0.738383627
0.022140928,0.095839253,0.280959161,0.738243242
0.022144779,0.095838409,0.281016867,0.738103333
0.022148681,0.095837525,0.281074808,0.7379639
0.022152632,0.095836599,0.281132982,0.737824937
0.022156633,0.095835634,0.281191388,0.737686444
0.022160682,0.095834627,0.281250024,0.737548414
0.02216478,0.095833578,0.281308886,0.737410844
0.022168925,0.095832487,0.281367973,0.737273728
0.022173118,0.095831352,0.281427277,0.737137061
0.022177357,0.095830172,0.281486796,0.737000839
0.022181644,0.095828945,0.281546524,0.736865057
0.022185976,0.095827672,0.281606455,0.736729709
0.022190353,0.095826353,0.281666585,0.736594792
0.022194775,0.095824987,0.281726908,0.736460299
0.02219924,0.095823575,0.281787417,0.736326227
0.02220375,0.095822117,0.281848108,0.736192569
0.022208302,0.095820613,0.281908973,0.73605932
0.022212896,0.095819062,0.281970004,0.735926473
0.022217532,0.095817463,0.282031193,0.735794023
0.022222208,0.095815818,0.282092532,0.735661961
0.022226926,0.095814125,0.282154012,0.73553028
0.022231683,0.095812383,0.282215624,0.735398972
0.02223648,0.095810594,0.28227736,0.73526803
0.022241316,0.095808755,0.28233921,0.735137445
0.02224619,0.095806865,0.282401166,0.735007207
0.022251102,0.095804923,0.282463218,0.734877306
0.022256052,0.095802928,0.282525355,0.734747733
0.022261038,0.095800879,0.282587568,0.734618475
0.022266061,0.095798778,0.282649846,0.734489522
0.02227112,0.095796623,0.282712181,0.734360863
0.022276215,0.095794417,0.282774562,0.734232487
0.022281345,0.095792159,0.282836978,0.734104381
0.022286509,0.095789851,0.282899419,0.733976536
0.022291708,0.095787494,0.282961874,0.733848941
0.022296941,0.095785087,0.283024332,0.733721591
0.022302207,0.095782632,0.28308678,0.73359448
0.022307506,0.095780128,0.283149208,0.733467604
0.022312838,0.095777578,0.283211603,0.733340957
0.022318201,0.095774981,0.283273952,0.733214536
0.022323595,0.095772336,0.283336243,0.733088335
0.02232902,0.095769645,0.283398461,0.73296235
0.022334475,0.095766906,0.283460593,0.732836579
0.022339959,0.095764119,0.283522626,0.732711016
0.022345472,0.095761284,0.283584549,0.732585657
0.022351013,0.0957584,0.283646347,0.732460495
0.02235658,0.095755468,0.283708009,0.732335526
0.022362175,0.09575249,0.283769522,0.732210745
0.022367794,0.095749466,0.283830874,0.732086145
0.022373438,0.095746396,0.283892052,0.73196172
0.022379106,0.095743281,0.283953041,0.731837463
0.022384797,0.095740122,0.28401383,0.731713369
0.022390509,0.095736917,0.284074404,0.731589431
0.022396242,0.095733668,0.284134748,0.731465642
0.022401994,0.095730375,0.284194848,0.731341997
0.022407765,0.095727038,0.28425469,0.731218487
0.022413553,0.095723656,0.284314256,0.731095104
0.022419357,0.095720229,0.284373534,0.730971838
0.022425176,0.095716757,0.284432505,0.73084868
0.022431009,0.095713237,0.284491155,0.730725619
0.022436853,0.095709671,0.284549467,0.730602644
0.022442709,0.095706056,0.284607426,0.730479746
0.022448575,0.095702394,0.284665014,0.730356914
0.022454449,0.095698684,0.284722217,0.730234135
0.022460331,0.095694925,0.28477902,0.730111398
0.02246622,0.09569112,0.284835407,0.729988692
0.022472113,0.095687267,0.284891365,0.729866003
0.02247801,0.095683366,0.284946878,0.729743317
0.022483909,0.095679419,0.285001934,0.729620622
0.022489809,0.095675424,0.28505652,0.729497904
0.022495709,0.095671382,0.285110625,0.72937515
0.022501608,0.095667292,0.285164235,0.729252347
0.022507506,0.095663156,0.285217339,0.729129484
0.022513401,0.095658972,0.285269923,0.729006548
0.022519292,0.09565474,0.285321975,0.728883528
0.02252518,0.09565046,0.285373482,0.728760416
0.022531062,0.095646131,0.285424429,0.728637202
0.02253694,0.095641753,0.285474806,0.728513877
0.022542812,0.095637326,0.285524599,0.728390432
0.022548678,0.09563285,0.285573798,0.728266854
0.022554538,0.095628327,0.285622391,0.728143135
0.022560392,0.095623756,0.285670368,0.728019263
0.022566241,0.095619137,0.285717718,0.727895229
0.022572084,0.095614472,0.28576443,0.72777102
0.022577921,0.09560976,0.285810492,0.727646626
0.022583754,0.095605,0.285855893,0.727522037
0.022589581,0.095600193,0.285900625,0.727397242
0.022595405,0.09559534,0.285944678,0.727272227
0.022601223,0.095590439,0.285988044,0.727146983
0.022607038,0.095585492,0.286030717,0.727021498
0.02261285,0.095580496,0.286072687,0.72689576
0.022618658,0.095575451,0.286113947,0.726769757
0.022624463,0.095570355,0.286154488,0.726643478
0.022630264,0.095565209,0.286194302,0.726516913
0.022636063,0.09556001,0.286233381,0.72639005
0.022641859,0.09555476,0.286271715,0.72626288
0.022647652,0.095549457,0.286309297,0.726135391
0.022653443,0.095544104,0.286346118,0.726007573
0.02265923,0.095538699,0.28638217,0.725879415
0.022665015,0.095533245,0.286417443,0.725750904
0.022670797,0.095527741,0.286451928,0.725622028
0.022676576,0.095522188,0.286485616,0.725492775
0.022682351,0.095516587,0.286518497,0.725363132
0.022688124,0.095510937,0.286550565,0.725233087
0.022693892,0.095505241,0.286581809,0.725102631
0.022699656,0.095499499,0.28661222,0.724971752
0.022705417,0.095493711,0.28664179,0.72484044
0.022711173,0.095487877,0.28667051,0.724708684
0.022716925,0.095481996,0.286698368,0.724576472
0.022722672,0.095476069,0.286725358,0.724443794
0.022728415,0.095470096,0.28675147,0.724310639
0.022734153,0.095464075,0.286776697,0.724177001
0.022739886,0.095458008,0.286801031,0.724042875
0.022745615,0.095451896,0.286824468,0.723908257
0.022751339,0.095445739,0.286847002,0.723773144
0.022757058,0.09543954,0.286868631,0.723637532
0.022762772,0.095433298,0.286889351,0.723501415
0.022768482,0.095427015,0.286909157,0.723364788
0.022774188,0.095420691,0.286928047,0.723227646
0.022779889,0.095414326,0.286946018,0.723089985
0.022785585,0.095407921,0.286963065,0.722951801
0.022791277,0.095401477,0.286979183,0.722813093
0.022796963,0.095394993,0.286994369,0.722673857
0.022802646,0.095388471,0.287008617,0.722534093
0.022808323,0.095381909,0.287021921,0.722393798
0.022813995,0.095375308,0.287034277,0.722252972
0.022819662,0.095368666,0.287045678,0.722111614
0.022825323,0.095361983,0.287056118,0.721969721
0.022830978,0.095355261,0.287065593,0.721827293
0.022836627,0.095348498,0.287074097,0.721684325
0.02284227,0.095341696,0.287081625,0.721540815
0.022847907,0.095334856,0.287088171,0.721396758
0.022853538,0.095327979,0.28709373,0.721252149
0.022859163,0.095321064,0.287098297,0.721106984
0.02286478,0.095314114,0.287101868,0.720961256
0.022870391,0.095307128,0.287104439,0.72081496
0.022875995,0.095300107,0.287106006,0.720668087
0.022881592,0.095293051,0.287106566,0.720520629
0.022887182,0.095285962,0.287106114,0.720372578
0.022892765,0.095278839,0.287104645,0.720223925
0.022898341,0.095271682,0.287102156,0.720074659
0.022903909,0.095264492,0.287098639,0.71992477
0.02290947,0.095257268,0.287094091,0.719774248
0.022915024,0.095250008,0.287088505,0.719623082
0.02292057,0.095242713,0.287081876,0.719471265
0.022926107,0.095235383,0.2870742,0.719318786
0.022931637,0.095228017,0.287065472,0.719165639
0.022937158,0.095220617,0.287055691,0.719011815
0.022942671,0.095213181,0.287044852,0.718857307
0.022948174,0.095205712,0.287032952,0.718702108
0.022953667,0.09519821,0.287019989,0.718546212
0.022959151,0.095190674,0.287005958,0.718389613
0.022964624,0.095183106,0.286990857,0.718232304
0.022970086,0.095175506,0.286974681,0.718074279
0.022975537,0.095167874,0.286957429,0.717915532
0.022980978,0.095160211,0.286939096,0.717756057
0.022986407,0.095152518,0.286919682,0.717595847
0.022991825,0.095144794,0.286899183,0.717434895
0.022997231,0.095137039,0.286877598,0.717273192
0.023002625,0.095129252,0.286854926,0.717110731
0.023008007,0.095121432,0.286831164,0.716947503
0.023013377,0.095113579,0.286806311,0.7167835
0.023018734,0.095105694,0.286780364,0.71661871
0.023024078,0.095097777,0.28675332,0.716453126
0.023029409,0.09508983,0.286725177,0.716286738
0.023034727,0.095081852,0.286695929,0.716119535
0.023040031,0.095073845,0.286665572,0.715951509
0.02304532,0.095065809,0.286634101,0.71578265
0.023050595,0.095057745,0.286601511,0.715612949
0.023055854,0.095049652,0.286567796,0.715442398
0.023061099,0.095041531,0.286532952,0.715270988
0.023066327,0.095033383,0.286496974,0.715098713
0.02307154,0.095025208,0.286459858,0.714925566
0.023076737,0.095017006,0.286421601,0.714751542
0.023081917,0.095008776,0.2863822,0.714576639
0.02308708,0.095000518,0.286341653,0.714400852
0.023092226,0.094992232,0.286299958,0.714224176
0.023097355,0.094983916,0.286257112,0.714046606
0.023102464,0.094975571,0.286213113,0.713868138
0.023107555,0.094967196,0.28616796,0.713688764
0.023112626,0.094958792,0.28612165,0.713508479
0.023117678,0.09495036,0.286074184,0.713327276
0.023122708,0.0949419,0.28602556,0.71314515
0.023127718,0.094933413,0.285975779,0.712962093
0.023132706,0.094924898,0.285924842,0.712778101
0.023137673,0.094916357,0.285872751,0.712593168
0.023142617,0.09490779,0.285819508,0.712407291
0.023147539,0.094899197,0.285765115,0.712220465
0.023152438,0.094890579,0.285709572,0.712032688
0.023157314,0.094881936,0.28565288,0.711843956
0.023162167,0.094873267,0.285595039,0.711654267
0.023166997,0.094864572,0.285536049,0.711463616
0.023171802,0.094855852,0.28547591,0.711272002
0.023176584,0.094847104,0.285414622,0.71107942
0.02318134,0.094838329,0.285352187,0.710885868
0.023186072,0.094829527,0.285288607,0.710691343
0.023190779,0.094820697,0.285223884,0.710495841
0.023195459,0.094811842,0.285158019,0.71029936
0.023200114,0.094802961,0.285091018,0.710101896
0.023204741,0.094794055,0.285022881,0.709903445
0.023209341,0.094785124,0.284953612,0.709704002
0.023213913,0.094776169,0.284883213,0.709503564
0.023218457,0.094767191,0.284811686,0.709302125
0.023222972,0.09475819,0.284739032,0.709099678
0.023227458,0.094749167,0.284665254,0.708896217
0.023231915,0.094740123,0.284590352,0.708691735
0.023236342,0.094731059,0.284514329,0.708486225
0.02324074,0.094721974,0.284437186,0.708279679
0.023245108,0.094712869,0.284358925,0.70807209
0.023249446,0.094703744,0.284279545,0.707863452
0.023253755,0.094694599,0.284199048,0.707653758
0.023258034,0.094685435,0.284117436,0.707443002
0.023262284,0.094676251,0.284034712,0.707231182
0.023266504,0.09466705,0.283950878,0.707018295
0.023270694,0.094657832,0.283865942,0.70680434
0.023274854,0.094648598,0.283779908,0.706589316
0.023278984,0.094639349,0.283692785,0.706373222
0.023283084,0.094630086,0.283604579,0.706156056
0.023287154,0.094620808,0.283515299,0.705937817
0.023291193,0.094611517,0.283424953,0.705718503
0.023295201,0.094602213,0.283333551,0.705498114
0.023299178,0.094592896,0.283241106,0.705276648
0.023303124,0.094583566,0.283147629,0.705054105
0.023307037,0.094574223,0.283053131,0.704830484
0.023310919,0.094564866,0.282957625,0.704605784
0.023314769,0.094555495,0.282861121,0.704380003
0.023318586,0.094546108,0.282763631,0.704153142
0.02332237,0.094536704,0.282665165,0.703925198
0.023326121,0.094527284,0.282565735,0.703696173
0.023329839,0.094517848,0.282465354,0.703466065
0.023333522,0.094508395,0.282364032,0.703234874
0.023337172,0.094498926,0.282261782,0.7030026
0.023340788,0.094489441,0.282158615,0.702769242
0.02334437,0.09447994,0.282054543,0.7025348
0.023347917,0.094470422,0.281949576,0.702299272
0.02335143,0.094460888,0.281843724,0.702062658
0.023354909,0.094451335,0.281736999,0.701824956
0.023358353,0.094441766,0.281629408,0.701586168
0.023361763,0.094432178,0.28152096,0.701346293
0.023365138,0.094422571,0.281411664,0.701105332
0.023368478,0.094412946,0.281301526,0.700863284
0.023371783,0.094403302,0.281190555,0.700620152
0.023375053,0.094393637,0.28107876,0.700375937
0.023378287,0.09438395,0.28096615,0.700130643
0.023381485,0.094374242,0.280852735,0.699884276
0.023384648,0.094364512,0.280738526,0.699636843
0.023387775,0.09435476,0.280623531,0.69938835
0.023390865,0.094344986,0.280507758,0.699138808
0.02339392,0.094335192,0.280391218,0.698888224
0.023396937,0.094325378,0.280273917,0.698636609
0.023399918,0.094315543,0.280155864,0.698383971
0.023402861,0.094305689,0.280037069,0.698130321
0.023405768,0.094295816,0.27991754,0.697875669
0.023408637,0.094285924,0.279797286,0.697620025
0.023411468,0.094276013,0.279676316,0.697363397
0.023414262,0.094266085,0.279554638,0.697105796
0.023417019,0.094256138,0.27943226,0.696847229
0.023419738,0.094246172,0.279309189,0.696587705
0.023422419,0.094236188,0.279185433,0.696327235
0.023425063,0.094226183,0.279061,0.696065826
0.023427669,0.094216157,0.278935898,0.695803489
0.023430237,0.094206109,0.278810136,0.695540232
0.023432767,0.09419604,0.278683724,0.695276064
0.023435259,0.094185948,0.278556672,0.695010991
0.023437712,0.094175836,0.278428991,0.69474502
0.023440126,0.094165702,0.278300692,0.694478159
0.023442501,0.094155546,0.278171788,0.694210414
0.023444836,0.09414537,0.27804229,0.693941792
0.02344713,0.094135172,0.277912212,0.693672301
0.023449384,0.094124952,0.277781567,0.693401949
0.023451596,0.09411471,0.277650367,0.693130743
0.023453766,0.094104446,0.277518627,0.69285869
0.023455893,0.094094159,0.277386362,0.692585798
0.023457978,0.094083848,0.277253588,0.692312073
0.023460019,0.094073512,0.27712032,0.692037522
0.023462016,0.094063149,0.276986573,0.691762151
0.023463969,0.094052758,0.276852364,0.691485967
0.023465877,0.094042338,0.276717706,0.691208977
0.02346774,0.094031889,0.276582616,0.69093119
0.023469558,0.094021409,0.27644711,0.690652618
0.02347133,0.094010899,0.276311205,0.690373269
0.023473055,0.094000359,0.276174914,0.690093156
0.023474735,0.09398979,0.276038254,0.689812288
0.023476367,0.09397919,0.275901239,0.689530675
0.023477953,0.09396856,0.275763881,0.689248328
0.023479491,0.0939579,0.275626194,0.688965258
0.023480982,0.093947209,0.275488192,0.688681472
0.023482425,0.093936488,0.275349888,0.688396981
0.02348382,0.093925737,0.275211294,0.688111793
0.023485167,0.093914954,0.275072423,0.687825916
0.023486466,0.093904141,0.274933286,0.687539358
0.023487715,0.093893296,0.274793893,0.687252126
0.023488916,0.093882419,0.274654255,0.686964227
0.023490067,0.093871508,0.274514383,0.686675669
0.023491169,0.093860564,0.274374286,0.686386458
0.023492221,0.093849587,0.274233975,0.686096603
0.023493223,0.093838577,0.274093462,0.685806112
0.023494174,0.093827535,0.273952758,0.685514995
0.023495076,0.093816462,0.273811877,0.685223262
0.023495927,0.093805358,0.273670832,0.684930922
0.023496729,0.093794224,0.273529637,0.684637986
0.023497482,0.093783058,0.273388308,0.684344463
0.023498186,0.093771863,0.273246861,0.684050364
0.023498842,0.093760636,0.27310531,0.683755699
0.023499449,0.09374938,0.27296367,0.683460477
0.023500008,0.093738094,0.272821955,0.683164709
0.02350052,0.093726777,0.272680176,0.682868404
0.023500983,0.09371543,0.272538347,0.682571571
0.0235014,0.09370405,0.27239648,0.682274219
0.023501769,0.093692638,0.272254587,0.681976358
0.023502091,0.093681192,0.27211268,0.681677994
0.023502366,0.093669712,0.271970772,0.681379137
0.023502594,0.093658198,0.271828876,0.681079795
0.023502774,0.09364665,0.271687004,0.680779976
0.023502907,0.093635069,0.271545167,0.680479686
0.023502992,0.093623457,0.271403378,0.680178932
0.023503029,0.093611812,0.271261649,0.67987772
0.023503018,0.093600136,0.27111999,0.679576055
0.023502958,0.093588428,0.270978415,0.679273942
0.023502849,0.093576689,0.270836935,0.678971385
0.02350269,0.093564919,0.270695562,0.678668388
0.023502482,0.093553118,0.270554306,0.678364955
0.023502223,0.093541287,0.270413178,0.678061088
0.023501914,0.093529426,0.270272187,0.677756788
0.023501554,0.093517535,0.270131343,0.677452056
0.023501143,0.093505614,0.269990655,0.677146893
0.023500679,0.093493662,0.26985013,0.676841299
0.023500163,0.09348168,0.269709778,0.676535276
0.023499594,0.093469667,0.269569606,0.676228826
0.023498972,0.093457625,0.269429621,0.675921956
0.023498294,0.093445555,0.26928983,0.675614668
0.023497562,0.093433458,0.269150243,0.67530697
0.023496774,0.093421337,0.269010866,0.674998868
0.023495929,0.093409191,0.268871709,0.674690369
0.023495027,0.093397021,0.268732778,0.674381478
0.023494068,0.093384829,0.268594081,0.674072203
0.02349305,0.093372615,0.268455626,0.673762549
0.023491973,0.093360382,0.268317419,0.673452525
0.023490836,0.093348128,0.268179468,0.673142139
0.023489639,0.093335856,0.268041781,0.672831398
0.02348838,0.093323566,0.267904364,0.672520311
0.023487059,0.093311257,0.267767225,0.672208887
0.023485674,0.09329893,0.267630368,0.671897133
0.023484226,0.093286584,0.267493799,0.671585057
0.023482713,0.09327422,0.267357523,0.671272669
0.023481134,0.093261838,0.267221543,0.670959978
0.02347949,0.093249438,0.267085865,0.670646993
0.023477778,0.093237023,0.266950492,0.670333721
0.023475999,0.093224593,0.266815428,0.670020172
0.023474151,0.093212149,0.266680675,0.669706354
0.023472234,0.093199692,0.266546237,0.669392274
0.023470248,0.093187223,0.266412116,0.669077942
0.02346819,0.093174742,0.266278315,0.668763366
0.023466062,0.093162249,0.266144835,0.668448555
0.023463861,0.093149746,0.266011679,0.668133516
0.023461589,0.093137233,0.26587885,0.667818259
0.023459243,0.093124711,0.265746348,0.667502793
0.023456824,0.093112178,0.265614177,0.667187128
0.02345433,0.093099635,0.265482335,0.666871274
0.023451762,0.093087081,0.265350825,0.666555241
0.023449119,0.093074516,0.265219647,0.666239037
0.023446399,0.093061941,0.265088801,0.66592267
0.023443603,0.093049355,0.26495829,0.665606147
0.02344073,0.093036759,0.264828117,0.665289476
0.023437781,0.093024156,0.264698283,0.664972663
0.023434755,0.093011545,0.264568789,0.664655717
0.023431652,0.092998928,0.264439638,0.664338643
0.023428472,0.092986305,0.26431083,0.664021448
0.023425216,0.092973676,0.264182367,0.66370414
0.023421882,0.092961042,0.26405425,0.663386725
0.023418473,0.092948403,0.263926482,0.663069213
0.023414986,0.09293576,0.263799062,0.66275161
0.023411423,0.092923115,0.263671994,0.662433928
0.023407785,0.092910466,0.263545279,0.662116178
0.023404071,0.092897814,0.263418919,0.661798372
0.023400281,0.092885159,0.263292918,0.661480523
0.023396417,0.0928725,0.263167278,0.661162644
0.023392477,0.092859839,0.263042,0.660844747
0.023388464,0.092847177,0.262917088,0.660526847
0.023384376,0.092834516,0.262792544,0.660208955
0.023380214,0.092821857,0.262668369,0.659891086
0.023375978,0.092809203,0.262544567,0.659573256
0.023371669,0.092796556,0.262421141,0.65925548
0.023367286,0.092783918,0.262298094,0.658937775
0.02336283,0.092771289,0.262175428,0.658620157
0.023358301,0.092758673,0.262053145,0.658302642
0.023353699,0.09274607,0.261931246,0.657985245
0.023349023,0.092733482,0.26180973,0.65766798
0.023344274,0.09272091,0.261688599,0.657350862
0.023339453,0.092708355,0.261567852,0.657033905
0.023334559,0.092695818,0.26144749,0.656717121
0.023329592,0.092683301,0.261327513,0.656400525
0.023324555,0.092670802,0.261207918,0.656084131
0.023319445,0.092658323,0.261088705,0.655767954
0.023314265,0.092645864,0.260969872,0.65545201
0.023309014,0.092633426,0.260851418,0.655136315
0.023303693,0.092621009,0.260733341,0.654820886
0.023298302,0.092608617,0.260615642,0.654505739
0.023292842,0.09259625,0.260498319,0.654190893
0.023287311,0.092583911,0.260381371,0.653876363
0.023281712,0.092571601,0.260264799,0.653562169
0.023276045,0.09255932,0.260148602,0.653248326
0.02327031,0.092547072,0.26003278,0.652934851
0.023264509,0.092534858,0.259917333,0.65262176
0.023258641,0.09252268,0.259802259,0.65230907
0.023252708,0.092510539,0.25968756,0.651996797
0.02324671,0.092498437,0.259573235,0.651684959
0.023240647,0.092486376,0.259459284,0.651373573
0.023234521,0.092474355,0.259345704,0.651062654
0.023228331,0.092462376,0.259232497,0.650752219
0.023222079,0.09245044,0.259119658,0.650442283
0.023215764,0.092438548,0.259007188,0.650132861
0.023209388,0.092426702,0.258895083,0.649823967
0.02320295,0.092414904,0.258783342,0.649515617
0.023196451,0.092403155,0.258671962,0.649207826
0.023189891,0.092391458,0.25856094,0.648900611
0.023183272,0.092379812,0.258450272,0.648593987
0.023176592,0.09236822,0.258339955,0.648287971
0.023169852,0.092356682,0.258229984,0.647982577
0.023163052,0.092345198,0.258120354,0.64767782
0.023156192,0.092333771,0.258011061,0.647373715
0.023149273,0.0923224,0.257902099,0.647070278
0.023142294,0.092311086,0.257793464,0.646767525
0.023135256,0.092299829,0.257685151,0.646465471
0.02312816,0.09228863,0.257577155,0.646164132
0.023121004,0.092277488,0.257469474,0.64586352
0.02311379,0.092266403,0.257362105,0.64556365
0.023106518,0.092255374,0.257255045,0.645264535
0.023099187,0.092244402,0.257148294,0.644966189
0.023091798,0.092233487,0.257041849,0.644668625
0.023084352,0.09222263,0.256935708,0.644371857
0.023076848,0.092211832,0.25682987,0.644075897
0.023069288,0.092201095,0.256724331,0.643780759
0.023061671,0.092190418,0.256619089,0.643486453
0.023053998,0.092179803,0.256514141,0.643192992
0.02304627,0.09216925,0.256409485,0.642900388
0.023038487,0.092158761,0.25630512,0.642608651
0.023030649,0.092148337,0.256201045,0.642317793
0.023022757,0.092137979,0.25609726,0.642027823
0.023014812,0.092127687,0.255993763,0.641738751
0.023006814,0.092117464,0.255890554,0.641450588
0.022998764,0.092107308,0.255787633,0.641163343
0.022990662,0.09209722,0.255684999,0.640877027
0.022982509,0.0920872,0.255582653,0.640591651
0.022974306,0.092077249,0.255480595,0.640307224
0.022966055,0.092067369,0.255378826,0.640023758
0.022957755,0.092057561,0.255277348,0.639741261
0.022949407,0.092047828,0.255176163,0.639459743
0.022941013,0.092038171,0.255075275,0.639179211
0.022932573,0.092028592,0.254974686,0.638899673
0.022924089,0.092019093,0.254874402,0.638621135
0.02291556,0.092009675,0.254774426,0.638343606
0.022906989,0.09200034,0.254674765,0.638067091
0.022898375,0.091991088,0.254575426,0.637791598
0.02288972,0.09198192,0.25447642,0.637517136
0.022881025,0.091972839,0.254377755,0.637243712
0.022872289,0.091963844,0.254279441,0.636971333
0.022863515,0.091954935,0.254181485,0.636700006
0.022854703,0.091946114,0.254083897,0.636429739
0.022845854,0.091937381,0.253986687,0.636160536
0.022836968,0.091928735,0.253889865,0.635892404
0.022828047,0.091920177,0.253793442,0.635625351
0.022819091,0.091911708,0.253697431,0.635359382
0.022810101,0.09190333,0.253601847,0.635094503
0.022801078,0.091895044,0.253506703,0.634830719
0.022792024,0.091886853,0.253412016,0.634568034
0.022782939,0.091878756,0.253317799,0.634306454
0.022773824,0.091870756,0.253224069,0.634045983
0.02276468,0.091862854,0.253130843,0.633786626
0.022755508,0.091855052,0.253038139,0.633528387
0.022746309,0.09184735,0.252945971,0.63327127
0.022737084,0.091839751,0.252854358,0.633015279
0.022727835,0.091832256,0.252763315,0.632760417
0.022718562,0.091824867,0.252672862,0.632506688
0.022709267,0.091817585,0.252583014,0.632254095
0.022699951,0.091810411,0.252493789,0.632002642
0.022690616,0.091803344,0.252405202,0.631752336
0.022681263,0.091796388,0.252317268,0.631503183
0.022671894,0.091789542,0.252230003,0.631255189
0.02266251,0.091782809,0.252143424,0.631008361
0.022653114,0.09177619,0.252057547,0.630762707
0.022643707,0.091769688,0.251972388,0.630518235
0.02263429,0.091763304,0.251887964,0.630274953
0.022624866,0.091757039,0.251804288,0.630032869
0.022615437,0.091750896,0.251721377,0.62979199
0.022606004,0.091744875,0.251639243,0.629552327
0.022596571,0.091738977,0.251557901,0.629313888
0.02258714,0.091733204,0.251477362,0.629076681
0.022577712,0.091727556,0.251397639,0.628840716
0.02256829,0.091722034,0.251318743,0.628606001
0.022558876,0.091716639,0.251240686,0.628372545
0.022549472,0.091711369,0.251163479,0.628140357
0.022540081,0.091706225,0.251087133,0.627909448
0.022530703,0.091701207,0.25101166,0.627679829
0.022521342,0.091696316,0.250937071,0.627451514
0.022511998,0.091691551,0.250863375,0.627224515
0.022502674,0.091686915,0.250790582,0.626998846
0.022493371,0.091682408,0.250718701,0.62677452
0.022484092,0.091678031,0.250647741,0.626551551
0.022474837,0.091673784,0.250577709,0.626329951
0.02246561,0.091669667,0.250508615,0.626109734
0.02245641,0.09166568,0.250440467,0.625890916
0.02244724,0.091661824,0.250373273,0.62567351
0.022438102,0.091658097,0.250307041,0.625457528
0.022428996,0.091654501,0.250241779,0.625242984
0.022419926,0.091651036,0.250177493,0.62502989
0.022410892,0.091647701,0.250114188,0.624818258
0.022401897,0.091644496,0.25005187,0.624608099
0.022392941,0.091641421,0.249990544,0.624399426
0.022384027,0.091638476,0.249930216,0.624192251
0.022375157,0.09163566,0.249870892,0.623986583
0.022366332,0.091632975,0.249812581,0.623782434
0.022357555,0.091630421,0.249755287,0.623579814
0.022348826,0.091627999,0.24969902,0.623378735
0.022340148,0.09162571,0.249643787,0.623179211
0.022331522,0.091623555,0.249589596,0.622981252
0.02232295,0.091621535,0.249536456,0.622784872
0.022314434,0.091619649,0.249484376,0.622590084
0.022305975,0.091617898,0.249433364,0.622396903
0.022297575,0.091616283,0.249383428,0.622205341
0.022289237,0.091614805,0.249334578,0.622015411
0.02228096,0.091613463,0.24928682,0.621827126
0.022272748,0.091612259,0.249240163,0.6216405
0.022264602,0.091611192,0.249194614,0.621455544
0.022256523,0.091610261,0.249150182,0.621272272
0.022248513,0.091609467,0.249106874,0.621090697
0.022240573,0.09160881,0.2490647,0.620910832
0.022232706,0.091608289,0.249023666,0.620732688
0.022224911,0.091607904,0.248983782,0.620556281
0.022217192,0.091607657,0.248945055,0.620381623
0.022209548,0.091607547,0.248907491,0.620208732
0.02220198,0.091607577,0.248871098,0.620037624
0.022194491,0.091607745,0.248835882,0.619868318
0.022187082,0.091608055,0.248801846,0.619700833
0.022179752,0.091608505,0.248768998,0.619535192
0.022172504,0.091609097,0.248737341,0.619371417
0.022165338,0.091609832,0.24870688,0.619209532
0.022158257,0.09161071,0.248677619,0.619049559
0.02215126,0.091611733,0.248649561,0.61889152
0.022144349,0.091612901,0.248622707,0.618735438
0.022137525,0.091614214,0.248597059,0.618581336
0.022130789,0.091615672,0.248572618,0.618429235
0.022124141,0.091617275,0.248549384,0.618279158
0.022117584,0.091619023,0.248527356,0.618131127
0.022111118,0.091620917,0.248506535,0.617985166
0.022104743,0.091622958,0.248486921,0.617841294
0.022098461,0.091625148,0.248468515,0.617699534
0.022092272,0.091627487,0.248451318,0.617559904
0.022086177,0.091629976,0.248435332,0.617422422
0.022080177,0.091632617,0.248420559,0.617287105
0.022074273,0.091635408,0.248407003,0.617153972
0.022068465,0.091638352,0.248394669,0.617023036
0.022062754,0.091641446,0.248383559,0.616894314
0.022057141,0.091644692,0.24837368,0.616767818
0.022051627,0.091648091,0.248365034,0.616643564
0.022046211,0.09165164,0.248357625,0.616521565
0.022040895,0.091655342,0.248351457,0.616401836
0.022035679,0.091659194,0.248346534,0.61628439
0.022030564,0.091663197,0.24834286,0.616169244
0.022025551,0.091667349,0.248340437,0.616056408
0.02202064,0.091671651,0.248339266,0.615945897
0.022015832,0.091676103,0.248339349,0.615837722
0.022011126,0.091680704,0.248340686,0.615731894
0.022006524,0.091685457,0.248343277,0.615628423
0.022002026,0.091690363,0.24834712,0.615527317
0.021997632,0.09169542,0.248352214,0.615428586
0.021993342,0.091700631,0.248358556,0.615332237
0.021989157,0.091705994,0.248366144,0.615238278
0.021985078,0.09171151,0.248374972,0.615146715
0.021981103,0.09171718,0.248385039,0.615057554
0.021977235,0.091723004,0.24839634,0.614970799
0.021973472,0.091728982,0.248408873,0.614886456
0.021969814,0.091735114,0.248422637,0.614804529
0.021966263,0.0917414,0.248437632,0.614725018
0.021962818,0.091747839,0.248453857,0.614647927
0.021959479,0.09175443,0.248471311,0.614573255
0.021956246,0.091761174,0.248489993,0.614501003
0.02195312,0.091768069,0.248509903,0.614431168
0.021950101,0.091775116,0.248531044,0.614363751
0.021947188,0.091782316,0.248553416,0.61429875
0.021944383,0.091789669,0.24857702,0.614236164
0.021941686,0.091797174,0.248601859,0.614175992
0.021939095,0.091804833,0.248627932,0.614118235
0.021936612,0.091812644,0.248655241,0.614062896
0.021934236,0.091820607,0.248683786,0.614009978
0.021931968,0.091828722,0.248713568,0.613959488
0.021929808,0.091836988,0.248744589,0.61391143
0.021927756,0.091845406,0.248776848,0.613865808
0.021925813,0.091853973,0.248810348,0.613822626
0.021923979,0.091862691,0.24884509,0.613781889
0.021922253,0.091871556,0.248881073,0.613743603
0.021920638,0.091880567,0.2489183,0.613707772
0.021919133,0.091889722,0.248956769,0.613674403
0.021917738,0.09189902,0.248996481,0.613643502
0.021916454,0.09190846,0.249037435,0.613615077
0.021915281,0.091918041,0.24907963,0.613589134
0.021914221,0.091927763,0.249123065,0.613565681
0.021913272,0.091937626,0.249167741,0.613544725
0.021912436,0.091947631,0.249213658,0.613526274
0.021911713,0.091957777,0.249260817,0.613510337
0.021911104,0.091968062,0.249309218,0.613496918
0.021910608,0.091978488,0.249358863,0.613486025
0.021910226,0.091989053,0.24940975,0.613477663
0.021909958,0.091999756,0.249461879,0.613471835
0.021909805,0.092010597,0.249515249,0.613468546
0.021909766,0.092021576,0.249569859,0.613467799
0.021909842,0.09203269,0.249625707,0.613469597
0.021910033,0.09204394,0.249682791,0.613473941
0.02191034,0.092055323,0.24974111,0.613480831
0.021910761,0.092066838,0.249800664,0.613490267
0.021911298,0.092078485,0.249861451,0.613502249
0.021911949,0.092090262,0.24992347,0.613516775
0.021912716,0.092102169,0.249986719,0.613533844
0.021913597,0.092114207,0.250051196,0.613553453
0.021914592,0.092126374,0.250116899,0.6135756
0.021915703,0.092138672,0.250183826,0.613600281
0.021916927,0.0921511,0.250251975,0.613627494
0.021918266,0.092163658,0.250321343,0.613657233
0.02191972,0.092176346,0.250391927,0.613689493
0.021921288,0.092189163,0.250463722,0.613724271
0.021922971,0.09220211,0.250536724,0.613761559
0.021924768,0.092215187,0.250610926,0.613801353
0.021926679,0.092228394,0.250686321,0.613843647
0.021928704,0.092241729,0.250762904,0.613888432
0.021930842,0.092255192,0.250840664,0.613935702
0.021933093,0.092268783,0.250919595,0.613985448
0.021935457,0.092282499,0.250999687,0.614037661
0.021937933,0.092296341,0.251080932,0.614092333
0.021940521,0.092310307,0.25116332,0.614149455
0.02194322,0.092324397,0.251246846,0.614209016
0.02194603,0.092338612,0.251331502,0.61427101
0.021948949,0.092352952,0.251417282,0.61433543
0.021951978,0.092367415,0.251504178,0.614402269
0.021955115,0.092382001,0.251592185,0.614471522
0.021958359,0.09239671,0.251681293,0.614543184
0.02196171,0.092411541,0.251771496,0.614617247
0.021965167,0.092426494,0.251862784,0.614693706
0.021968728,0.092441566,0.25195515,0.614772554
0.021972393,0.092456758,0.252048583,0.614853786
0.021976161,0.092472069,0.252143073,0.614937398
0.021980031,0.092487496,0.252238612,0.615023383
0.021984002,0.092503038,0.252335186,0.615111738
0.021988074,0.092518692,0.252432785,0.615202458
0.021992247,0.092534458,0.252531399,0.61529554
0.02199652,0.092550332,0.252631016,0.615390982
0.022000893,0.092566314,0.252731628,0.615488779
0.022005365,0.092582402,0.252833228,0.61558893
0.022009937,0.092598597,0.252935806,0.615691431
0.022014608,0.092614897,0.253039355,0.615796279
0.022019378,0.092631301,0.253143866,0.615903472
0.022024248,0.092647809,0.253249331,0.616013008
0.022029217,0.092664418,0.253355739,0.616124886
0.022034285,0.092681129,0.253463081,0.616239107
0.022039452,0.092697939,0.253571347,0.616355672
0.022044718,0.092714848,0.253680525,0.616474586
0.022050082,0.092731854,0.253790603,0.616595851
0.022055544,0.092748954,0.253901569,0.616719473
0.022061104,0.092766148,0.25401341,0.616845458
0.022066761,0.092783432,0.254126113,0.616973811
0.022072516,0.092800804,0.254239667,0.617104541
0.022078367,0.09281826,0.254354062,0.617237655
0.022084314,0.0928358,0.25446929,0.617373159
0.022090357,0.092853422,0.254585341,0.617511062
0.022096496,0.092871124,0.254702207,0.61765137
0.022102729,0.092888905,0.254819881,0.617794091
0.022109056,0.092906763,0.254938353,0.617939232
0.022115477,0.092924698,0.255057616,0.618086802
0.022121992,0.092942708,0.255177663,0.618236809
0.022128599,0.09296079,0.255298486,0.618389264
0.022135298,0.092978945,0.255420077,0.618544174
0.022142089,0.09299717,0.255542429,0.618701547
0.022148972,0.093015464,0.255665533,0.618861393
0.022155945,0.093033827,0.25578938,0.619023723
0.022163009,0.093052256,0.255913963,0.619188548
0.022170163,0.09307075,0.256039272,0.619355881
0.022177406,0.093089306,0.256165302,0.619525733
0.022184738,0.093107923,0.256292045,0.619698114
0.022192158,0.093126598,0.256419492,0.619873033
0.022199666,0.093145331,0.256547635,0.620050501
0.02220726,0.09316412,0.256676466,0.620230529
0.02221494,0.093182964,0.256805975,0.620413127
0.022222706,0.093201865,0.256936153,0.620598305
0.022230557,0.093220819,0.257066992,0.620786074
0.022238492,0.093239827,0.257198482,0.620976442
0.022246509,0.093258888,0.257330614,0.621169416
0.022254609,0.093278,0.25746338,0.621365004
0.022262791,0.093297165,0.257596771,0.621563214
0.022271054,0.09331638,0.257730779,0.621764051
0.022279397,0.093335647,0.257865395,0.621967522
0.022287821,0.093354964,0.258000614,0.622173634
0.022296325,0.093374329,0.258136429,0.622382391
0.022304908,0.093393742,0.258272831,0.6225938
0.022313571,0.093413201,0.258409812,0.622807865
0.022322312,0.093432703,0.258547365,0.623024592
0.022331131,0.093452249,0.258685479,0.623243989
0.022340028,0.093471836,0.258824145,0.623466059
0.022349002,0.093491466,0.258963353,0.623690809
0.022358053,0.093511137,0.259103095,0.623918244
0.02236718,0.093530849,0.259243362,0.624148367
0.022376383,0.093550602,0.259384145,0.624381183
