raw_ch1,raw_ch2,raw_ch3,raw_ch4,processed_ch1,processed_ch2,processed_ch3,processed_ch4
-0.10220515361744302,-0.0031939110505450944,-0.025551288404360755,-0.012775644202180378,0.41908065621209095,0.07155352865501179,0.18986308221303233,0.319502732919865
-0.22676768458870167,0.0031939110505450944,-0.028745199454905845,0.025551288404360755,0.4189786173171759,0.07165649716813238,0.18981094541331248,0.3195539401013793
-0.19482857408325072,0.0,0.019163466303270562,0.04471475470763132,0.4188755619474378,0.07175943340122036,0.1897596628897694,0.31960534176157246
-0.025551288404360755,0.012775644202180378,0.009581733151635281,-0.009581733151635281,0.4187714994334906,0.07186233130484182,0.18970922933480452,0.3196569399268631
0.08942950941526263,0.006387822101090189,0.006387822101090189,-0.035133021555996034,0.4186664401555111,0.07196518432144601,0.18965963933274924,0.31970873619029366
0.08942950941526263,0.012775644202180378,-0.04152084365708622,-0.01596955525272547,0.41856039525540173,0.07206798553390657,0.18961088726811054,0.3197607319425811
0.01596955525272547,0.0031939110505450944,-0.07665386521308225,-0.047908665758176414,0.41845337625608364,0.07217072771044049,0.1895629677046404,0.3198129283288356
0.012775644202180378,-0.0031939110505450944,-0.028745199454905845,-0.03193911050545094,0.4183453945044318,0.07227340322329041,0.1895158762308452,0.3198653260414327
0.019163466303270562,-0.0031939110505450944,-0.019163466303270562,-0.028745199454905845,0.4182364607591695,0.07237600397120637,0.189469609930563,0.31991792533906116
0.012775644202180378,-0.01596955525272547,-0.009581733151635281,-0.028745199454905845,0.4181265853163019,0.07247852141605529,0.18942416694131436,0.31997072632632856
0.04152084365708622,-0.025551288404360755,-0.006387822101090189,-0.038326932606541124,0.4180157783652945,0.07258094674791292,0.18937954568553877,0.32002372920125366
0.03193911050545094,-0.028745199454905845,-0.03193911050545094,-0.01596955525272547,0.417904050150204,0.07268327111392035,0.18933574443055762,0.32007693430531814
0.012775644202180378,-0.038326932606541124,-0.012775644202180378,-0.01596955525272547,0.4177914109104988,0.07278548582713312,0.18929276128739358,0.32013034197497436
0.05110257680872151,-0.028745199454905845,0.01596955525272547,-0.025551288404360755,0.4176778707699444,0.07288758251821628,0.18925059436693675,0.32018395234490266
0.05749039890981169,-0.028745199454905845,0.025551288404360755,-0.028745199454905845,0.4175634397334021,0.0729895531987949,0.18920924178809015,0.3202377652797129
0.038326932606541124,-0.038326932606541124,0.0031939110505450944,-0.01596955525272547,0.41744812777029844,0.07309139023823634,0.18916870160137278,0.3202917803900924
-0.035133021555996034,-0.038326932606541124,-0.0031939110505450944,-0.009581733151635281,0.41733194490926895,0.07319308637917442,0.18912897165977105,0.32034599705178546
-0.07026604311199207,-0.03193911050545094,0.0031939110505450944,-0.028745199454905845,0.4172149013627271,0.07329463483179427,0.1890900493542717,0.320400414451207
-0.06387822101090188,-0.04471475470763132,-0.05110257680872151,-0.08942950941526263,0.41709700754756107,0.0733960293102367,0.18905193150040905,0.3204550316417932
-0.03193911050545094,-0.05110257680872151,-0.05110257680872151,-0.04471475470763132,0.41697827372264923,0.07349726399538341,0.18901461475396206,0.3205098475280053
0.012775644202180378,-0.04152084365708622,-0.028745199454905845,-0.012775644202180378,0.4168587094054854,0.07359833354903648,0.18897809632677962,0.32056486071869844
-0.047908665758176414,-0.028745199454905845,-0.035133021555996034,-0.01596955525272547,0.4167383231568032,0.07369923315393533,0.18894237435103556,0.32062006933822584
-0.07026604311199207,-0.025551288404360755,-0.019163466303270562,0.035133021555996034,0.4166171228653936,0.07379995843604503,0.18890744774030352,0.3206754709582579
0.02235737735381566,-0.012775644202180378,-0.038326932606541124,0.047908665758176414,0.4164951161027149,0.0739005052620083,0.18887331593191964,0.3207310627033571
0.0,-0.009581733151635281,-0.05749039890981169,0.047908665758176414,0.41637231016679105,0.07400086950098451,0.1888399788919053,0.3207868414403191
0.025551288404360755,0.0,-0.006387822101090189,0.01596955525272547,0.41624871188123386,0.07410104680284349,0.18880743739771708,0.3208428039182055
-0.038326932606541124,-0.01596955525272547,0.012775644202180378,-0.03193911050545094,0.4161243276376377,0.07420103246767452,0.18877569302902858,0.3208989468656594
-0.08304168731417244,-0.012775644202180378,0.012775644202180378,-0.02235737735381566,0.41599916381404134,0.0743008214701699,0.18874474762813898,0.3209552670876498
-0.02235737735381566,-0.01596955525272547,0.019163466303270562,-0.02235737735381566,0.4158732271200137,0.07440040856617734,0.18871460284079009,0.32101176147301885
0.009581733151635281,0.006387822101090189,0.012775644202180378,-0.019163466303270562,0.41574652462900996,0.07449978835865842,0.18868526007995073,0.3210684269323808
-0.0031939110505450944,0.028745199454905845,0.019163466303270562,-0.012775644202180378,0.4156190636392537,0.07459895532267989,0.18865672064685862,0.3211252603912078
-0.006387822101090189,0.035133021555996034,0.009581733151635281,0.006387822101090189,0.41549085151775766,0.07469790390935513,0.18862898578534762,0.32118225878753975
-0.009581733151635281,0.025551288404360755,0.0,0.01596955525272547,0.415361895626973,0.07479662875630565,0.1886020565955763,0.32123941902114506
0.01596955525272547,0.009581733151635281,-0.006387822101090189,0.04471475470763132,0.4152322033825975,0.07489512480869706,0.18857593380812127,0.32129673800058417
0.02235737735381566,0.0,-0.025551288404360755,0.025551288404360755,0.41510178234530404,0.07499338717846725,0.18855061764895006,0.32135421282727866
0.0,-0.012775644202180378,-0.04471475470763132,-0.025551288404360755,0.4149706401620038,0.0750914108557764,0.18852610811321258,0.32141184086900726
-0.04152084365708622,-0.025551288404360755,-0.05429648785926659,0.012775644202180378,0.41483878429631743,0.07518919054360637,0.18850240562657586,0.32146961953350023
-0.09262342046580772,-0.04471475470763132,-0.04471475470763132,0.047908665758176414,0.41470622170987487,0.0752867207507185,0.18847951167007054,0.3215275458693361
0.006387822101090189,-0.038326932606541124,0.019163466303270562,-0.012775644202180378,0.4145729587303305,0.0753839960581904,0.18845742891658107,0.3215856162948982
0.09901124256689792,-0.05110257680872151,0.028745199454905845,-0.07984777626362735,0.4144390011320103,0.07548101139280278,0.18843616083337797,0.3216438266418089
0.1533077304261645,-0.060684309960356786,0.02235737735381566,-0.08942950941526263,0.4143043542652642,0.07557776221625935,0.18841571112232522,0.3217021723961512
0.07984777626362735,-0.05110257680872151,0.02235737735381566,-0.05749039890981169,0.41416902315400245,0.07567424464568599,0.18839608331636243,0.32176064888394906
-0.12136861992071357,-0.04471475470763132,-0.0031939110505450944,-0.038326932606541124,0.4140330126267522,0.07577045551241426,0.18837728054347191,0.3218192513173615
-0.12775644202180375,-0.04152084365708622,-0.03193911050545094,-0.025551288404360755,0.41389632755045747,0.07586639232361568,0.18835930539042559,0.3218779747355013
-0.07665386521308225,-0.03193911050545094,-0.047908665758176414,-0.03193911050545094,0.41375897301306436,0.07596205312959699,0.18834216003461882,0.3219368138227198
-0.0031939110505450944,-0.025551288404360755,-0.04152084365708622,-0.05429648785926659,0.4136209541614317,0.07605743633363676,0.18832584678706765,0.3219957627178638
0.047908665758176414,-0.006387822101090189,-0.03193911050545094,-0.07026604311199207,0.41348227578424884,0.07615254046964168,0.1883103686475991,0.32205481509851036
0.07665386521308225,-0.006387822101090189,-0.025551288404360755,-0.04471475470763132,0.4133429421187728,0.07624736395323325,0.1882957293965077,0.32211396453148616
0.028745199454905845,-0.019163466303270562,-0.02235737735381566,-0.047908665758176414,0.41320295705257715,0.0763419048796179,0.18828193332498178,0.32217320474282307
-0.047908665758176414,-0.01596955525272547,-0.019163466303270562,-0.04152084365708622,0.41306232438412854,0.07643616099843002,0.18826898494405034,0.32223252967339117
-0.07345995416253714,-0.025551288404360755,-0.019163466303270562,-0.01596955525272547,0.41292104793224554,0.0765301298386362,0.1882568887958143,0.3222919334333039
-0.04152084365708622,-0.02235737735381566,-0.02235737735381566,0.025551288404360755,0.41277913162227586,0.07662380884275369,0.1882456493558075,0.3223514101791629
-0.07984777626362735,-0.006387822101090189,-0.006387822101090189,0.12456253097125865,0.41263657955562383,0.07671719541833343,0.18823527096170195,0.3224109540643407
-0.06707213206144698,0.006387822101090189,-0.025551288404360755,0.13414426412289396,0.4124933959410133,0.07681028683218347,0.18822575765434393,0.3224705595724592
-0.025551288404360755,0.0,-0.01596955525272547,0.047908665758176414,0.41234958493079127,0.07690307999289529,0.18821711303681132,0.32253022203950227
0.04471475470763132,-0.009581733151635281,-0.012775644202180378,-0.038326932606541124,0.41220515056004065,0.07699557131551063,0.18820934033653053,0.3225899377879182
0.09901124256689792,-0.019163466303270562,-0.019163466303270562,-0.04152084365708622,0.4120600969024325,0.0770877567675468,0.18820244251791352,0.3226497038121072
0.08942950941526263,-0.01596955525272547,-0.012775644202180378,-0.0031939110505450944,0.4119144283271306,0.07717963202083981,0.1881964222805806,0.322709517371449
0.035133021555996034,-0.019163466303270562,0.012775644202180378,0.0,0.41176814970944975,0.07727119259657113,0.18819128202680166,0.3227693756671775
-0.025551288404360755,-0.028745199454905845,0.012775644202180378,-0.02235737735381566,0.4116212664940833,0.0773624339790182,0.1881870238586306,0.32282927566826786
-0.18205292988107036,-0.04152084365708622,-0.028745199454905845,-0.05110257680872151,0.41147378457479206,0.07745335174330407,0.18818364959163253,0.32288921409027116
-0.1565016414767096,-0.038326932606541124,-0.02235737735381566,-0.05110257680872151,0.41132571018071024,0.07754394168772706,0.1881811607773088,0.3229491873542539
-0.047908665758176414,-0.025551288404360755,-0.0031939110505450944,-0.012775644202180378,0.41117704992368126,0.07763419990494193,0.18817955867844915,0.3230091914929276
0.047908665758176414,-0.01596955525272547,-0.02235737735381566,-0.019163466303270562,0.41102781087224743,0.0777241227542452,0.18817884418360364,0.32306922218990386
0.14053208622398414,-0.019163466303270562,-0.025551288404360755,-0.03193911050545094,0.4108780005296355,0.07781370673672978,0.18817901783279442,0.32312927490084026
0.12775644202180375,-0.025551288404360755,-0.019163466303270562,-0.03193911050545094,0.4107276268184286,0.07790294834568738,0.18818007999583164,0.32318934484005235
0.009581733151635281,-0.01596955525272547,-0.012775644202180378,-0.019163466303270562,0.41057669812635655,0.07799184400648523,0.188182030956679,0.32324942691047936
-0.07665386521308225,-0.012775644202180378,-0.019163466303270562,-0.02235737735381566,0.4104252232776005,0.07808039009155016,0.18818487085431382,0.3233095157765356
-0.060684309960356786,-0.02235737735381566,-0.01596955525272547,-0.006387822101090189,0.4102732114383115,0.0781685829138767,0.18818859966164078,0.323369605986171
-0.060684309960356786,-0.019163466303270562,-0.02235737735381566,0.0031939110505450944,0.4101206720997273,0.07825641872180115,0.18819321723802265,0.32342969194044885
-0.1117868867690783,-0.0031939110505450944,-0.012775644202180378,-0.025551288404360755,0.4099676151366436,0.07834389370821655,0.188198723378806,0.3234897677763338
-0.05110257680872151,-0.0031939110505450944,-0.028745199454905845,-0.038326932606541124,0.4098140508794817,0.07843100392093832,0.18820511783211893,0.323549827367461
-0.0031939110505450944,-0.01596955525272547,-0.025551288404360755,-0.035133021555996034,0.4096599900534892,0.07851774510520795,0.1882124003676008,0.32360986447370205
-0.025551288404360755,-0.012775644202180378,-0.019163466303270562,-0.012775644202180378,0.4095054434969179,0.07860411267497125,0.18822057093435998,0.32366987289375093
-0.01596955525272547,-0.019163466303270562,-0.009581733151635281,-0.019163466303270562,0.4093504219409611,0.07869010183514173,0.18822962970737803,0.32372984651651904
0.05110257680872151,-0.025551288404360755,-0.0031939110505450944,-0.012775644202180378,0.40919493608067403,0.07877570773049997,0.18823957687291254,0.3237897793159134
0.03193911050545094,-0.028745199454905845,-0.012775644202180378,0.05110257680872151,0.4090389967479751,0.07886092558226082,0.18825041229945028,0.3238496653703137
0.047908665758176414,-0.035133021555996034,-0.019163466303270562,0.08623559836471753,0.40888261489573396,0.07894575080439717,0.1882621353485186,0.3239094989513501
0.047908665758176414,-0.028745199454905845,0.0,0.019163466303270562,0.40872580139946696,0.07903017907426949,0.1882747448669731,0.3239692746592904
0.038326932606541124,-0.035133021555996034,-0.012775644202180378,-0.05429648785926659,0.4085685669805932,0.07911420637419256,0.18828823916615636,0.32402898747905773
-0.02235737735381566,-0.02235737735381566,-0.012775644202180378,-0.012775644202180378,0.4084109223048099,0.07919782901293788,0.18830261597506995,0.3240886327071823
-0.038326932606541124,-0.009581733151635281,-0.006387822101090189,-0.04152084365708622,0.40825287804924487,0.07928104357014203,0.18831787251465282,0.32414820586596027
-0.02235737735381566,0.0,0.0,-0.07026604311199207,0.4080944449591549,0.07936384671111142,0.188334005565573,0.3242077027641607
0.006387822101090189,0.0031939110505450944,-0.0031939110505450944,-0.02235737735381566,0.4079356339458697,0.07944623494159225,0.18835101137092436,0.3242671197416137
0.019163466303270562,0.012775644202180378,-0.01596955525272547,0.009581733151635281,0.407776456140638,0.07952820446570406,0.1883688855714324,0.3243264538222255
0.012775644202180378,0.012775644202180378,-0.009581733151635281,-0.038326932606541124,0.40761692287092666,0.07960975121575006,0.18838762336014991,0.3243857025531732
0.02235737735381566,-0.0031939110505450944,-0.0031939110505450944,-0.07345995416253714,0.40745704557775847,0.07969087093548032,0.18840721964637516,0.32444486384038607
-0.02235737735381566,-0.025551288404360755,-0.01596955525272547,-0.07026604311199207,0.4072968357017654,0.07977155920217445,0.18842766900841984,0.3245039360876404
-0.035133021555996034,-0.012775644202180378,-0.019163466303270562,0.025551288404360755,0.40713630455801986,0.07985181144757784,0.18844896563254054,0.32456291836186163
-0.07345995416253714,-0.0031939110505450944,-0.025551288404360755,0.09901124256689792,0.4069754632541101,0.07993162298724614,0.18847110346657134,0.3246218102920723
-0.05429648785926659,-0.01596955525272547,-0.04152084365708622,0.0,0.4068143226848226,0.08001098894761902,0.18849407651802189,0.32468061184953656
-0.0031939110505450944,-0.028745199454905845,0.0,-0.038326932606541124,0.4066528935465946,0.08008990420865927,0.18851787911222828,0.3247393231325178
0.012775644202180378,-0.025551288404360755,0.006387822101090189,-0.025551288404360755,0.406491186370079,0.08016836356596949,0.18854250582895585,0.32479794423499564
0.04152084365708622,-0.028745199454905845,-0.009581733151635281,-0.035133021555996034,0.40632921159610635,0.08024636198205035,0.18856795109668967,0.3248564753251536
0.05429648785926659,-0.04471475470763132,-0.01596955525272547,-0.06387822101090188,0.4061669796185452,0.0803238947276098,0.18859420889616074,0.32491491675768414
0.05429648785926659,-0.06387822101090188,-0.019163466303270562,-0.06707213206144698,0.4060045006861219,0.0804009575028411,0.1886212727587147,0.3249732690523223
0.04471475470763132,-0.06707213206144698,-0.01596955525272547,-0.07026604311199207,0.40584178466201354,0.08047754667574261,0.18864913583139337,0.32503153283085034
0.035133021555996034,-0.05110257680872151,-0.01596955525272547,-0.047908665758176414,0.4056788408015342,0.08055365953315655,0.18867779089219688,0.3250897087731125
-0.04471475470763132,-0.025551288404360755,-0.009581733151635281,0.01596955525272547,0.4055156777500118,0.08062929431392109,0.1887072303556805,0.32514779758038664
-0.05749039890981169,-0.01596955525272547,-0.012775644202180378,0.09581733151635283,0.4053523037835556,0.08070444993939492,0.18873744628862343,0.3252057999884262
0.01596955525272547,-0.006387822101090189,-0.019163466303270562,0.05429648785926659,0.4051887270419811,0.0807791255871574,0.18876843043441577,0.3252637169364457
0.0,0.006387822101090189,0.0,0.05749039890981169,0.4050249555633743,0.08085332033250299,0.18880017426365897,0.3253215498404638
-0.10220515361744302,-0.006387822101090189,-0.01596955525272547,0.05749039890981169,0.40486099729625796,0.0809270329653405,0.18883266898425344,0.3253793007541481
-0.1533077304261645,-0.0031939110505450944,-0.025551288404360755,-0.009581733151635281,0.40469686031272134,0.08100026191454322,0.18886590551996524,0.3254369722527702
-0.11498079781962338,-0.009581733151635281,-0.01596955525272547,-0.05429648785926659,0.40453255314917624,0.08107300518579784,0.188899874616511,0.3254945670485149
-0.019163466303270562,-0.0031939110505450944,-0.04152084365708622,-0.047908665758176414,0.404368084939973,0.08114526032416791,0.18893456706299783,0.3255520876728612
0.009581733151635281,0.02235737735381566,-0.009581733151635281,0.009581733151635281,0.40420346513623484,0.08121702445280425,0.18896997392732529,0.32560953648363555
0.07026604311199207,0.02235737735381566,-0.0031939110505450944,-0.038326932606541124,0.40403870316938284,0.08128829442681454,0.18900608661219784,0.3256669157916048
0.012775644202180378,-0.0031939110505450944,-0.012775644202180378,-0.07665386521308225,0.4038738084492265,0.08135906701992808,0.18904289654747147,0.32572422798337397
-0.047908665758176414,-0.035133021555996034,-0.012775644202180378,-0.01596955525272547,0.4037087904591686,0.08142933898490218,0.18908039485426184,0.3257814757016674
0.0,-0.038326932606541124,-0.01596955525272547,0.0,0.4035436586913415,0.08149910710664822,0.18911857234083335,0.32583866186117705
-0.0031939110505450944,-0.04152084365708622,-0.02235737735381566,0.006387822101090189,0.4033784225236542,0.08156836843055988,0.18915741969200667,0.3258957893537792
-0.01596955525272547,-0.03193911050545094,-0.019163466303270562,0.025551288404360755,0.4032130910911747,0.08163712049067837,0.1891969276639784,0.3259528607541685
0.028745199454905845,-0.009581733151635281,-0.006387822101090189,0.009581733151635281,0.4030476732260315,0.0817053613072694,0.18923708717483942,0.3260098782918597
0.009581733151635281,-0.012775644202180378,-0.01596955525272547,0.0031939110505450944,0.4028821776063174,0.0817730891739684,0.1892778892281786,0.32606684399153546
-0.025551288404360755,-0.01596955525272547,-0.01596955525272547,0.0,0.40271661298370776,0.08184030242103202,0.1893193248314967,0.32612375976376357
-0.01596955525272547,-0.01596955525272547,0.0,0.0031939110505450944,0.4025509882922484,0.08190699932083811,0.18936138500280222,0.3261806273841113
-0.009581733151635281,-0.019163466303270562,0.006387822101090189,-0.04152084365708622,0.4023853126787809,0.08197317812139823,0.18940406067840745,0.3262374485214135
0.025551288404360755,-0.01596955525272547,-0.006387822101090189,-0.04152084365708622,0.40221959548183234,0.08203883709282837,0.18944734249854633,0.3262942249267929
0.047908665758176414,-0.02235737735381566,0.0031939110505450944,-0.04152084365708622,0.40205384615285295,0.0821039745365387,0.18949122066590993,0.32635095864469843
0.025551288404360755,-0.025551288404360755,0.009581733151635281,-0.04471475470763132,0.40188807421661327,0.08216858879601345,0.18953568490008266,0.32640765208729056
0.0031939110505450944,-0.02235737735381566,-0.01596955525272547,-0.02235737735381566,0.40172228923837755,0.0822326783042475,0.18958072447128424,0.3264643079860908
-0.009581733151635281,-0.019163466303270562,-0.01596955525272547,-0.02235737735381566,0.40155650070935134,0.08229624162300675,0.18962632838303292,0.32652092928460896
-0.006387822101090189,-0.02235737735381566,-0.025551288404360755,-0.028745199454905845,0.4013907179199966,0.08235927742843985,0.18967248563982683,0.32657751901173676
-0.0031939110505450944,-0.038326932606541124,-0.10220515361744302,-0.04152084365708622,0.40122494972917344,0.08242178447687491,0.18971918570160465,0.3266340800923469
-0.025551288404360755,-0.03193911050545094,-0.05110257680872151,-0.0031939110505450944,0.4010592040496847,0.08248376160369794,0.1897664193828793,0.326690614963738
0.019163466303270562,-0.019163466303270562,-0.006387822101090189,-0.0031939110505450944,0.40089348751026427,0.08254520775649433,0.18981417953783902,0.32674712519540244
0.06387822101090188,-0.012775644202180378,-0.03193911050545094,-0.012775644202180378,0.4007278058503589,0.08260612199659842,0.18986246063347528,0.32680361151956755
0.01596955525272547,-0.01596955525272547,-0.03193911050545094,-0.025551288404360755,0.40056216456463833,0.08266650340777221,0.18991125789556446,0.32686007413202506
-0.019163466303270562,-0.02235737735381566,0.0031939110505450944,-0.02235737735381566,0.4003965691167672,0.08272635099309894,0.189960566987599,0.3269165129025349
-0.08623559836471753,-0.028745199454905845,0.012775644202180378,-0.05110257680872151,0.400231024918939,0.08278566370067397,0.1900103838356429,0.326972927544744
-0.09901124256689792,-0.03193911050545094,0.009581733151635281,-0.04471475470763132,0.4000655374439189,0.08284444055029144,0.1900607042164344,0.3270293177893553
-0.060684309960356786,-0.025551288404360755,0.0,-0.01596955525272547,0.3999001124151567,0.08290268073640338,0.19011152341768184,0.32708568343075795
0.07665386521308225,-0.012775644202180378,0.009581733151635281,-0.028745199454905845,0.3997347559647397,0.08296038364598063,0.19016283610474624,0.3271420242845335
0.1596955525272547,-0.025551288404360755,0.009581733151635281,-0.009581733151635281,0.3995694747812317,0.08301754878172722,0.19021463631136618,0.32719834012567495
0.07665386521308225,-0.01596955525272547,-0.0031939110505450944,0.035133021555996034,0.39940427627138186,0.08307417566155693,0.19026691748806665,0.32725463057899457
0.04152084365708622,-0.02235737735381566,-0.012775644202180378,0.06707213206144698,0.39923916859405395,0.0831302637796875,0.19031967252027696,0.3273108951059815
-0.1533077304261645,-0.019163466303270562,-0.025551288404360755,0.07026604311199207,0.39907416041943145,0.0831858125956928,0.19037289377961394,0.3273671332052619
-0.2235737735381566,-0.025551288404360755,-0.006387822101090189,0.06707213206144698,0.39890926071523714,0.08324082149398115,0.19042657324295198,0.3274233445478297
-0.19482857408325072,-0.009581733151635281,-0.04152084365708622,0.02235737735381566,0.3987444789269398,0.08329528971635503,0.1904807025582,0.3274795287985052
-0.11817470887016848,-0.0031939110505450944,-0.04152084365708622,-0.009581733151635281,0.3985798252661088,0.08334921625034591,0.19053527325261155,0.3275356852309336
0.02235737735381566,-0.009581733151635281,-0.028745199454905845,-0.08623559836471753,0.39841531060254937,0.08340259968265765,0.1905902772421022,0.3275918124726908
0.07665386521308225,-0.012775644202180378,-0.02235737735381566,-0.04471475470763132,0.3982509459988278,0.08345543813516086,0.1906457071606868,0.32764790870532445
0.07665386521308225,-0.0031939110505450944,-0.02235737735381566,-0.025551288404360755,0.39808674237888925,0.08350772932169359,0.19070155622003124,0.3277039720793859
0.05429648785926659,-0.006387822101090189,-0.0031939110505450944,-0.02235737735381566,0.3979227106232823,0.0835594706068566,0.19075781791564414,0.32776000085421686
0.05429648785926659,-0.012775644202180378,0.009581733151635281,-0.038326932606541124,0.397758861849264,0.0836106590323002,0.1908144857544352,0.3278159933640005
0.060684309960356786,-0.025551288404360755,0.0031939110505450944,-0.02235737735381566,0.3975952075427938,0.0836612914030395,0.19087155298243616,0.3278719480717306
0.08304168731417244,-0.03193911050545094,-0.012775644202180378,-0.028745199454905845,0.39743175953617754,0.08371136446856908,0.19092901240411195,0.32792786359114134
0.06707213206144698,-0.05110257680872151,-0.006387822101090189,-0.028745199454905845,0.39726852994478856,0.08376087515887781,0.19098685632898732,0.32798373856734636
-0.04152084365708622,-0.038326932606541124,-0.025551288404360755,-0.025551288404360755,0.39710553104506296,0.08380982082373424,0.1910450766124787,0.3280395715187242
-0.05429648785926659,-0.006387822101090189,-0.012775644202180378,-0.04471475470763132,0.39694277508841475,0.08385819932549336,0.19110366481813737,0.3280953607679545
-0.019163466303270562,-0.0031939110505450944,0.0,-0.03193911050545094,0.396780274224411,0.08390600882883835,0.19116261238279356,0.32815110456395696
-0.025551288404360755,-0.009581733151635281,-0.0031939110505450944,-0.006387822101090189,0.3966180406390251,0.08395324745528356,0.19122191055959709,0.3282068013460942
-0.04152084365708622,-0.012775644202180378,-0.012775644202180378,-0.019163466303270562,0.396456086739059,0.08399991312082876,0.19128155025870464,0.3282624498814074
-0.035133021555996034,-0.012775644202180378,-0.009581733151635281,-0.01596955525272547,0.3962944252049193,0.08404600356921456,0.1913415220608464,0.3283180491650197
-0.04471475470763132,0.0,-0.012775644202180378,0.0031939110505450944,0.39613306896012707,0.08409151640856853,0.19140181635761466,0.3283735982736898
-0.02235737735381566,0.0,-0.02235737735381566,0.019163466303270562,0.3959720311601993,0.08413644904960006,0.19146242349573048,0.32842909629447004
-0.012775644202180378,-0.01596955525272547,-0.01596955525272547,0.01596955525272547,0.39581132514026285,0.08418079860856552,0.191523333949145,0.32848454230202656
0.07984777626362735,-0.035133021555996034,-0.019163466303270562,-0.006387822101090189,0.3956509642788216,0.08422456195331651,0.19158453844458748,0.32853993532327436
0.07665386521308225,-0.025551288404360755,-0.012775644202180378,0.0,0.3954909619463595,0.08426773593701962,0.19164602791958618,0.32859527419703466
-0.07345995416253714,-0.028745199454905845,-0.03193911050545094,-0.006387822101090189,0.3953313316036526,0.08431031761423506,0.19170779342923744,0.32865055735287496
-0.13414426412289396,-0.019163466303270562,-0.025551288404360755,0.0031939110505450944,0.3951720868860088,0.08435230427378239,0.19176982621236646,0.3287057826278423
-0.03193911050545094,-0.0031939110505450944,-0.009581733151635281,0.009581733151635281,0.3950132416513765,0.08439369332162877,0.1918321178293367,0.32876094719765786
-0.012775644202180378,-0.0031939110505450944,-0.0031939110505450944,0.01596955525272547,0.39485481005654666,0.08443448210490873,0.1918946600908246,0.32881604774772005
-0.07984777626362735,-0.03193911050545094,-0.01596955525272547,-0.02235737735381566,0.3946968065653545,0.08447466780517446,0.1919574447998656,0.32887108082960537
-0.04152084365708622,-0.04152084365708622,-0.019163466303270562,-0.035133021555996034,0.39453924582170735,0.08451424754556626,0.19202046359187727,0.32892604304084905
0.009581733151635281,-0.01596955525272547,-0.012775644202180378,-0.025551288404360755,0.39438214243492326,0.08455321863551182,0.192083707970762,0.32898093095880293
0.01596955525272547,-0.02235737735381566,-0.006387822101090189,-0.02235737735381566,0.39422551079842477,0.08459157868080575,0.19214716937959242,0.3290357411411771
-0.0031939110505450944,-0.025551288404360755,-0.0031939110505450944,-0.02235737735381566,0.3940693650654222,0.08462932551975118,0.19221083914556905,0.3290904702692576
-0.012775644202180378,-0.038326932606541124,-0.012775644202180378,-0.02235737735381566,0.39391371919872953,0.08466645720968234,0.19227470834401414,0.32914511524757406
0.0,-0.04152084365708622,-0.012775644202180378,-0.025551288404360755,0.39375858691990195,0.08470297215074173,0.19233876775552267,0.32919967317383364
0.04152084365708622,-0.025551288404360755,-0.025551288404360755,-0.025551288404360755,0.3936039815720412,0.08473886921156716,0.19240300798664692,0.3292541412297448
0.07665386521308225,-0.028745199454905845,-0.01596955525272547,-0.038326932606541124,0.3934499160654709,0.08477414770546045,0.19246741966126632,0.3293085165678023
0.06707213206144698,-0.035133021555996034,-0.01596955525272547,-0.04152084365708622,0.3932964029852223,0.08480880725727537,0.1925319935091208,0.32936279624838155
0.07026604311199207,-0.025551288404360755,0.0031939110505450944,-0.04152084365708622,0.39314345475767964,0.08484284773153766,0.1925967202451754,0.3294169772656072
0.12456253097125865,-0.012775644202180378,0.0031939110505450944,-0.01596955525272547,0.39299108384441594,0.0848762692087884,0.19266159031342583,0.32947105663336984
0.07665386521308225,-0.0031939110505450944,0.0,-0.02235737735381566,0.3928393030521858,0.08490907186139723,0.19272659365014408,0.32952503143627304
0.01596955525272547,-0.009581733151635281,0.0031939110505450944,-0.04152084365708622,0.39268812579494056,0.08494125575237918,0.19279171957681207,0.3295788988758683
-0.08304168731417244,0.0,-0.0031939110505450944,-0.04152084365708622,0.3925375660532042,0.08497282069588401,0.19285695682517096,0.3296326564257407
-0.12775644202180375,-0.0031939110505450944,-0.05110257680872151,-0.047908665758176414,0.3923876381685678,0.0850037661692346,0.19292229372320685,0.32968630193899073
-0.12136861992071357,-0.012775644202180378,-0.060684309960356786,-0.035133021555996034,0.39223835664645074,0.08503409119436393,0.19298771875420795,0.32973983340497726
-0.05110257680872151,0.0,-0.05429648785926659,-0.04152084365708622,0.39208973587009993,0.0850637942395912,0.19305322142399872,0.3297932484663102
-0.06707213206144698,-0.012775644202180378,-0.06387822101090188,-0.019163466303270562,0.391941789752757,0.08509287320179172,0.1931187929335679,0.3298465441118833
-0.07345995416253714,0.0,0.0,0.05429648785926659,0.39179453157651184,0.08512132544303097,0.1931844262816617,0.3298997166987956
-0.07665386521308225,0.0,0.025551288404360755,0.10220515361744302,0.39164797416668296,0.08514914783594271,0.19325011570476233,0.3299527622926121
-0.0031939110505450944,-0.012775644202180378,0.0,0.08623559836471753,0.3915021301455744,0.08517633678623708,0.19331585580355282,0.3300056772646358
0.05749039890981169,-0.038326932606541124,-0.006387822101090189,0.028745199454905845,0.3913570119516457,0.08520288834266768,0.19338164094017632,0.33005845876551015
0.13733817517343905,-0.012775644202180378,-0.012775644202180378,0.0,0.39121263186083827,0.08522879847426323,0.19344746500378804,0.3301111046611104
0.09262342046580772,-0.01596955525272547,-0.012775644202180378,0.012775644202180378,0.3910690023047227,0.08525406327001075,0.19351332140538172,0.33016361301988484
-0.05110257680872151,-0.01596955525272547,-0.006387822101090189,0.04471475470763132,0.39092613619538435,0.08527867889359865,0.19357920320225952,0.33021598170875754
-0.10859297571853319,-0.03193911050545094,-0.028745199454905845,-0.03193911050545094,0.39078404689331847,0.08530264150613781,0.19364510319784659,0.33026820840269705
-0.20121639618434092,-0.028745199454905845,-0.04152084365708622,-0.047908665758176414,0.3906427479706553,0.08532594730495809,0.193711014096394,0.33032029062799273
-0.1596955525272547,-0.03193911050545094,-0.019163466303270562,-0.035133021555996034,0.39050225312789555,0.08534859257996526,0.19377692877341687,0.33037222551872225
-0.06387822101090188,-0.028745199454905845,0.009581733151635281,-0.02235737735381566,0.3903625763018397,0.08537057374567522,0.193842840351854,0.3304240096006312
-0.006387822101090189,-0.01596955525272547,0.009581733151635281,0.0,0.3902237317196533,0.08539188739315638,0.1939087419765103,0.33047563891068
-0.006387822101090189,-0.006387822101090189,-0.009581733151635281,0.02235737735381566,0.39008573377862626,0.08541253029612884,0.19397462662889445,0.3305271092963503
0.019163466303270562,-0.009581733151635281,0.02235737735381566,0.006387822101090189,0.3899485968749804,0.08543249929527674,0.19404048718100514,0.3305784166487378
0.05110257680872151,-0.012775644202180378,-0.025551288404360755,-0.009581733151635281,0.38981233529704373,0.08545179115126354,0.19410631660508695,0.3306295569466057
0.05110257680872151,-0.012775644202180378,-0.006387822101090189,-0.02235737735381566,0.389676963213188,0.08547040248470174,0.19417210816085478,0.3306805261412555
0.019163466303270562,-0.012775644202180378,0.006387822101090189,-0.038326932606541124,0.389542494748662,0.08548832979738596,0.19423785532215446,0.3307313201317977
0.04152084365708622,-0.028745199454905845,-0.02235737735381566,-0.060684309960356786,0.389408944007907,0.08550556952941611,0.19430355150792866,0.3307819349547481
0.06707213206144698,-0.04152084365708622,-0.05110257680872151,-0.060684309960356786,0.38927632485739777,0.08552211816056648,0.19436919006353523,0.3308323669185004
0.04471475470763132,-0.04471475470763132,-0.035133021555996034,-0.04152084365708622,0.3891446505330322,0.08553797236961712,0.19443476466235887,0.33088261243499184
0.025551288404360755,-0.028745199454905845,-0.025551288404360755,-0.04152084365708622,0.38901393336546625,0.08555312919025809,0.19450026970345227,0.3309326677408233
0.060684309960356786,-0.038326932606541124,-0.0031939110505450944,-0.028745199454905845,0.38888418483233805,0.08556758607894899,0.1945657002478201,0.33098252884089285
0.04471475470763132,-0.028745199454905845,0.01596955525272547,-0.006387822101090189,0.38875541587965273,0.08558134091372578,0.19463105157521654,0.33103219163140485
0.0,-0.019163466303270562,0.0,-0.0031939110505450944,0.38862763726803273,0.08559439197284235,0.1946963187977201,0.33108165196140493
-0.01596955525272547,-0.01596955525272547,-0.012775644202180378,-0.025551288404360755,0.38850085974274656,0.08560673785692696,0.19476149673902976,0.33113090566129666
-0.012775644202180378,-0.012775644202180378,-0.009581733151635281,-0.028745199454905845,0.38837509402405224,0.08561837734668573,0.1948265799631807,0.3311799486660813
-0.01596955525272547,0.0031939110505450944,-0.02235737735381566,-0.03193911050545094,0.3882503507225442,0.08562930924574355,0.1948915628742736,0.3312287771574387
-0.019163466303270562,0.012775644202180378,-0.019163466303270562,-0.01596955525272547,0.38812664025724486,0.08563953223733752,0.1949564399024481,0.33127738760296954
-0.02235737735381566,0.006387822101090189,-0.019163466303270562,0.019163466303270562,0.3880039728176139,0.08564904479872046,0.19502120569900286,0.33132577668466284
-0.02235737735381566,-0.019163466303270562,-0.035133021555996034,-0.012775644202180378,0.3878823583557614,0.08565784520080098,0.1950858552728616,0.33137394117057595
-0.02235737735381566,-0.025551288404360755,-0.025551288404360755,-0.012775644202180378,0.387761806529131,0.08566593157591443,0.19515038413686903,0.33142187775808546
-0.02235737735381566,-0.02235737735381566,-0.02235737735381566,-0.025551288404360755,0.3876423265975663,0.08567330203890426,0.19521478842446124,0.33146958293906825
-0.02235737735381566,-0.025551288404360755,-0.012775644202180378,-0.019163466303270562,0.38752392739210934,0.08567995480731033,0.19527906480325402,0.33151705299732637
-0.009581733151635281,-0.02235737735381566,-0.012775644202180378,-0.025551288404360755,0.3874066173823648,0.08568588826619888,0.19534321021581846,0.33156428413561784
-0.012775644202180378,-0.01596955525272547,-0.009581733151635281,-0.006387822101090189,0.38729040476830556,0.0856911009826589,0.1954072216403941,0.3316112726086415
-0.009581733151635281,-0.01596955525272547,0.0,-0.0031939110505450944,0.3871752975878573,0.0856955916772155,0.19547109594115533,0.3316580147937718
-0.012775644202180378,-0.02235737735381566,-0.012775644202180378,-0.009581733151635281,0.3870613038485788,0.08569935918569849,0.19553482975816172,0.3317045072075611
-0.009581733151635281,-0.025551288404360755,-0.009581733151635281,-0.009581733151635281,0.38694843158250525,0.0857024024718936,0.19559841946347709,0.331750746482124
-0.012775644202180378,-0.03193911050545094,-0.009581733151635281,-0.009581733151635281,0.3868366887752455,0.08570472069977705,0.19566186121209567,0.33179672931288173
-0.01596955525272547,-0.03193911050545094,-0.019163466303270562,-0.009581733151635281,0.3867260832657925,0.08570631333011115,0.1957251510084546,0.3318424523956416
-0.012775644202180378,-0.02235737735381566,-0.012775644202180378,-0.012775644202180378,0.38661662267553554,0.08570718018023707,0.19578828478043545,0.3318879123637919
-0.019163466303270562,-0.02235737735381566,-0.012775644202180378,-0.009581733151635281,0.38650831438340394,0.0857073213918901,0.1958512584620182,0.3319331057626876
-0.006387822101090189,-0.019163466303270562,-0.01596955525272547,-0.019163466303270562,0.38640116555791537,0.08570673733622249,0.19591406801636302,0.3319780290894991
-0.006387822101090189,-0.012775644202180378,-0.012775644202180378,-0.01596955525272547,0.3862951831823192,0.08570542851904384,0.1959767094339389,0.3320226788646981
-0.0031939110505450944,-0.012775644202180378,-0.012775644202180378,-0.0031939110505450944,0.3861903740536912,0.0857033954937516,0.1960391787552551,0.3320670516973021
0.012775644202180378,-0.009581733151635281,-0.01596955525272547,-0.012775644202180378,0.3860867448135553,0.08570063878087067,0.19610147209381823,0.3321111443117557
0.009581733151635281,-0.009581733151635281,-0.019163466303270562,-0.019163466303270562,0.38598430198601125,0.0856971588036997,0.19616358567629605,0.332154953533993
0.02235737735381566,-0.01596955525272547,-0.009581733151635281,-0.025551288404360755,0.3858830519704395,0.08569295584655118,0.1962255158881773,0.33219847629483207
-0.012775644202180378,-0.025551288404360755,0.0,-0.025551288404360755,0.3857830010364412,0.08568803008433262,0.19628725918764986,0.3322417096915762
-0.060684309960356786,-0.028745199454905845,-0.0031939110505450944,-0.009581733151635281,0.38568415539447687,0.08568238171871656,0.1963488118296325,0.332284651057174
-0.04152084365708622,-0.038326932606541124,-0.012775644202180378,-0.05110257680872151,0.3855865212994384,0.08567601115554077,0.1964101696013247,0.3323272979436962
0.009581733151635281,-0.028745199454905845,-0.02235737735381566,-0.07665386521308225,0.38549010498896114,0.08566891912246102,0.19647132780515028,0.3323696480834276
0.07665386521308225,-0.03193911050545094,-0.02235737735381566,-0.11498079781962338,0.3853949123665551,0.08566110667062223,0.1965322814603387,0.33241169950248406
0.18205292988107036,-0.03193911050545094,-0.012775644202180378,-0.10220515361744302,0.38530094875433923,0.08565257508019286,0.19659302543819632,0.33245345072727156
0.24273723984142714,-0.02235737735381566,-0.01596955525272547,-0.012775644202180378,0.38520821915852926,0.08564332574656672,0.19665355433447376,0.33249490076043026
0.19482857408325072,-0.009581733151635281,-0.006387822101090189,-0.03193911050545094,0.38511672901241695,0.08563336006600743,0.1967138622458434,0.3325360486757322
0.02235737735381566,-0.025551288404360755,-0.01596955525272547,-0.025551288404360755,0.3850264847651244,0.08562267932290733,0.1967739427047179,0.33257689320725026
-0.25231897299306244,-0.019163466303270562,-0.01596955525272547,0.08623559836471753,0.38493749382928666,0.08561128465522481,0.19683378877795857,0.33261743273752997
-0.38646323711595637,-0.012775644202180378,-0.028745199454905845,0.14053208622398414,0.3848497643443881,0.08559917703342526,0.19689339313461782,0.3326576654875688
-0.35133021555996036,-0.01596955525272547,-0.08942950941526263,0.14053208622398414,0.38476330528281255,0.08558635706506869,0.19695274814284747,0.3326975895092713
-0.35771803766105054,-0.009581733151635281,-0.06387822101090188,0.14053208622398414,0.384678126494123,0.08557282468322551,0.19701184640729721,0.33273720241535437
-0.18524684093161545,-0.02235737735381566,-0.05749039890981169,0.12456253097125865,0.38459423836754036,0.08555857896610332,0.19707068153493168,0.33277650113142465
-0.006387822101090189,-0.01596955525272547,-0.028745199454905845,0.035133021555996034,0.3845116513762278,0.08554361822543671,0.1971292484107208,0.3328154819876147
0.1117868867690783,0.02235737735381566,0.028745199454905845,0.006387822101090189,0.3844303757178401,0.08552794030126634,0.19718754297984886,0.33285414100104477
0.2203798624876115,0.009581733151635281,0.035133021555996034,-0.07026604311199207,0.3843504212948797,0.08551154282105837,0.19724556194616616,0.3328924739378957
0.2810641724479683,0.0031939110505450944,0.038326932606541124,-0.08942950941526263,0.38427179811571743,0.08549442319257969,0.1973033025285007,0.33293047616320215
0.1628894635777998,0.02235737735381566,0.02235737735381566,-0.06707213206144698,0.384194516730377,0.0854765784084165,0.19736076227324725,0.33296814258795915
0.0,0.0031939110505450944,0.03193911050545094,-0.028745199454905845,0.38411858828773127,0.08545800497439977,0.1974179389354204,0.33300546780244855
-0.12775644202180375,-0.012775644202180378,0.028745199454905845,-0.009581733151635281,0.3840440242106705,0.08543869902505391,0.1974748305328565,0.333042446231419
-0.16608337462834488,-0.028745199454905845,-0.025551288404360755,-0.060684309960356786,0.38397083593972225,0.08541865644394785,0.1975314354964202,0.33307907211990984
-0.06387822101090188,-0.025551288404360755,-0.060684309960356786,-0.06707213206144698,0.3838990349162339,0.08539787296286078,0.19758775272824042,0.33311533939266486
0.019163466303270562,-0.019163466303270562,-0.03193911050545094,-0.012775644202180378,0.3838286323790818,0.08537634426565713,0.19764378176194067,0.3331512415933204
0.02235737735381566,-0.025551288404360755,-0.006387822101090189,0.012775644202180378,0.38375963900854404,0.08535406606451372,0.19769952297882828,0.3331867719481141
-0.006387822101090189,-0.025551288404360755,-0.019163466303270562,0.006387822101090189,0.38369206490847574,0.085331034194975,0.19775497740084316,0.3332219234957061
-0.009581733151635281,-0.028745199454905845,-0.025551288404360755,-0.047908665758176414,0.38362591977707655,0.0853072447325433,0.19781014626440824,0.33325668922597196
0.0,-0.025551288404360755,0.0,-0.09262342046580772,0.3835612128494282,0.0852826940492752,0.19786503084126078,0.3332910622600358
-0.0031939110505450944,-0.025551288404360755,-0.006387822101090189,-0.04471475470763132,0.3834979527347824,0.08525737880912604,0.19791963226807247,0.3333250361880192
0.0,-0.02235737735381566,-0.01596955525272547,-0.006387822101090189,0.3834361474238491,0.08523129595666172,0.19797395128040143,0.33335860533908773
0.019163466303270562,-0.01596955525272547,-0.01596955525272547,0.028745199454905845,0.3833758044297365,0.08520444269439159,0.19802798822237566,0.3333917646534962
0.038326932606541124,-0.02235737735381566,-0.012775644202180378,0.0031939110505450944,0.38331693093179997,0.08517681642275665,0.1980817432877297,0.33342450935771367
0.07665386521308225,-0.03193911050545094,-0.012775644202180378,-0.028745199454905845,0.3832595339234359,0.0851484147016605,0.19813521661979824,0.3334568347551053
0.05110257680872151,-0.03193911050545094,-0.01596955525272547,-0.05749039890981169,0.3832036203361717,0.08511923530266917,0.19818840821907788,0.3334887361420813
0.025551288404360755,-0.03193911050545094,0.0,-0.04471475470763132,0.3831491970278639,0.08508927630274427,0.19824131779796314,0.33352020887142864
0.0,-0.028745199454905845,-0.006387822101090189,-0.028745199454905845,0.3830962706724079,0.08505853614869717,0.19829394462368666,0.3335512485552084
-0.028745199454905845,-0.02235737735381566,-0.025551288404360755,-0.02235737735381566,0.3830448476767377,0.08502701366956265,0.19834628746579477,0.33358185118790484
-0.05429648785926659,-0.02235737735381566,-0.02235737735381566,-0.01596955525272547,0.38299493414107166,0.08499470800885846,0.19839834482758337,0.33361201302248644
-0.025551288404360755,-0.012775644202180378,-0.0031939110505450944,-0.006387822101090189,0.3829465359036769,0.08496161850119846,0.19845011525859954,0.3336417303365251
-0.012775644202180378,-0.01596955525272547,-0.0031939110505450944,-0.012775644202180378,0.38289965871445947,0.08492774457440692,0.19850159734769618,0.3336709993634373
0.009581733151635281,-0.006387822101090189,-0.019163466303270562,-0.02235737735381566,0.3828543083813898,0.08489308569158283,0.19855278950287403,0.3336998164241535
0.009581733151635281,0.0031939110505450944,-0.012775644202180378,-0.019163466303270562,0.3828104907359955,0.08485764126940867,0.1986036899328866,0.3337281780617092
0.0,-0.006387822101090189,-0.01596955525272547,-0.009581733151635281,0.38276821151991763,0.08482141056158092,0.19865429683697122,0.3337560810815303
0.0,-0.01596955525272547,-0.028745199454905845,-0.01596955525272547,0.3827274763055632,0.0847843925993106,0.19870460857785416,0.3337835225172721
0.009581733151635281,-0.02235737735381566,-0.02235737735381566,-0.025551288404360755,0.3826882903793865,0.08474658625138028,0.19875462383828094,0.3338104995309523
-0.01596955525272547,-0.02235737735381566,-0.012775644202180378,0.02235737735381566,0.3826506586037773,0.08470799035789228,0.1988043417152709,0.3338370093230595
-0.025551288404360755,-0.025551288404360755,-0.012775644202180378,0.0031939110505450944,0.3826145854199652,0.08466860386199475,0.19885376159629561,0.33386304912174436
-0.02235737735381566,-0.03193911050545094,-0.01596955525272547,-0.01596955525272547,0.3825800749845343,0.08462842591328054,0.19890288293143762,0.3338886161707475
-0.012775644202180378,-0.03193911050545094,-0.01596955525272547,-0.02235737735381566,0.38254713124645856,0.08458745595881789,0.19895170512482854,0.33391370766989503
-0.0031939110505450944,-0.025551288404360755,-0.006387822101090189,-0.01596955525272547,0.3825157578999894,0.0845456938111708,0.1990002275197655,0.3339383207690743
0.012775644202180378,-0.025551288404360755,-0.02235737735381566,-0.028745199454905845,0.3824859583262383,0.08450313965160326,0.1990484493715438,0.33396245265061464
0.05749039890981169,-0.02235737735381566,-0.006387822101090189,-0.025551288404360755,0.38245773559891477,0.08445979396609322,0.19909636983379964,0.3339861006011924
0.07026604311199207,-0.028745199454905845,-0.01596955525272547,-0.025551288404360755,0.38243109258643615,0.08441565746969006,0.1991439879370974,0.3340092620067764
0.05429648785926659,-0.028745199454905845,-0.0031939110505450944,0.0031939110505450944,0.3824060321437586,0.084370731084771,0.19919130248914876,0.33403193428232153
-0.03193911050545094,-0.02235737735381566,-0.025551288404360755,-0.009581733151635281,0.3823825572551931,0.08432501597119513,0.19923831200650888,0.3340541147671028
-0.1533077304261645,-0.012775644202180378,-0.012775644202180378,-0.0031939110505450944,0.3823606710803754,0.08427851350531093,0.19928501481263047,0.33407580060168307
-0.09581733151635283,0.0031939110505450944,-0.035133021555996034,0.012775644202180378,0.38234037707040863,0.08423122511789563,0.19933140923250084,0.33409698857919495
-0.012775644202180378,-0.0031939110505450944,-0.0031939110505450944,0.009581733151635281,0.3823216791221571,0.08418315205762728,0.19937749375296776,0.3341176750672479
-0.02235737735381566,-0.009581733151635281,0.025551288404360755,-0.009581733151635281,0.3823045815193449,0.08413429525025931,0.19942326708178462,0.33413785614861113
-0.012775644202180378,-0.009581733151635281,-0.009581733151635281,-0.01596955525272547,0.38228908869525885,0.08408465531827097,0.19946872812147146,0.3341575278649988
-0.012775644202180378,-0.019163466303270562,-0.035133021555996034,-0.006387822101090189,0.3822752050219556,0.0840342326749529,0.19951387598313092,0.3341766863199605
0.028745199454905845,-0.02235737735381566,-0.060684309960356786,-0.025551288404360755,0.38226293458812555,0.08398302761324837,0.19955871023222055,0.3341953275664054
0.05110257680872151,-0.019163466303270562,-0.04471475470763132,-0.05110257680872151,0.38225228087198165,0.083931040354903,0.19960323140940261,0.3342134473637128
0.02235737735381566,-0.012775644202180378,-0.006387822101090189,0.019163466303270562,0.38224324653450586,0.08387827104605468,0.19964744134310106,0.3342310410763383
-0.05110257680872151,-0.02235737735381566,0.0,0.025551288404360755,0.38223583362889385,0.08382471975951457,0.19969134271762976,0.3342481038939619
-0.1628894635777998,-0.03193911050545094,-0.006387822101090189,-0.012775644202180378,0.38223004411960354,0.08377038657944351,0.19973493820542934,0.3342646310955237
-0.20441030723488604,-0.02235737735381566,-0.02235737735381566,-0.025551288404360755,0.3822258804146947,0.08371527171702073,0.19977822989097135,0.33428061797731323
-0.04471475470763132,-0.01596955525272547,0.009581733151635281,-0.035133021555996034,0.38222334569282035,0.08365937552317051,0.19982121921778226,0.33429605956622693
0.047908665758176414,-0.02235737735381566,0.006387822101090189,-0.038326932606541124,0.38222244383666737,0.08360269840785753,0.19986390715316288,0.3343109506023121
0.038326932606541124,-0.012775644202180378,-0.01596955525272547,0.0031939110505450944,0.3822231790889953,0.08354524079880458,0.1999062942791064,0.33432528583309384
0.09901124256689792,-0.01596955525272547,-0.025551288404360755,0.02235737735381566,0.38222555581661155,0.08348700313520373,0.1999483808951205,0.3343390601530643
0.04471475470763132,-0.009581733151635281,-0.012775644202180378,-0.006387822101090189,0.382229578500305,0.08342798581230701,0.19999016723665217,0.33435226845073585
-0.08942950941526263,-0.02235737735381566,-0.03193911050545094,-0.009581733151635281,0.38223525178338813,0.083368189119753,0.20003165365790837,0.3343649054389505
-0.02235737735381566,-0.019163466303270562,-0.012775644202180378,-0.012775644202180378,0.38224258044699133,0.0833076132580172,0.20007284071632528,0.3343769655786661
0.05429648785926659,-0.012775644202180378,-0.012775644202180378,-0.028745199454905845,0.3822515693222313,0.083246258406564,0.2001137291676291,0.33438844310357546
0.1053990646679881,-0.009581733151635281,0.0031939110505450944,-0.07665386521308225,0.3822622232650217,0.08318412473154298,0.20015431977079695,0.33439933223263835
0.1596955525272547,-0.01596955525272547,-0.04152084365708622,-0.12775644202180375,0.38227454721539084,0.08312121227893716,0.20019461301012792,0.334409627495544
0.13095035307234884,-0.03193911050545094,-0.019163466303270562,-0.10859297571853319,0.38228854615426267,0.0830575208562305,0.20023460903596976,0.3344193239535372
0.05749039890981169,-0.035133021555996034,-0.006387822101090189,-0.038326932606541124,0.3823042249360293,0.08299305008702211,0.20027430774905183,0.33442841722789673
-0.08623559836471753,-0.028745199454905845,0.0031939110505450944,-0.012775644202180378,0.38232158825989526,0.0829277996610741,0.20031370869762646,0.3344369033814042
-0.13414426412289396,-0.035133021555996034,0.0031939110505450944,-0.012775644202180378,0.38234064090546915,0.082861769571559,0.20035281083554493,0.33444477868742695
0.012775644202180378,-0.03193911050545094,0.0,-0.01596955525272547,0.38236138802749475,0.08279496021282737,0.2003916123688183,0.3344520393908596
0.006387822101090189,-0.04152084365708622,-0.009581733151635281,0.05429648785926659,0.38238383515439994,0.08272737242812184,0.2004301107347482,0.3344586816827301
-0.06387822101090188,-0.02235737735381566,-0.035133021555996034,0.13733817517343905,0.3824079877572526,0.08265900753120918,0.20046830275154723,0.334464701959991
-0.03193911050545094,-0.02235737735381566,-0.04471475470763132,0.11498079781962338,0.38243385064300833,0.0825898671730353,0.20050618500783493,0.3344700971761214
-0.08942950941526263,-0.02235737735381566,-0.03193911050545094,0.01596955525272547,0.38246142756143997,0.08251995308515549,0.20054375438887367,0.3344748649645308
-0.1501138193756194,-0.02235737735381566,-0.028745199454905845,-0.060684309960356786,0.38249072132283757,0.08244926692417592,0.20058100840983992,0.3344790033431466
-0.16608337462834488,0.0,-0.03193911050545094,0.019163466303270562,0.38252173436300824,0.08237781022317904,0.20061794518105575,0.334482510232757
-0.13414426412289396,0.0031939110505450944,-0.02235737735381566,0.1053990646679881,0.38255446930152626,0.08230558425322962,0.2006545632182586,0.33448538322698557
-0.03193911050545094,0.009581733151635281,0.0031939110505450944,-0.006387822101090189,0.38258892915565035,0.08223258983978565,0.20069086124263333,0.33448761976193064
0.05429648785926659,0.009581733151635281,0.03193911050545094,-0.047908665758176414,0.382625117245951,0.08215882735272433,0.20072683797661614,0.33448921742470855
0.1053990646679881,0.0,0.01596955525272547,0.03193911050545094,0.38266303701511917,0.08208429681500788,0.20076249211892633,0.33449017405094666
0.06387822101090188,0.0031939110505450944,0.01596955525272547,0.09581733151635283,0.38270269195229567,0.08200899790698651,0.20079782245261946,0.3344904876880984
0.06707213206144698,-0.01596955525272547,0.0,0.09901124256689792,0.3827440855897611,0.08193292990249235,0.20083282772708075,0.33449015678066585
0.10220515361744302,-0.028745199454905845,-0.012775644202180378,0.01596955525272547,0.3827872214678397,0.08185609174388844,0.20086750631130107,0.3344891804769708
0.038326932606541124,-0.038326932606541124,-0.02235737735381566,-0.10220515361744302,0.38283210309336935,0.08177848229434624,0.20090185599801794,0.3344875586142665
-0.006387822101090189,-0.025551288404360755,-0.038326932606541124,-0.1053990646679881,0.3828787337167513,0.0817001005917568,0.2009358741902869,0.3344852915012051
-0.019163466303270562,-0.02235737735381566,-0.047908665758176414,-0.09581733151635283,0.38292711577893096,0.08162094591221564,0.20096955838633876,0.3344823799225146
-0.09581733151635283,-0.012775644202180378,-0.019163466303270562,-0.10220515361744302,0.38297725046758285,0.0815410176357852,0.20100290664442869,0.33447882525220324
-0.10220515361744302,0.006387822101090189,0.012775644202180378,-0.07984777626362735,0.3830291378733102,0.0814603150517949,0.20103591759668937,0.3344746294782054
-0.08304168731417244,0.019163466303270562,-0.025551288404360755,-0.06707213206144698,0.3830827775531968,0.08137883722006839,0.20106859003065963,0.33446979519607506
-0.08623559836471753,0.02235737735381566,-0.028745199454905845,-0.038326932606541124,0.3831381689223704,0.08129658296105056,0.20110092263295196,0.33446432548362715
-0.04152084365708622,0.028745199454905845,0.0031939110505450944,-0.05429648785926659,0.38319531129904044,0.08121355098691695,0.20113291406936357,0.33445822364467903
-0.0031939110505450944,0.012775644202180378,0.025551288404360755,-0.038326932606541124,0.3832542038321371,0.08112974006862135,0.2011645630060758,0.3344514930931658
0.025551288404360755,-0.019163466303270562,-0.02235737735381566,0.025551288404360755,0.3833148453991495,0.08104514909759948,0.20119586807995002,0.334444137423301
0.04152084365708622,-0.04152084365708622,-0.038326932606541124,0.07984777626362735,0.38337723443972965,0.08095977706776059,0.20122682808488043,0.3344361604076294
0.06707213206144698,-0.04152084365708622,-0.01596955525272547,0.012775644202180378,0.383441368790669,0.08087362316067465,0.20125744218957,0.3344275658590864
0.07984777626362735,-0.04471475470763132,-0.035133021555996034,-0.01596955525272547,0.3835072456804069,0.08078668695916026,0.2012877099407744,0.33441835741965836
0.08942950941526263,-0.05429648785926659,-0.025551288404360755,-0.038326932606541124,0.3835748618969432,0.08069896863614708,0.20131763118621512,0.3344085382806946
0.07026604311199207,-0.07026604311199207,-0.0031939110505450944,-0.047908665758176414,0.383644213910358,0.08061046910688831,0.201347205966453,0.3343981110163006
-0.0031939110505450944,-0.06707213206144698,0.0031939110505450944,-0.009581733151635281,0.3837152978745241,0.08052119025680159,0.20137643417102707,0.3343870776976472
-0.06387822101090188,-0.06387822101090188,-0.01596955525272547,0.012775644202180378,0.3837881096064317,0.08043113519018452,0.2014053151248651,0.3343754400785187
-0.07345995416253714,-0.05749039890981169,-0.02235737735381566,-0.038326932606541124,0.38386264457495556,0.08034030831186711,0.20143384752999238,0.334363199583185
-0.03193911050545094,-0.038326932606541124,-0.03193911050545094,-0.05429648785926659,0.38393889786005225,0.0802487151771848,0.20146202975198296,0.33435035721078
-0.0031939110505450944,-0.0031939110505450944,-0.025551288404360755,-0.02235737735381566,0.38401686404207935,0.08015636214537106,0.20148986019998025,0.3343369136125695
0.006387822101090189,-0.012775644202180378,-0.025551288404360755,-0.05110257680872151,0.38409653711293373,0.08006325589879637,0.20151733765410476,0.3343228693341651
0.01596955525272547,-0.012775644202180378,-0.02235737735381566,-0.025551288404360755,0.38417791050333594,0.07996940303504858,0.20154446141813342,0.3343082250434821
0.028745199454905845,0.0,-0.012775644202180378,-0.028745199454905845,0.3842609771985875,0.07987480989804853,0.20157123126429308,0.33429298163907084
0.060684309960356786,0.0031939110505450944,-0.006387822101090189,-0.019163466303270562,0.3843457299731032,0.0797794825263568,0.20159764722953136,0.3342771402710088
0.07345995416253714,0.019163466303270562,-0.006387822101090189,-0.012775644202180378,0.38443216173902056,0.07968342661443598,0.2016237093214205,0.3342607023251229
0.07345995416253714,0.009581733151635281,-0.006387822101090189,-0.009581733151635281,0.38452026584818855,0.07958664756757326,0.2016494172460959,0.33424366933814226
0.03193911050545094,-0.0031939110505450944,-0.006387822101090189,-0.01596955525272547,0.38461003623022066,0.07948915059723938,0.20167477027980818,0.33422604289273183
0.07665386521308225,-0.006387822101090189,-0.0031939110505450944,-0.0031939110505450944,0.38470146740682715,0.07939094071160564,0.20169976726861336,0.33420782461295384
0.0,-0.02235737735381566,-0.009581733151635281,0.0,0.38479455446193833,0.0792920226789873,0.20172440665935848,0.3341890161997158
-0.1628894635777998,-0.028745199454905845,-0.025551288404360755,0.0031939110505450944,0.3848892929727924,0.07919240112367419,0.20174868657608755,0.3341696193274459
-0.11817470887016848,-0.012775644202180378,-0.0031939110505450944,0.02235737735381566,0.38498567899125374,0.07909208067826436,0.20177260494434282,0.3341496353861391
-0.060684309960356786,-0.01596955525272547,-0.0031939110505450944,0.03193911050545094,0.3850837091744197,0.07899106600950702,0.20179615946219406,0.3341290653538792
-0.17247119672943506,-0.025551288404360755,-0.019163466303270562,0.047908665758176414,0.3851833808782545,0.07888936174835402,0.20181934739506727,0.3341079099783242
-0.09901124256689792,-0.02235737735381566,-0.025551288404360755,0.02235737735381566,0.38528469207534427,0.07878697246795074,0.2018421655274321,0.334086169929273
-0.028745199454905845,-0.025551288404360755,-0.01596955525272547,0.0,0.3853876411872559,0.07868390272810452,0.20186461040862316,0.33406384567601644
-0.07665386521308225,-0.02235737735381566,-0.038326932606541124,-0.01596955525272547,0.3854922268560162,0.07858015713796808,0.2018866786904652,0.3340409373155505
-0.09262342046580772,-0.028745199454905845,-0.10220515361744302,-0.04152084365708622,0.38559844759153933,0.0784757403705639,0.20190836763484477,0.3340174444030519
-0.006387822101090189,-0.006387822101090189,-0.0031939110505450944,-0.025551288404360755,0.3857063013231219,0.07837065707483755,0.20192967588087551,0.33399336572116495
0.038326932606541124,0.0,0.012775644202180378,-0.02235737735381566,0.38581578523011734,0.07826491173578551,0.20195060366370027,0.3339686993703969
0.04152084365708622,0.0,0.025551288404360755,0.009581733151635281,0.3859268960898964,0.07815850854389952,0.2019711520954693,0.33394344327073483
0.038326932606541124,-0.028745199454905845,0.028745199454905845,-0.01596955525272547,0.38603963065024643,0.07805145132741476,0.2019913225740149,0.333917595448324
0.02235737735381566,-0.02235737735381566,-0.012775644202180378,-0.019163466303270562,0.3861539856220031,0.07794374366073069,0.202011116808957,0.3338911539083092
0.047908665758176414,-0.028745199454905845,-0.035133021555996034,-0.04152084365708622,0.3862699575041102,0.07783538910233732,0.20203053687565334,0.3338641165178991
0.047908665758176414,-0.04471475470763132,-0.012775644202180378,-0.01596955525272547,0.3863875424591598,0.07772639138541067,0.2020495851331217,0.3338364810223079
0.03193911050545094,-0.03193911050545094,-0.019163466303270562,-0.025551288404360755,0.3865067362731472,0.07761675456344468,0.20206826412959275,0.33380824503381534
0.02235737735381566,-0.009581733151635281,-0.019163466303270562,-0.02235737735381566,0.3866275344008794,0.07750648308769714,0.20208657648322073,0.33377940602820283
0.01596955525272547,-0.02235737735381566,-0.0031939110505450944,-0.025551288404360755,0.3867499320491891,0.07739558168562925,0.20210452480516128,0.3337499614600203
0.0,-0.009581733151635281,0.012775644202180378,0.012775644202180378,0.38687392426505485,0.07728405516253523,0.2021221116239597,0.33371990894845033
0.01596955525272547,-0.006387822101090189,-0.009581733151635281,-0.0031939110505450944,0.38699950602187294,0.07717190829481839,0.20213933928850875,0.33368924639479985
-0.012775644202180378,-0.009581733151635281,-0.006387822101090189,-0.006387822101090189,0.3871266723072643,0.07705914575377504,0.20215620996282713,0.3336579719761335
-0.04471475470763132,-0.025551288404360755,-0.006387822101090189,-0.025551288404360755,0.38725541821692694,0.07694577206462684,0.2021727256216604,0.3336260840967857
-0.06707213206144698,-0.028745199454905845,-0.04152084365708622,-0.02235737735381566,0.38738573896508366,0.07683179169053174,0.2021888880279683,0.3335935813164164
-0.03193911050545094,-0.025551288404360755,-0.04152084365708622,-0.03193911050545094,0.3875176296932057,0.07671720916325923,0.20220469899648122,0.33356046214705387
0.006387822101090189,-0.028745199454905845,-0.009581733151635281,-0.028745199454905845,0.38765108516063285,0.07660202914528852,0.20222016085355154,0.33352672484052703
0.009581733151635281,-0.025551288404360755,0.025551288404360755,-0.04471475470763132,0.3877860995621356,0.07648625645812163,0.20223527652469112,0.3334923674550517
0.035133021555996034,-0.02235737735381566,0.035133021555996034,-0.03193911050545094,0.38792266650673024,0.07636989610221091,0.20225004930088078,0.333457388090178
-0.02235737735381566,-0.02235737735381566,0.009581733151635281,-0.006387822101090189,0.3880607790466794,0.07625295322246285,0.20226448278454037,0.3334217849463173
-0.07345995416253714,-0.02235737735381566,-0.05749039890981169,0.0,0.3882004297885395,0.07613543305020071,0.20227858100920806,0.3333855561520517
-0.03193911050545094,-0.01596955525272547,-0.06387822101090188,0.009581733151635281,0.3883416109702091,0.0760173408427569,0.20229234875963903,0.33334869942739487
0.006387822101090189,-0.009581733151635281,-0.07665386521308225,-0.006387822101090189,0.3884843142526555,0.07589868176219813,0.20230579229288376,0.3333112116922625
0.035133021555996034,-0.019163466303270562,-0.0031939110505450944,-0.006387822101090189,0.388628530432569,0.07577946074198595,0.2023189199113322,0.3332730889141128
0.1053990646679881,-0.0031939110505450944,-0.012775644202180378,-0.006387822101090189,0.38877424963102264,0.07565968246325067,0.20233174155376404,0.33323432635196276
0.07665386521308225,-0.006387822101090189,-0.009581733151635281,-0.028745199454905845,0.3889214619783692,0.07553935137894523,0.20234426767772784,0.33319491896495773
-0.0031939110505450944,-0.01596955525272547,-0.009581733151635281,-0.05110257680872151,0.3890701581078111,0.07541847168281304,0.20235650846783884,0.3331548617415369
-0.009581733151635281,-0.019163466303270562,-0.006387822101090189,-0.05110257680872151,0.3892203290400725,0.0752970473282179,0.20236847363101035,0.33311415000069916
-0.006387822101090189,-0.01596955525272547,0.012775644202180378,0.019163466303270562,0.3893719658097431,0.0751750821539947,0.20238017238071387,0.33307277965554827
-0.04152084365708622,0.012775644202180378,-0.01596955525272547,-0.012775644202180378,0.38952505929818787,0.07505257997880972,0.20239161349712073,0.33303074722588166
-0.08304168731417244,0.009581733151635281,-0.02235737735381566,-0.009581733151635281,0.38967960033768995,0.07492954457783305,0.2024028055037783,0.33298804958069866
-0.1469199083250743,-0.01596955525272547,-0.006387822101090189,-0.006387822101090189,0.3898355799800512,0.07480597959781063,0.20241375680997709,0.33294468361216123
-0.1117868867690783,-0.02235737735381566,-0.019163466303270562,0.02235737735381566,0.3899929898410194,0.07468188851927465,0.20242447564569377,0.33290064599401215
-0.05749039890981169,-0.006387822101090189,-0.03193911050545094,0.035133021555996034,0.3901518222592226,0.07455727468554309,0.2024349699641975,0.3328559330910367
-0.04152084365708622,-0.025551288404360755,-0.02235737735381566,0.0031939110505450944,0.3903120700578637,0.07443214131486774,0.20244524762350685,0.3328105410037617
-0.035133021555996034,-0.035133021555996034,-0.01596955525272547,-0.04471475470763132,0.39047372614849973,0.07430649154705565,0.2024553166513682,0.3327644656530763
0.0031939110505450944,-0.038326932606541124,-0.012775644202180378,-0.03193911050545094,0.3906367832644144,0.07418032864344444,0.20246518520036558,0.3327177028917756
0.07026604311199207,-0.028745199454905845,0.01596955525272547,-0.05429648785926659,0.3908012338184277,0.07405365621732243,0.20247486128740458,0.33267024867684525
0.028745199454905845,-0.035133021555996034,0.0031939110505450944,-0.047908665758176414,0.3909670698825397,0.07392647830785302,0.2024843525779356,0.3326220992316718
-0.0031939110505450944,-0.038326932606541124,-0.025551288404360755,0.05110257680872151,0.3911342832293016,0.07379879935668467,0.20249366626543505,0.3325732511485786
-0.035133021555996034,-0.025551288404360755,-0.028745199454905845,-0.0031939110505450944,0.39130286525032804,0.07367062420548057,0.2025028091676402,0.33252370137655113
0.0,-0.019163466303270562,-0.05110257680872151,-0.060684309960356786,0.39147280677175184,0.07354195803906391,0.20251178816743695,0.33247344702174714
0.02235737735381566,-0.01596955525272547,-0.047908665758176414,-0.019163466303270562,0.39164409786178933,0.07341280619488848,0.20252061083410947,0.33242248510921263
0.04152084365708622,-0.006387822101090189,-0.009581733151635281,0.012775644202180378,0.3918167277509551,0.07328317394333428,0.20252928581759025,0.3323708124881204
0.038326932606541124,-0.009581733151635281,0.0031939110505450944,-0.03193911050545094,0.3919906851285583,0.07315306635489616,0.20253782260582318,0.33231842591072236
0.035133021555996034,-0.009581733151635281,0.0031939110505450944,-0.06387822101090188,0.39216595866507836,0.07302248825605187,0.20254623076920814,0.3322653223096616
0.038326932606541124,-0.012775644202180378,-0.0031939110505450944,-0.07984777626362735,0.39234253726017243,0.07289144423132873,0.2025545193095376,0.3322114991989613
-0.01596955525272547,-0.0031939110505450944,0.0,0.006387822101090189,0.39252040999821775,0.07275993863349794,0.20256269639868363,0.3321569549696008
-0.05110257680872151,-0.025551288404360755,0.0,0.02235737735381566,0.39269956616185814,0.07262797560890913,0.20257076934679727,0.33210168888243535
-0.05429648785926659,-0.05110257680872151,-0.025551288404360755,-0.019163466303270562,0.39287999532279116,0.07249555924389764,0.20257874467740192,0.3320457007559092
0.009581733151635281,-0.05429648785926659,-0.019163466303270562,-0.047908665758176414,0.3930616871972744,0.0723626939031021,0.2025866283417124,0.3319889905579112
0.05429648785926659,-0.025551288404360755,0.0031939110505450944,-0.07026604311199207,0.3932446312697741,0.07222938455859343,0.20259442594762322,0.33193155822400916
0.05110257680872151,0.0031939110505450944,-0.012775644202180378,-0.006387822101090189,0.3934288166522774,0.07209563677369972,0.20260214274646426,0.3318734038275586
0.04471475470763132,-0.009581733151635281,-0.04152084365708622,0.07984777626362735,0.39361423229805337,0.07196145631763327,0.2026097836018727,0.3318145277824406
0.03193911050545094,-0.006387822101090189,-0.04152084365708622,0.07345995416253714,0.3938008670423511,0.07182684874165303,0.20261735337245404,0.33175493084354174
0.05110257680872151,-0.012775644202180378,-0.028745199454905845,0.019163466303270562,0.3939887093073965,0.07169181917369222,0.20262485747456194,0.33169461404434936
-0.019163466303270562,-0.02235737735381566,-0.0031939110505450944,0.019163466303270562,0.3941777470024353,0.07155637235078334,0.20263230203054103,0.33163357861624027
-0.22676768458870167,-0.019163466303270562,-0.025551288404360755,0.05110257680872151,0.3943679678717487,0.07142051279013474,0.20263969348124578,0.33157182585687067
-0.27148243929633303,0.0,-0.01596955525272547,0.019163466303270562,0.3945593601082157,0.07128424487483667,0.2026470380828898,0.3315093569340579
-0.09262342046580772,0.006387822101090189,0.0,0.009581733151635281,0.3947519130304003,0.07114757271802236,0.20265434161816825,0.3314461726334091
0.047908665758176414,-0.009581733151635281,-0.006387822101090189,0.03193911050545094,0.39494561741073264,0.07101050001503315,0.2026616092462489,0.33138227332798537
0.025551288404360755,-0.019163466303270562,0.0,0.08942950941526263,0.3951404651456166,0.07087303009736366,0.20266884539209662,0.33131765936492297
0.01596955525272547,-0.019163466303270562,0.025551288404360755,0.08942950941526263,0.3953364485509065,0.07073516609505162,0.20267605373061318,0.33125233162342865
-0.009581733151635281,-0.0031939110505450944,0.01596955525272547,0.009581733151635281,0.3955335597567361,0.07059691102850801,0.20268323737463903,0.3311862918401168
0.01596955525272547,-0.012775644202180378,-0.0031939110505450944,-0.035133021555996034,0.3957317905037321,0.07045826778185887,0.2026903991905858,0.33111954252382325
0.05749039890981169,-0.038326932606541124,-0.025551288404360755,-0.05749039890981169,0.3959311322856733,0.0703192390922222,0.20269754192282516,0.3310520866992794
0.019163466303270562,-0.038326932606541124,-0.025551288404360755,-0.07984777626362735,0.39613157637948576,0.07017982771470169,0.2027046681499712,0.33098392775584135
0.047908665758176414,-0.04152084365708622,0.0,-0.11498079781962338,0.39633311357503287,0.07004003668553857,0.20271178026768438,0.3309150694717442
0.028745199454905845,-0.038326932606541124,-0.009581733151635281,-0.1053990646679881,0.3965357339417634,0.0698998694971869,0.20271888028962817,0.3308455162714215
0.0031939110505450944,-0.03193911050545094,-0.025551288404360755,-0.05749039890981169,0.39673942679354046,0.06975933013895498,0.2027259695524673,0.3307752735150372
0.04471475470763132,-0.009581733151635281,-0.04152084365708622,-0.01596955525272547,0.39694418069843157,0.06961842300425082,0.20273304890508098,0.3307043473922366
0.06707213206144698,-0.012775644202180378,-0.04471475470763132,-0.04471475470763132,0.39714998353186615,0.06947715264383748,0.2027401194218644,0.3306327444024319
0.08942950941526263,0.0,-0.03193911050545094,-0.05110257680872151,0.39735682264229666,0.06933552344985634,0.2027471830267501,0.3305604708810969
0.028745199454905845,0.01596955525272547,-0.038326932606541124,-0.028745199454905845,0.39756468503727516,0.06919353943435323,0.2027542426470367,0.3304875328813349
0.01596955525272547,0.006387822101090189,-0.038326932606541124,-0.04152084365708622,0.3977735574328065,0.069051204182027,0.2027613021309572,0.3304139362542093
-0.08942950941526263,-0.012775644202180378,-0.01596955525272547,-0.04471475470763132,0.39798342618645677,0.06890852090961622,0.20276836617688296,0.330339686727044
-0.20441030723488604,-0.025551288404360755,0.0,-0.04471475470763132,0.39819427747674985,0.06876549254488522,0.20277544000108466,0.3302647899772801
-0.13414426412289396,-0.04152084365708622,-0.0031939110505450944,-0.05749039890981169,0.39840609788117526,0.0686221218779102,0.20278252857286652,0.3301892516680481
-0.01596955525272547,-0.03193911050545094,-0.0031939110505450944,-0.060684309960356786,0.3986188747863191,0.06847841182494206,0.20278963590637267,0.33011307748236607
0.0031939110505450944,-0.035133021555996034,0.0031939110505450944,-0.05110257680872151,0.3988325961515353,0.06833436566681622,0.20279676486591702,0.3300362733157314
0.0,-0.03193911050545094,0.006387822101090189,-0.060684309960356786,0.3990472499685319,0.06818998714636547,0.20280391732516995,0.3299588455599326
-0.01596955525272547,-0.02235737735381566,-0.019163466303270562,0.019163466303270562,0.39926282392997847,0.06804528044925297,0.20281109439845424,0.3298808012223142
0.02235737735381566,-0.009581733151635281,-0.012775644202180378,0.12775644202180375,0.39947930534228554,0.06790025007290873,0.20281829670493484,0.32980214787987094
0.038326932606541124,0.0,0.006387822101090189,0.1053990646679881,0.3996966810984808,0.06775490055888995,0.20282552453194624,0.3297228938106829
-0.0031939110505450944,-0.019163466303270562,-0.006387822101090189,0.08942950941526263,0.3999149376679904,0.06760923621169752,0.2028327777370037,0.32964304838330843
-0.060684309960356786,-0.019163466303270562,-0.01596955525272547,0.09581733151635283,0.40013406112306044,0.06746326101923877,0.2028400555784455,0.32956262227925537
-0.060684309960356786,-0.02235737735381566,-0.04152084365708622,0.028745199454905845,0.40035403715335793,0.06731697877187104,0.20284735681266952,0.32948162726210156
-0.035133021555996034,-0.019163466303270562,-0.060684309960356786,-0.009581733151635281,0.4005748510226778,0.06717039317285464,0.20285468026063408,0.32940007554383344
-0.019163466303270562,-0.028745199454905845,-0.012775644202180378,-0.047908665758176414,0.40079648747002644,0.06702350787757927,0.20286202557726798,0.3293179790751262
0.05749039890981169,-0.028745199454905845,-0.019163466303270562,-0.07345995416253714,0.4010189306672051,0.06687632656489804,0.20286939343006213,0.3292353493378346
0.0,-0.028745199454905845,0.0031939110505450944,-0.03193911050545094,0.4012421643342743,0.06672885306077586,0.20287678490026878,0.32915219770468096
0.0031939110505450944,-0.028745199454905845,0.0,-0.060684309960356786,0.4014661719104958,0.06658109144268001,0.2028842008142636,0.3290685358325605
0.035133021555996034,-0.012775644202180378,0.0,-0.060684309960356786,0.4016909366801526,0.06643304606752723,0.2028916413701285,0.32898437588219165
0.019163466303270562,0.006387822101090189,-0.0031939110505450944,-0.05429648785926659,0.4019164418996836,0.06628472146352017,0.20289910594933655,0.32889973068745965
0.06707213206144698,-0.006387822101090189,-0.006387822101090189,-0.09262342046580772,0.40214267093633305,0.06613612210087591,0.20290659308911196,0.3288146138736791
0.1117868867690783,0.0,-0.0031939110505450944,-0.07345995416253714,0.40236960738890204,0.06598725216691666,0.20291410053430342,0.32872903990987784
0.17885901883052527,-0.012775644202180378,0.0,0.012775644202180378,0.40259723533140046,0.06583811543454365,0.2029216252120902,0.32864302402196577
0.04152084365708622,-0.028745199454905845,-0.025551288404360755,0.0031939110505450944,0.4028255396941663,0.06568871529052982,0.20292916322086899,0.32855658179443503
-0.1533077304261645,-0.04152084365708622,-0.035133021555996034,0.035133021555996034,0.40305450634065926,0.06553905496956328,0.2029367101261854,0.328469728563592
-0.18844075198216054,-0.047908665758176414,-0.038326932606541124,0.038326932606541124,0.40328412170598443,0.0653891378789186,0.20294426150503253,0.3283824789100645
-0.2139920403865213,-0.047908665758176414,-0.01596955525272547,0.009581733151635281,0.40351437256616524,0.06523896784884288,0.20295181325136855,0.3282948463336233
-0.08623559836471753,-0.07026604311199207,-0.01596955525272547,-0.019163466303270562,0.4037452461875194,0.06508854932484937,0.2029593614057396,0.32820684308189174
0.006387822101090189,-0.05429648785926659,-0.012775644202180378,-0.025551288404360755,0.4039767303594867,0.0649378876059645,0.2029669018072358,0.328118480227313
0.038326932606541124,-0.01596955525272547,0.006387822101090189,-0.035133021555996034,0.4042088130499744,0.06478698898286307,0.20297442992269724,0.32802976804446526
0.04471475470763132,-0.01596955525272547,-0.009581733151635281,-0.038326932606541124,0.40444148214113174,0.06463586049697703,0.20298194083986767,0.32794071652202345
-0.01596955525272547,0.006387822101090189,0.009581733151635281,-0.03193911050545094,0.4046747255190025,0.06448450944653057,0.20298942928209868,0.3278513357523682
-0.012775644202180378,-0.0031939110505450944,-0.012775644202180378,0.0,0.4049085312268803,0.06433294301037214,0.20299688967953536,0.3277616360832121
-0.012775644202180378,-0.0031939110505450944,-0.025551288404360755,-0.019163466303270562,0.4051428874967843,0.06418116806509645,0.20300431637179012,0.32767162806632927
0.0031939110505450944,0.0,0.0,-0.028745199454905845,0.40537778271536756,0.06402919108640293,0.20301170384182352,0.32758132235640597
0.05110257680872151,-0.009581733151635281,-0.0031939110505450944,-0.035133021555996034,0.40561320542887885,0.06387701810976674,0.20301904669344856,0.32749072976790583
0.10220515361744302,0.009581733151635281,-0.025551288404360755,-0.01596955525272547,0.4058491444710039,0.06372465476008413,0.2030263393826589,0.32739986138625304
0.09581733151635283,0.03193911050545094,-0.03193911050545094,0.019163466303270562,0.4060855890922649,0.06357210634197147,0.2030335761881265,0.327308728377637
0.035133021555996034,0.035133021555996034,-0.035133021555996034,0.035133021555996034,0.4063225288566293,0.06341937801516849,0.20304075157622065,0.32721734155198173
-0.025551288404360755,0.012775644202180378,-0.02235737735381566,0.047908665758176414,0.40655995329066097,0.063266475003035,0.20304786055729204,0.32712571114901207
-0.08623559836471753,0.0,-0.02235737735381566,0.035133021555996034,0.4067978516183833,0.06311340260653646,0.20305489874885455,0.3270338470262256
-0.09581733151635283,-0.012775644202180378,0.009581733151635281,0.012775644202180378,0.40703621291802783,0.06296016597294496,0.2030618621913159,0.3269417589177113
-0.09262342046580772,-0.019163466303270562,-0.0031939110505450944,-0.03193911050545094,0.4072750265758619,0.06280676992569306,0.20306874701995786,0.32684945647848723
-0.09901124256689792,-0.019163466303270562,-0.01596955525272547,-0.05110257680872151,0.40751428261483486,0.06265321903574325,0.20307554910164372,0.3267569492477781
-0.035133021555996034,-0.038326932606541124,-0.01596955525272547,-0.07665386521308225,0.40775397163348376,0.06249951779369711,0.2030822638436448,0.3266642467291744
-0.02235737735381566,-0.05749039890981169,-0.02235737735381566,-0.04471475470763132,0.40799408437055135,0.062345670832854486,0.2030888862672294,0.32657135852936464
0.028745199454905845,-0.05110257680872151,-0.019163466303270562,-0.05110257680872151,0.40823461116356535,0.06219168326572976,0.2030954111892324,0.32647829438147236
0.08942950941526263,-0.060684309960356786,-0.012775644202180378,-0.09262342046580772,0.40847554164137856,0.06203756099772512,0.20310183330199263,0.3263850640589038
0.04152084365708622,-0.047908665758176414,-0.019163466303270562,-0.025551288404360755,0.40871686473269747,0.06188331085866354,0.2031081470726886,0.32629167733595055
-0.02235737735381566,-0.03193911050545094,-0.009581733151635281,0.019163466303270562,0.4089585688387238,0.061728940561835255,0.20311434664165132,0.32619814395778957
-0.019163466303270562,-0.025551288404360755,-0.01596955525272547,0.01596955525272547,0.40920064204352063,0.061574458518365204,0.20312042589289786,0.3261044735452164
-0.02235737735381566,-0.025551288404360755,-0.012775644202180378,-0.012775644202180378,0.4094430722895644,0.061419873575209914,0.2031263785932873,0.3260106755419385
-0.05749039890981169,-0.02235737735381566,-0.025551288404360755,0.006387822101090189,0.40968584748385295,0.06126519480988409,0.20313219851355693,0.3259167591927061
-0.028745199454905845,-0.012775644202180378,-0.01596955525272547,0.047908665758176414,0.409928955552581,0.06111043139805832,0.2031378795626665,0.3258227334866941
-0.04152084365708622,-0.009581733151635281,-0.012775644202180378,0.03193911050545094,0.41017238445897175,0.060955592469086904,0.2031434158560992,0.3257286072158422
-0.07026604311199207,-0.01596955525272547,-0.009581733151635281,0.009581733151635281,0.41041612226007607,0.060800686960147884,0.20314880161773036,0.3256343891620456
-0.05110257680872151,0.0031939110505450944,-0.009581733151635281,0.012775644202180378,0.4106601572989269,0.06064572354212012,0.20315403100577453,0.3255400881531785
-0.019163466303270562,0.0031939110505450944,-0.012775644202180378,-0.038326932606541124,0.41090447840188066,0.06049071057271311,0.20315909802355908,0.3254457130018472
0.04152084365708622,-0.009581733151635281,-0.0031939110505450944,-0.08623559836471753,0.41114907484888563,0.06033565601600158,0.20316399650062822,0.32535127263448477
0.06707213206144698,-0.009581733151635281,0.006387822101090189,-0.05749039890981169,0.4113939361830072,0.06018056739870362,0.2031687199832803,0.3252567764350088
0.09901124256689792,-0.0031939110505450944,-0.009581733151635281,-0.10220515361744302,0.411639052128349,0.06002545182421415,0.20317326153254267,0.32516223451489434
0.11817470887016848,-0.0031939110505450944,0.0,-0.08942950941526263,0.4118844126828523,0.059870315944771074,0.20317761357009176,0.32506765780228497
0.1117868867690783,-0.009581733151635281,-0.025551288404360755,-0.012775644202180378,0.4121300082828091,0.05971516589250312,0.20318176783875705,0.3249730579859307
-0.006387822101090189,-0.012775644202180378,-0.012775644202180378,0.04471475470763132,0.41237582989816124,0.059560007289750534,0.20318571559283624,0.32487844721925196
-0.11498079781962338,-0.02235737735381566,0.006387822101090189,0.10220515361744302,0.4126218689087591,0.059404845375177526,0.20318944789687074,0.3247838378191926
-0.14053208622398414,-0.04152084365708622,-0.035133021555996034,0.1469199083250743,0.4128681168117587,0.05924968518724076,0.2031929556432245,0.3246892423577759
-0.09581733151635283,-0.035133021555996034,-0.05429648785926659,0.10859297571853319,0.4131145648414953,0.05909453175933828,0.20319622952473074,0.32459467387443575
-0.019163466303270562,-0.03193911050545094,-0.047908665758176414,0.04471475470763132,0.41336120348181354,0.05893939026790578,0.20319926050980053,0.3245001457404802
0.009581733151635281,-0.04152084365708622,0.0,-0.01596955525272547,0.4136080221472462,0.05878426612005231,0.20320204044029794,0.3244056712924036
-0.012775644202180378,-0.028745199454905845,-0.038326932606541124,-0.03193911050545094,0.4138550093208969,0.0586291650527715,0.2032045620247273,0.3243112636016043
0.02235737735381566,-0.028745199454905845,-0.028745199454905845,-0.035133021555996034,0.41410215284049656,0.05847409319215369,0.20320681853464423,0.32421693543270563
0.02235737735381566,-0.025551288404360755,-0.01596955525272547,-0.038326932606541124,0.41434943998232365,0.058319056979041876,0.20320880378289896,0.3241226992557356
-0.0031939110505450944,-0.01596955525272547,0.0031939110505450944,-0.07345995416253714,0.41459685751316483,0.0581640630416359,0.20321051205592633,0.32402856738927305
-0.012775644202180378,0.006387822101090189,0.03193911050545094,-0.08304168731417244,0.4148443918033067,0.05800911805613588,0.20321193777627566,0.32393455236428176
-0.019163466303270562,0.019163466303270562,0.006387822101090189,-0.060684309960356786,0.4150920288236218,0.0578542285666793,0.20321307533255636,0.32384066727714256
0.0,0.006387822101090189,0.0031939110505450944,-0.047908665758176414,0.4153397541349537,0.05769940086841556,0.20321391909030265,0.32374692590632803
0.02235737735381566,-0.0031939110505450944,0.0031939110505450944,-0.060684309960356786,0.4155875530785778,0.057544640985888316,0.2032144632267742,0.32365334270875973
0.08942950941526263,-0.012775644202180378,0.012775644202180378,-0.04471475470763132,0.4158354110576166,0.05738995463041569,0.2032147015049431,0.3235599328070245
0.09262342046580772,-0.035133021555996034,-0.01596955525272547,-0.047908665758176414,0.41608331373930024,0.05723534719535336,0.2032146272437081,0.3234667118216381
0.060684309960356786,-0.019163466303270562,-0.03193911050545094,-0.0031939110505450944,0.41633124711906083,0.057080823915982876,0.20321423348917186,0.3233736954757845
0.0031939110505450944,-0.02235737735381566,-0.04471475470763132,0.012775644202180378,0.41657919738433574,0.05692639004746529,0.20321351343513946,0.3232808991330596
-0.028745199454905845,-0.025551288404360755,-0.03193911050545094,0.07665386521308225,0.4168271505650431,0.056772050892840216,0.2032124610157919,0.32318833752632475
-0.14372599727452925,-0.01596955525272547,-0.012775644202180378,0.060684309960356786,0.41707509222968303,0.05661781175439468,0.20321107115026435,0.323096024865658
-0.1117868867690783,-0.009581733151635281,-0.01596955525272547,0.009581733151635281,0.41732300767590597,0.05646367786400381,0.2032093393467307,0.3230039751133595
-0.025551288404360755,-0.012775644202180378,-0.01596955525272547,-0.02235737735381566,0.41757088250650276,0.05630965427466463,0.2032072611832697,0.32291220203556276
0.019163466303270562,-0.025551288404360755,0.0031939110505450944,-0.028745199454905845,0.41781870291176404,0.05615574581592943,0.20320483214037824,0.3228207191319282
-0.01596955525272547,-0.02235737735381566,-0.006387822101090189,-0.025551288404360755,0.4180664555016797,0.05600195720448639,0.203202047553219,0.32272953974061486
-0.03193911050545094,-0.019163466303270562,-0.025551288404360755,-0.03193911050545094,0.4183141270832518,0.05584829319493318,0.20319890252283215,0.32263867719898287
-0.02235737735381566,-0.006387822101090189,-0.01596955525272547,-0.04471475470763132,0.4185617045215303,0.05569475858706407,0.20319539202705109,0.32254814486435457
0.03193911050545094,-0.012775644202180378,-0.0031939110505450944,-0.0031939110505450944,0.41880917468816287,0.055541358087328026,0.20319151113187522,0.32245795609263384
-0.03193911050545094,-0.028745199454905845,-0.02235737735381566,0.035133021555996034,0.41905652456279463,0.05538809621817111,0.20318725498257875,0.3223681242364555
-0.05749039890981169,-0.009581733151635281,-0.012775644202180378,0.0031939110505450944,0.4193037413445987,0.05523497738259561,0.20318261871534998,0.32227866255745563
-0.06387822101090188,-0.012775644202180378,-0.01596955525272547,-0.012775644202180378,0.41955081250794113,0.05508200592383214,0.20317759750210707,0.32218958406611975
0.01596955525272547,-0.03193911050545094,-0.01596955525272547,-0.035133021555996034,0.4197977258779053,0.05492918609372867,0.2031721866034006,0.32210090142496545
0.02235737735381566,-0.047908665758176414,-0.02235737735381566,-0.025551288404360755,0.4200444695282296,0.05477652214454032,0.20316638136513054,0.3220126269620994
-0.07345995416253714,-0.05429648785926659,-0.028745199454905845,-0.05429648785926659,0.4202910314171272,0.05462401864683024,0.20316017725349061,0.32192477268255193
-0.060684309960356786,-0.038326932606541124,-0.025551288404360755,-0.04152084365708622,0.4205373990739071,0.054471680797667704,0.20315356993766323,0.32183735019076193
-0.047908665758176414,-0.035133021555996034,-0.0031939110505450944,-0.02235737735381566,0.4207835595798052,0.054319514487726206,0.20314655529410247,0.32175037063836603
0.0,-0.01596955525272547,-0.006387822101090189,0.0031939110505450944,0.421029499825475,0.054167526151963935,0.2031391292153818,0.32166384480717936
0.06387822101090188,0.0031939110505450944,0.0,0.0,0.42127520689286657,0.054015722510842364,0.2031312873442686,0.32157778325202246
0.038326932606541124,0.006387822101090189,0.0,-0.006387822101090189,0.4215206684349587,0.05386411025490232,0.20312302491705814,0.32149219639308096
0.028745199454905845,-0.012775644202180378,-0.04152084365708622,-0.01596955525272547,0.4217658728748169,0.05371269579417364,0.20311433681366545,0.3214070945173439
0.06707213206144698,-0.012775644202180378,-0.035133021555996034,-0.028745199454905845,0.4220108091821964,0.05356148517659084,0.20310521798775097,0.32132248765346183
0.11498079781962338,-0.02235737735381566,-0.02235737735381566,-0.05110257680872151,0.4222554664506091,0.053410484119789964,0.20309566404079338,0.3212383853888076
0.1469199083250743,-0.025551288404360755,0.01596955525272547,-0.05749039890981169,0.42249983380074424,0.0532596980952017,0.20308567127954863,0.32115479682450543
0.07984777626362735,-0.019163466303270562,0.0,-0.04152084365708622,0.42274390063765493,0.0531091324447277,0.20307523620473894,0.32107173071287837
-0.12775644202180375,-0.012775644202180378,-0.028745199454905845,-0.04152084365708622,0.4229876569097477,0.052958792442847985,0.20306435502119727,0.32098919562620704
-0.2650946171952428,-0.019163466303270562,-0.035133021555996034,-0.02235737735381566,0.4232310932430969,0.05280868323551467,0.203053023615535,0.3209071999058535
-0.20121639618434092,-0.012775644202180378,-0.012775644202180378,0.019163466303270562,0.4234742011453283,0.05265880972720306,0.20304123785477088,0.3208257512726979
-0.05749039890981169,-0.009581733151635281,-0.019163466303270562,0.05110257680872151,0.4237169732689393,0.05250917651398696,0.20302899369982966,0.3207448565172441
0.038326932606541124,-0.006387822101090189,-0.01596955525272547,0.038326932606541124,0.42395940330992726,0.05235978785302999,0.20301628709946623,0.3206645217375765
0.04471475470763132,-0.01596955525272547,-0.0031939110505450944,-0.006387822101090189,0.4242014855518322,0.052210647650663314,0.20300311395528034,0.3205847528422243
0.019163466303270562,-0.009581733151635281,0.012775644202180378,-0.012775644202180378,0.42444321460849743,0.05206175950836445,0.20298947010050067,0.3205055557826375
0.028745199454905845,-0.012775644202180378,0.01596955525272547,-0.02235737735381566,0.4246845854327427,0.051913126795662456,0.2029753512596858,0.32042693651190907
0.035133021555996034,-0.01596955525272547,0.012775644202180378,-0.006387822101090189,0.4249255932733918,0.05176475268349923,0.20296075312787065,0.3203489009152384
0.009581733151635281,-0.025551288404360755,0.0031939110505450944,0.035133021555996034,0.4251662335844927,0.05161664018902438,0.20294567143624997,0.32027145479023295
-0.04471475470763132,-0.03193911050545094,-0.025551288404360755,0.04152084365708622,0.4254065019392898,0.051468792305211106,0.20293010186723506,0.3201946038882641
-0.012775644202180378,-0.035133021555996034,-0.04471475470763132,-0.025551288404360755,0.4256463937956957,0.051321212172426446,0.2029140401157807,0.32011835391609716
-0.009581733151635281,-0.04152084365708622,-0.05110257680872151,-0.05749039890981169,0.42588590404605287,0.05117390321616778,0.2028974823899417,0.32004271034783754
-0.02235737735381566,-0.03193911050545094,-0.06387822101090188,-0.038326932606541124,0.426125026487448,0.0510268692239432,0.20288042612226614,0.31996767816634253
-0.047908665758176414,-0.02235737735381566,-0.028745199454905845,-0.038326932606541124,0.42636375351364414,0.050880114324429716,0.20286287043277249,0.3198932617291537
-0.04471475470763132,-0.025551288404360755,-0.006387822101090189,-0.05110257680872151,0.4266020763221894,0.050733642866577396,0.20284481596930443,0.3198194648419288
0.08942950941526263,-0.019163466303270562,-0.012775644202180378,-0.04471475470763132,0.4268399855298445,0.05058745930044883,0.2028262641138713,0.3197462910558354
0.13414426412289396,0.006387822101090189,0.0,0.0031939110505450944,0.4270774718396946,0.05044156808795374,0.2028072161395913,0.3196737439327605
0.12775644202180375,0.009581733151635281,0.006387822101090189,0.025551288404360755,0.4273145266491836,0.050295973562505765,0.20278767277552634,0.31960182701278445
0.09581733151635283,-0.0031939110505450944,0.012775644202180378,0.01596955525272547,0.4275511424977323,0.05015067976093042,0.20276763409642448,0.3195305436449128
0.012775644202180378,-0.0031939110505450944,-0.012775644202180378,0.04471475470763132,0.42778731308602036,0.050005690308623306,0.20274709963785825,0.319459896967498
-0.12775644202180375,-0.006387822101090189,-0.05110257680872151,0.0,0.42802303289615296,0.04986100835492767,0.20272606876255636,0.319389889986363
-0.18844075198216054,-0.0031939110505450944,-0.03193911050545094,-0.038326932606541124,0.42825829683669925,0.049716636526156655,0.20270454122063022,0.3193205254165138
-0.1596955525272547,-0.02235737735381566,-0.012775644202180378,-0.02235737735381566,0.4284931002738934,0.049572576917785556,0.20268251749716978,0.3192518053111513
-0.09581733151635283,-0.02235737735381566,-0.009581733151635281,0.0031939110505450944,0.4287274393325593,0.04942883121693804,0.2026599985364701,0.31918373091403257
0.0,-0.006387822101090189,0.0,-0.0031939110505450944,0.42896131106388735,0.049285400922904114,0.20263698518108678,0.31911630283212167
0.038326932606541124,-0.01596955525272547,-0.012775644202180378,0.025551288404360755,0.4291947133196463,0.04914228745698668,0.20261347788959488,0.31904952133377207
-0.012775644202180378,-0.028745199454905845,-0.02235737735381566,0.009581733151635281,0.4294276444423212,0.048999492155010614,0.2025894768006724,0.3189833866019958
-0.025551288404360755,-0.012775644202180378,-0.025551288404360755,-0.01596955525272547,0.4296601029085962,0.048857016315672665,0.2025649820154334,0.3189178987602977
0.0,-0.028745199454905845,-0.025551288404360755,-0.1053990646679881,0.4298920869912437,0.04871486126924604,0.20253999392246413,0.3188530578170461
0.02235737735381566,-0.028745199454905845,0.0,-0.11817470887016848,0.43012359441172376,0.04857302840005678,0.2025145132384378,0.31878886394978156
0.04152084365708622,-0.02235737735381566,0.02235737735381566,-0.05749039890981169,0.43035462209349234,0.04843151919393864,0.20248854065836905,0.3187253180542
0.0031939110505450944,-0.006387822101090189,-0.0031939110505450944,-0.047908665758176414,0.4305851662411358,0.04829033524838151,0.20246207652820564,0.3186624219822772
-0.009581733151635281,-0.02235737735381566,-0.0031939110505450944,-0.047908665758176414,0.4308152226586504,0.04814947816393335,0.20243512079976872,0.3186001783776475
-0.009581733151635281,-0.012775644202180378,-0.025551288404360755,0.05749039890981169,0.4310447869710664,0.048008949446608044,0.20240767306660415,0.31853859051572153
0.047908665758176414,-0.009581733151635281,-0.012775644202180378,0.08304168731417244,0.4312738545937642,0.047868750479018396,0.20237973266877354,0.3184776622584438
0.025551288404360755,-0.01596955525272547,-0.012775644202180378,0.1053990646679881,0.4315024205994105,0.04772888246272753,0.20235129884095931,0.3184173980969025
-0.025551288404360755,-0.028745199454905845,-0.028745199454905845,0.02235737735381566,0.4317304796368759,0.047589346389788345,0.20232237072719933,0.3183578032461365
0.006387822101090189,-0.028745199454905845,-0.02235737735381566,-0.028745199454905845,0.43195802587758436,0.0474501431712054,0.20229294747119173,0.31829888348001867
-0.02235737735381566,-0.03193911050545094,0.012775644202180378,-0.06707213206144698,0.4321850529815146,0.04731127384607977,0.20226302844004232,0.31824064473236324
-0.05110257680872151,-0.028745199454905845,-0.006387822101090189,-0.09262342046580772,0.43241155411337284,0.04717273971700711,0.20223261316630217,0.31818309300331793
0.0,-0.019163466303270562,-0.028745199454905845,-0.07345995416253714,0.43263752195928934,0.04703454235741539,0.20220170102848992,0.3181262346548054
0.028745199454905845,0.0031939110505450944,-0.02235737735381566,-0.025551288404360755,0.432862948697231,0.046896683479621566,0.2021702912185531,0.31807007660459435
0.038326932606541124,-0.01596955525272547,-0.028745199454905845,-0.028745199454905845,0.43308782603492907,0.04675916470813543,0.20213838310576543,0.3180146261511701
0.02235737735381566,-0.025551288404360755,-0.028745199454905845,-0.028745199454905845,0.43331214536163765,0.04662198744336423,0.2021059765792709,0.31795989061572727
-0.07665386521308225,-0.01596955525272547,-0.04152084365708622,0.02235737735381566,0.43353589781750684,0.046485152923446,0.20207307221719356,0.31790587704185364
-0.07984777626362735,-0.028745199454905845,-0.035133021555996034,0.025551288404360755,0.43375907426213,0.046348662336036385,0.20203967143753518,0.3178525919642984
-0.04471475470763132,-0.03193911050545094,-0.019163466303270562,0.009581733151635281,0.43398166531744053,0.0462125168933445,0.20200577656585003,0.31780004122336486
0.012775644202180378,-0.025551288404360755,0.0,0.02235737735381566,0.43420366150831285,0.04607671794912054,0.20197139057865268,0.31774822996391394
0.09581733151635283,-0.028745199454905845,0.006387822101090189,-0.025551288404360755,0.4344250534710868,0.04594126711253945,0.20193651654160102,0.3176971628747727
0.1501138193756194,-0.04152084365708622,0.0031939110505450944,-0.047908665758176414,0.4346458322305551,0.04580616629279129,0.20190115704859368,0.31764684442806
0.05749039890981169,-0.04152084365708622,-0.012775644202180378,-0.025551288404360755,0.434865989424046,0.04567141776783031,0.20186531390396653,0.3175972789041571
0.006387822101090189,-0.025551288404360755,-0.01596955525272547,-0.012775644202180378,0.4350855172571635,0.04553702428718597,0.20182898814760755,0.31754847030804306
-0.09581733151635283,-0.025551288404360755,-0.009581733151635281,-0.03193911050545094,0.4353044082532905,0.04540298905588661,0.20179218034681473,0.31750042234400816
-0.21718595143706637,-0.006387822101090189,0.009581733151635281,0.0031939110505450944,0.43552265526895423,0.04526931554093941,0.20175489079117898,0.3174531383989274
-0.1501138193756194,0.0031939110505450944,0.0031939110505450944,0.0,0.43574025204103045,0.045136007176978354,0.2017171193804968,0.3174066214014943
-0.006387822101090189,0.012775644202180378,-0.009581733151635281,-0.012775644202180378,0.435957193752034,0.045003067101452104,0.20167886546353256,0.3173608736829814
0.07984777626362735,0.02235737735381566,-0.028745199454905845,0.04152084365708622,0.4361734769004524,0.044870498083853294,0.2016401279367261,0.3173158970789683
0.047908665758176414,0.006387822101090189,-0.012775644202180378,0.10220515361744302,0.4363890985961326,0.044738302625467984,0.20160090555258123,0.31727169322581805
0.038326932606541124,-0.01596955525272547,-0.006387822101090189,0.06387822101090188,0.43660405597617774,0.04460648301146452,0.20156119706118525,0.31722826395117254
0.028745199454905845,-0.012775644202180378,0.0031939110505450944,0.012775644202180378,0.4368183460722352,0.04447504128340582,0.2015210010180154,0.31718561162634357
-0.019163466303270562,-0.02235737735381566,-0.02235737735381566,-0.02235737735381566,0.4370319659580166,0.04434397927238777,0.2014803156094077,0.317143739160188
-0.08942950941526263,-0.02235737735381566,-0.035133021555996034,-0.03193911050545094,0.43724491282274,0.044213298700025404,0.20143913885044187,0.3171026496267927
-0.07665386521308225,-0.028745199454905845,-0.02235737735381566,-0.028745199454905845,0.4374571838528563,0.04408300127227514,0.20139746901259073,0.31706234586227766
-0.019163466303270562,-0.04152084365708622,-0.038326932606541124,-0.09581733151635283,0.4376687760419403,0.04395308878083237,0.2013553048898438,0.31702283028738343
-0.0031939110505450944,-0.035133021555996034,-0.060684309960356786,-0.10220515361744302,0.4378796857621191,0.04382356324686364,0.20131264594113132,0.3169841050498858
0.01596955525272547,-0.03193911050545094,-0.025551288404360755,-0.047908665758176414,0.43808990809128634,0.04369442703034115,0.20126949258470642,0.3169461722936661
0.025551288404360755,-0.035133021555996034,0.006387822101090189,-0.025551288404360755,0.4382994365948822,0.043565682846901654,0.20122584629796605,0.31690903426024997
0.09581733151635283,-0.019163466303270562,0.012775644202180378,-0.035133021555996034,0.4385082639142096,0.043437333744053015,0.20118170911635744,0.31687269322538003
0.09581733151635283,-0.009581733151635281,0.012775644202180378,-0.006387822101090189,0.43871638261206525,0.0433093829987332,0.20113708299901573,0.31683715139018587
0.05749039890981169,-0.012775644202180378,0.0031939110505450944,0.006387822101090189,0.4389237857758348,0.04318183389233764,0.2010919695817528,0.3168024107500748
-0.009581733151635281,-0.01596955525272547,-0.028745199454905845,-0.012775644202180378,0.43913046724810983,0.04305468952235244,0.20104637022666458,0.3167684730028732
-0.09901124256689792,-0.02235737735381566,-0.019163466303270562,-0.04471475470763132,0.4393364214494335,0.04292795277972682,0.2010002862303395,0.31673533954050015
-0.07026604311199207,-0.03193911050545094,-0.025551288404360755,-0.07345995416253714,0.43954164301406234,0.042801626440159696,0.20095371904864442,0.3167030114971335
-0.009581733151635281,-0.038326932606541124,-0.012775644202180378,-0.047908665758176414,0.43974612649859496,0.04267571332163622,0.20090667030300552,0.31667148987676336
0.0,-0.028745199454905845,-0.02235737735381566,-0.019163466303270562,0.4399498661577999,0.042550216474769094,0.20085914165821403,0.31664077570921695
-0.02235737735381566,-0.01596955525272547,-0.04152084365708622,0.009581733151635281,0.44015285579637714,0.042425139263931405,0.20081113491029473,0.3166108700293966
-0.07345995416253714,-0.0031939110505450944,-0.0031939110505450944,0.07345995416253714,0.4403550887953361,0.042300485209440415,0.20076265228200593,0.31658177371321744
-0.07665386521308225,0.012775644202180378,0.006387822101090189,0.11498079781962338,0.44055655833418583,0.04217625768556962,0.20071369637246547,0.31655348760777907
-0.08623559836471753,0.0031939110505450944,-0.019163466303270562,0.1117868867690783,0.4407572576258265,0.04205245969248602,0.20066426959987227,0.3165260130818152
-0.05429648785926659,-0.01596955525272547,-0.025551288404360755,0.025551288404360755,0.44095717993994615,0.0419290937781733,0.20061437387302228,0.3164993524088582
0.009581733151635281,-0.02235737735381566,-0.012775644202180378,-0.07345995416253714,0.4411563184905137,0.04180616208992416,0.20056401083185327,0.3164735085877089
0.06707213206144698,-0.012775644202180378,-0.009581733151635281,-0.08304168731417244,0.44135466634534704,0.041683666522519966,0.200513182081624,0.31644848505050904
0.035133021555996034,-0.012775644202180378,-0.009581733151635281,-0.060684309960356786,0.441552216414959,0.04156160881955617,0.20046188905695217,0.3164242857085327
0.006387822101090189,-0.012775644202180378,-0.025551288404360755,-0.047908665758176414,0.4417489615114596,0.041439990544505555,0.2004101328626804,0.31640091508135443
0.028745199454905845,-0.01596955525272547,-0.019163466303270562,-0.05110257680872151,0.44194489432574635,0.04131881303214307,0.20035791444014692,0.31637837820196374
0.07665386521308225,-0.012775644202180378,-0.012775644202180378,-0.05110257680872151,0.4421400073536125,0.04119807739350309,0.20030523482811352,0.3163566804247709
0.07026604311199207,-0.02235737735381566,-0.012775644202180378,-0.035133021555996034,0.44233429301810434,0.04107778454671098,0.20025209514243575,0.3163358272927489
0.04152084365708622,-0.028745199454905845,0.009581733151635281,-0.009581733151635281,0.4425277439373732,0.040957935295126625,0.20019849636218034,0.3163158244053198
-0.09262342046580772,-0.05749039890981169,-0.02235737735381566,-0.012775644202180378,0.44272035306546204,0.04083853053554315,0.20014443921839065,0.3162966771806041
-0.14372599727452925,-0.047908665758176414,-0.009581733151635281,-0.009581733151635281,0.4429121136885886,0.04071957160300006,0.2000899242064758,0.3162783905019355
-0.04152084365708622,-0.04471475470763132,-0.0031939110505450944,0.0,0.4431030194855487,0.04060106057542911,0.20003495152516854,0.31626096841385365
0.01596955525272547,-0.03193911050545094,-0.006387822101090189,-0.012775644202180378,0.44329306464141316,0.04048300034499236,0.19997952090541354,0.3162444141081809
0.02235737735381566,-0.019163466303270562,-0.012775644202180378,-0.02235737735381566,0.44348224379691537,0.04036539445506765,0.19992363155189755,0.3162287301961194
0.009581733151635281,-0.0031939110505450944,-0.009581733151635281,-0.025551288404360755,0.4436705518800688,0.040248246785802175,0.19986728229942408,0.3162139190347049
-0.047908665758176414,0.0,-0.02235737735381566,-0.01596955525272547,0.44385798404272475,0.040131561162829954,0.19981047184970782,0.3161999829447375
-0.05110257680872151,0.0,-0.07026604311199207,-0.02235737735381566,0.4440445356315821,0.040015341004090405,0.19975319917395729,0.31618692419037026
0.009581733151635281,0.009581733151635281,-0.012775644202180378,0.0031939110505450944,0.4442302019886388,0.03989958912225839,0.1996954641943687,0.3161747446947343
0.04152084365708622,0.025551288404360755,0.0,-0.0031939110505450944,0.44441497831895715,0.039784307770113284,0.19963726807959647,0.31616344583133305
0.025551288404360755,0.009581733151635281,-0.009581733151635281,-0.0031939110505450944,0.44459885995226983,0.03966949888241798,0.19957861262905355,0.31615302853625876
-0.02235737735381566,-0.012775644202180378,0.009581733151635281,0.01596955525272547,0.44478184269620374,0.0395551642608248,0.19951949953136208,0.31614349351160953
-0.04471475470763132,-0.025551288404360755,-0.009581733151635281,0.006387822101090189,0.44496392290834264,0.039441305587734274,0.19945993019009595,0.31613484131382724
-0.006387822101090189,-0.03193911050545094,-0.025551288404360755,-0.07026604311199207,0.4451450973261322,0.03932792446944984,0.19939990582509695,0.316127072379321
0.035133021555996034,-0.035133021555996034,-0.047908665758176414,-0.12456253097125865,0.44532536260113387,0.039215022600640234,0.1993394276703685,0.3161201871278574
0.07665386521308225,-0.03193911050545094,-0.047908665758176414,-0.05749039890981169,0.44550471456662516,0.03910260190038442,0.19927849740186995,0.3161141861311206
0.06387822101090188,-0.025551288404360755,-0.04152084365708622,0.04471475470763132,0.44568314778682616,0.03899066452890707,0.19921711763151514,0.31610907005275163
0.060684309960356786,-0.025551288404360755,-0.006387822101090189,0.11817470887016848,0.4458606557166936,0.03887921282419471,0.1991552920277752,0.31610483943133644
0.009581733151635281,-0.019163466303270562,0.05749039890981169,0.16927728567888997,0.44603723095438774,0.03876824920821764,0.1990930249491395,0.31610149488825495
-0.028745199454905845,-0.02235737735381566,0.04471475470763132,0.07665386521308225,0.4462128650045997,0.03865777608016047,0.19903032122725797,0.31609903768798187
-0.18844075198216054,-0.04152084365708622,0.0031939110505450944,-0.03193911050545094,0.4463875480278964,0.03854779577676835,0.19896718635674204,0.3160974698385932
-0.20121639618434092,-0.025551288404360755,-0.028745199454905845,-0.05429648785926659,0.4465612694554247,0.03843831068909688,0.19890362632147932,0.31609679353399905
-0.10220515361744302,-0.025551288404360755,-0.019163466303270562,-0.03193911050545094,0.4467340190381757,0.03832932339169371,0.19883964701799947,0.3160970105521311
-0.1053990646679881,-0.028745199454905845,-0.025551288404360755,-0.03193911050545094,0.4469057872744394,0.03822083662472513,0.19877525407151853,0.3160981220293171
-0.08304168731417244,-0.006387822101090189,-0.025551288404360755,-0.05429648785926659,0.4470765652330957,0.038112853200600275,0.1987104530478158,0.3161001285184881
0.035133021555996034,-0.0031939110505450944,-0.01596955525272547,-0.07665386521308225,0.4472463443102556,0.038005375844279515,0.19864524962286828,0.3161030302225966
0.07345995416253714,-0.019163466303270562,-0.01596955525272547,-0.03193911050545094,0.4474151160832247,0.03789840697619177,0.19857964958030078,0.31610682736028267
0.09581733151635283,-0.009581733151635281,-0.025551288404360755,-0.012775644202180378,0.44758287231366284,0.03779194863069142,0.1985136587222276,0.31611152033341816
0.12456253097125865,-0.028745199454905845,-0.025551288404360755,-0.01596955525272547,0.44774960512004586,0.037686002548643044,0.1984472828903404,0.3161171094409707
0.1117868867690783,0.0,-0.03193911050545094,-0.028745199454905845,0.44791530715519595,0.0375805702721009,0.19838052812823717,0.316123594444466
0.02235737735381566,0.006387822101090189,-0.019163466303270562,-0.02235737735381566,0.448079971636678,0.03747565310595672,0.19831340083936813,0.31613097441799715
-0.06387822101090188,-0.006387822101090189,-0.006387822101090189,-0.025551288404360755,0.4482435922792013,0.03737125197694275,0.19824590779396462,0.3161392479498914
-0.08942950941526263,-0.01596955525272547,0.009581733151635281,-0.028745199454905845,0.44840616330580835,0.03726736737348944,0.19817805587350254,0.3161484134471997
-0.04152084365708622,-0.019163466303270562,-0.01596955525272547,-0.006387822101090189,0.44856767956406074,0.0371639994438021,0.19810985172838586,0.3161584692637513
-0.0031939110505450944,-0.01596955525272547,-0.01596955525272547,0.0031939110505450944,0.4487281365295302,0.03706114814803251,0.1980413017066112,0.3161694136158262
0.0031939110505450944,-0.006387822101090189,-0.01596955525272547,-0.019163466303270562,0.44888753011439736,0.03695881333826785,0.1979724120566779,0.3161812444906568
0.028745199454905845,-0.012775644202180378,-0.012775644202180378,-0.028745199454905845,0.44904585647100087,0.03685699471451007,0.1979031891010939,0.31619395971339526
0.06707213206144698,-0.025551288404360755,-0.02235737735381566,-0.0031939110505450944,0.4492031119336926,0.03675569176861565,0.19783363924720013,0.3162075570504917
0.038326932606541124,-0.038326932606541124,-0.025551288404360755,0.006387822101090189,0.44935929303333555,0.03665490389088708,0.19776376898541517,0.31622203409036226
-0.028745199454905845,-0.03193911050545094,-0.012775644202180378,-0.02235737735381566,0.44951439643988605,0.036554630625090186,0.19769358496166894,0.3162373879733549
-0.09262342046580772,-0.035133021555996034,-0.012775644202180378,-0.038326932606541124,0.4496684188677181,0.0364548718789397,0.1976230939329683,0.31625361532037377
-0.11498079781962338,-0.035133021555996034,-0.009581733151635281,-0.04152084365708622,0.4498213571288783,0.036355627988024344,0.19755230249208422,0.3162707123910132
-0.047908665758176414,-0.04152084365708622,-0.006387822101090189,-0.05429648785926659,0.44997320829616955,0.03625689972201084,0.19748121673930913,0.3162886752425104
0.02235737735381566,-0.03193911050545094,-0.012775644202180378,-0.05110257680872151,0.450123969703807,0.03615868831610078,0.1974098420981513,0.31630749988194085
0.05749039890981169,-0.025551288404360755,-0.025551288404360755,-0.07345995416253714,0.45027363870154846,0.03606099546123543,0.19733818337498685,0.31632718246222913
0.07345995416253714,-0.0031939110505450944,-0.025551288404360755,-0.09262342046580772,0.4504222123768812,0.035963823132732595,0.19726624504893703,0.3163477194414493
0.028745199454905845,-0.006387822101090189,-0.025551288404360755,-0.05429648785926659,0.4505696874405129,0.035867173258533704,0.19719403160858928,0.3163691076923642
-0.025551288404360755,0.0,-0.035133021555996034,-0.006387822101090189,0.4507160602695843,0.03577104739489423,0.197121547833049,0.3163913445024724
-0.06387822101090188,0.012775644202180378,-0.02235737735381566,0.038326932606541124,0.45086132703027876,0.03567544657317202,0.19704879905503525,0.3164144273415139
0.02235737735381566,-0.0031939110505450944,-0.0031939110505450944,0.09901124256689792,0.45100548382106154,0.035580371311196936,0.19697579118822223,0.3164383536795192
-0.009581733151635281,-0.01596955525272547,-0.012775644202180378,0.1565016414767096,0.4511485266790729,0.03548582167924561,0.1969025302865128,0.31646312135516863
-0.07026604311199207,-0.012775644202180378,-0.02235737735381566,0.1533077304261645,0.4512904512892999,0.035391797360573435,0.19682902200121277,0.31648872934891387
-0.047908665758176414,-0.012775644202180378,0.02235737735381566,0.04471475470763132,0.45143125264223466,0.0352982977056548,0.19675527145475438,0.31651517819735625
-0.009581733151635281,-0.02235737735381566,0.02235737735381566,0.01596955525272547,0.4515709250668546,0.03520532179287978,0.1966812835165272,0.31654246962373844
-0.025551288404360755,-0.04471475470763132,0.009581733151635281,-0.03193911050545094,0.4517094625407329,0.0351128685809804,0.1966070630990491,0.31657060577923757
0.009581733151635281,-0.05110257680872151,-0.038326932606541124,-0.07345995416253714,0.4518468587923543,0.035020937234013866,0.19653261523131488,0.3165995887423168
0.02235737735381566,-0.05749039890981169,-0.028745199454905845,-0.06387822101090188,0.4519831069834232,0.0349295275113073,0.196457945087715,0.31662942041755443
-0.019163466303270562,-0.05110257680872151,-0.019163466303270562,-0.02235737735381566,0.4521181993014969,0.03483864004041724,0.19638305811637538,0.3166601025417105
-0.01596955525272547,-0.047908665758176414,-0.019163466303270562,-0.02235737735381566,0.45225212694513844,0.034748276415142644,0.19630796004229317,0.3166916365974258
0.009581733151635281,-0.025551288404360755,-0.006387822101090189,-0.01596955525272547,0.45238488048388215,0.03465843912355399,0.19623265668302325,0.31672402370954067
0.035133021555996034,-0.025551288404360755,0.0,-0.060684309960356786,0.4525164502709942,0.034569131309569776,0.1961571536928663,0.31675726472656973
0.028745199454905845,-0.012775644202180378,-0.012775644202180378,-0.06707213206144698,0.45264682674032564,0.03448035644831632,0.19608145626490603,0.31679136054645185
0.047908665758176414,0.012775644202180378,-0.01596955525272547,-0.04152084365708622,0.4527760005122453,0.0343921180514569,0.19600556898983204,0.31682631244646564
0.04471475470763132,0.035133021555996034,0.0031939110505450944,-0.04152084365708622,0.4529039623900511,0.03430441950241519,0.19592949596889592,0.3168621221386378
0.05429648785926659,0.012775644202180378,0.0,-0.04152084365708622,0.4530307034362611,0.03421726408720666,0.19585324084881087,0.3168987916277214
0.0,-0.009581733151635281,-0.025551288404360755,-0.006387822101090189,0.45315621511664467,0.03413065506098932,0.1957768067189105,0.31693632310345554
-0.11498079781962338,-0.012775644202180378,-0.019163466303270562,0.0031939110505450944,0.45328048937832344,0.03404459554754017,0.19570019628920451,0.3169747187849318
-0.035133021555996034,0.01596955525272547,-0.038326932606541124,0.02235737735381566,0.45340351865482503,0.03395908839394583,0.195623412365914,0.3170139805853152
-0.07984777626362735,-0.0031939110505450944,-0.07984777626362735,0.0031939110505450944,0.4535252957099291,0.03387413611620537,0.19554645844016877,0.31705410973369663
-0.07665386521308225,-0.02235737735381566,-0.028745199454905845,-0.01596955525272547,0.45364581325611797,0.03378974086212233,0.1954693394232071,0.3170951064585526
-0.05429648785926659,-0.03193911050545094,-0.009581733151635281,-0.02235737735381566,0.45376506375845405,0.03370590445139427,0.19539206192256903,0.3171369698675827
-0.07984777626362735,-0.028745199454905845,0.0,-0.012775644202180378,0.453883039722437,0.0336226286053646,0.19531463347163858,0.31717969820055975
-0.07665386521308225,-0.035133021555996034,0.0,-0.009581733151635281,0.4539997341641394,0.03353991521347682,0.1952370614100443,0.3172232892123396
-0.025551288404360755,-0.04152084365708622,0.0031939110505450944,0.006387822101090189,0.45411514090239147,0.033457766492757085,0.19515935226264605,0.31726774034220534
0.012775644202180378,-0.03193911050545094,0.0031939110505450944,-0.012775644202180378,0.45422925454207536,0.03337618509411971,0.1950815116267874,0.3173130487370176
0.025551288404360755,-0.03193911050545094,-0.006387822101090189,-0.038326932606541124,0.4543420702443058,0.03329517414555692,0.19500354427780736,0.31735921133232997
0.05110257680872151,-0.019163466303270562,-0.009581733151635281,-0.035133021555996034,0.45445358351871196,0.0332147371657824,0.19492545429693559,0.31740622501856997
0.05429648785926659,-0.01596955525272547,-0.012775644202180378,-0.038326932606541124,0.45456379016279896,0.033134877874196625,0.19484724518351065,0.31745408677949377
0.035133021555996034,-0.019163466303270562,-0.012775644202180378,-0.03193911050545094,0.4546726862965815,0.03305559998455911,0.19476891999039223,0.3175027937284672
-0.0031939110505450944,-0.02235737735381566,-0.028745199454905845,-0.0031939110505450944,0.45478026833963975,0.03297690709198941,0.1946904815233252,0.31755234304504554
0.009581733151635281,-0.02235737735381566,0.0,-0.012775644202180378,0.45488653288971764,0.0328988026913605,0.19461193258422496,0.31760273183469695
-0.0031939110505450944,-0.025551288404360755,0.0,-0.009581733151635281,0.4549914766979499,0.032821290256577824,0.19453327599268375,0.31765395705278837
-0.019163466303270562,-0.02235737735381566,-0.01596955525272547,0.01596955525272547,0.45509509680349625,0.03274437330842626,0.19445451430680388,0.31770601558127354
0.03193911050545094,-0.025551288404360755,-0.01596955525272547,-0.035133021555996034,0.4551973905796555,0.03266805543921469,0.1943756496892527,0.31775890429187714
0.08304168731417244,-0.028745199454905845,-0.02235737735381566,-0.06387822101090188,0.4552983555859348,0.03259234030696004,0.1942966840836159,0.31781262002348926
0.06387822101090188,-0.019163466303270562,-0.028745199454905845,-0.05429648785926659,0.4553979893840698,0.032517231624297656,0.19421761940857263,0.31786715958306
0.07665386521308225,-0.019163466303270562,-0.01596955525272547,-0.04152084365708622,0.4554962894502102,0.03244273311057699,0.19413845767435678,0.31792251976485614
0.06387822101090188,-0.01596955525272547,-0.012775644202180378,-0.04471475470763132,0.4555932532531376,0.032368848397675225,0.1940592009975783,0.317978697351609
-0.006387822101090189,-0.012775644202180378,-0.025551288404360755,-0.02235737735381566,0.45568887841723155,0.032295580943798835,0.1939798515066208,0.31803568913234886
-0.025551288404360755,0.01596955525272547,-0.012775644202180378,0.04471475470763132,0.45578316274272046,0.03222293397723297,0.1939004113465419,0.31809349193350456
-0.1053990646679881,0.02235737735381566,-0.025551288404360755,0.09262342046580772,0.45587610407440693,0.03215091047939512,0.1938208827663066,0.3181521026798913
-0.14372599727452925,0.01596955525272547,-0.0031939110505450944,0.06707213206144698,0.45596770026359734,0.03207951321490833,0.19374126800915376,0.3182115185123407
-0.17247119672943506,0.0,-0.012775644202180378,0.025551288404360755,0.4560579494539424,0.03200874472267154,0.19366156899217898,0.31827173683120696
-0.2139920403865213,-0.01596955525272547,0.019163466303270562,0.035133021555996034,0.45614685065483496,0.031938607197033696,0.19358178705839738,0.3183327550897339
-0.13095035307234884,-0.019163466303270562,0.009581733151635281,-0.0031939110505450944,0.4562344042131299,0.03186910239920552,0.1935019229856775,0.31839457040198715
0.009581733151635281,-0.02235737735381566,-0.009581733151635281,-0.0031939110505450944,0.4563206118629789,0.03180023175555011,0.1934219771129282,0.31845717926854294
0.05429648785926659,-0.025551288404360755,-0.025551288404360755,-0.02235737735381566,0.45640547637286194,0.03173199655442203,0.19334194947553304,0.31852057759718316
0.05749039890981169,-0.025551288404360755,-0.047908665758176414,-0.060684309960356786,0.4564890009485813,0.031664398083354035,0.19326184011996167,0.3185847608481031
0.047908665758176414,-0.03193911050545094,-0.04471475470763132,-0.07345995416253714,0.4565711885549724,0.03159743768425982,0.1931816496499887,0.31864972411077896
-0.006387822101090189,-0.03193911050545094,-0.03193911050545094,-0.01596955525272547,0.45665204136504856,0.03153111679719484,0.19310137969770774,0.31871546214004887
0.009581733151635281,-0.04152084365708622,-0.025551288404360755,0.006387822101090189,0.4567315605830671,0.031465437058492016,0.19302103301030132,0.3187819693481396
0.06387822101090188,-0.025551288404360755,-0.012775644202180378,-0.03193911050545094,0.4568097466750514,0.03140040042216084,0.19294061317272096,0.3188492397300667
0.1117868867690783,-0.03193911050545094,-0.009581733151635281,-0.047908665758176414,0.4568865998070773,0.03133600918932073,0.19286012412329642,0.31891726688030564
0.060684309960356786,-0.028745199454905845,0.009581733151635281,-0.04152084365708622,0.45696212027370664,0.03127226593242139,0.1927795696252649,0.31898604416860715
0.009581733151635281,-0.019163466303270562,0.01596955525272547,0.0031939110505450944,0.4570363087137291,0.03120917341201056,0.19269895297088588,0.31905556490337444
0.0031939110505450944,-0.012775644202180378,0.012775644202180378,0.025551288404360755,0.4571091660739601,0.03114673447925264,0.19261827706923076,0.31912582237755655
0.009581733151635281,-0.012775644202180378,-0.025551288404360755,-0.03193911050545094,0.4571806934670996,0.03108495191560072,0.19253754472877777,0.3191968098885218
-0.025551288404360755,-0.02235737735381566,-0.0031939110505450944,-0.07026604311199207,0.45725089201597013,0.03102382829757847,0.19245675883789515,0.3192685208485562
-0.025551288404360755,-0.019163466303270562,-0.04471475470763132,-0.02235737735381566,0.45731976270190117,0.030963365987034627,0.1923759223809846,0.3193409489300795
-0.060684309960356786,-0.012775644202180378,-0.025551288404360755,0.035133021555996034,0.45738730623740603,0.03090356717933818,0.1922950385733621,0.31941408800989374
-0.060684309960356786,-0.025551288404360755,-0.012775644202180378,0.025551288404360755,0.4574535230698044,0.030844433904734618,0.19221411111704773,0.3194879319084132
