0.328671962,0.218577773,0.17921198,0.264095581
0.328641951,0.218591695,0.179152,0.264107513
0.328612218,0.218605607,0.179093736,0.264119819
0.328582764,0.21861951,0.179037193,0.264132496
0.328553591,0.218633404,0.178982377,0.264145544
0.328524699,0.218647289,0.178929295,0.26415896
0.328496088,0.218661166,0.178877951,0.264172744
0.328467759,0.218675035,0.17882835,0.264186896
0.328439711,0.218688897,0.178780499,0.264201412
0.328411944,0.218702751,0.178734401,0.264216294
0.328384458,0.218716598,0.178690062,0.264231539
0.32835725,0.218730437,0.178647486,0.264247145
0.328330322,0.218744268,0.178606676,0.264263113
0.328303674,0.218758092,0.178567637,0.26427944
0.328277306,0.218771908,0.178530373,0.264296127
0.328251219,0.218785717,0.178494886,0.264313173
0.328225415,0.21879952,0.178461179,0.264330577
0.328199895,0.218813318,0.178429254,0.264348339
0.328174658,0.218827111,0.178399114,0.264366458
0.328149707,0.218840901,0.17837076,0.264384932
0.328125042,0.218854688,0.178344193,0.264403761
0.328100664,0.218868473,0.178319413,0.264422944
0.328076573,0.218882256,0.17829642,0.26444248
0.328052768,0.218896039,0.178275216,0.264462369
0.32802925,0.218909821,0.178255801,0.264482608
0.328006018,0.218923604,0.178238177,0.264503196
0.327983071,0.218937387,0.178222345,0.264524132
0.327960408,0.218951171,0.178208308,0.264545415
0.327938026,0.218964955,0.178196067,0.264567041
0.327915927,0.218978739,0.178185624,0.26458901
0.327894109,0.218992524,0.17817698,0.26461132
0.327872572,0.21900631,0.178170135,0.264633971
0.327851317,0.219020098,0.178165091,0.264656962
0.327830343,0.21903389,0.17816185,0.264680292
0.327809651,0.219047685,0.17816041,0.264703961
0.327789239,0.219061485,0.178160774,0.264727968
0.327769108,0.219075291,0.178162939,0.264752314
0.327749258,0.219089103,0.178166907,0.264776996
0.327729688,0.219102923,0.178172676,0.264802016
0.327710398,0.219116751,0.178180246,0.264827372
0.327691385,0.219130589,0.178189615,0.264853065
0.32767265,0.219144437,0.178200784,0.264879093
0.327654191,0.219158296,0.178213753,0.264905455
0.327636005,0.219172167,0.178228522,0.26493215
0.327618091,0.21918605,0.17824509,0.264959177
0.327600447,0.219199944,0.178263458,0.264986536
0.327583073,0.219213852,0.178283625,0.265014225
0.327565969,0.219227771,0.17830559,0.265042244
0.327549133,0.219241705,0.178329351,0.265070593
0.327532567,0.219255652,0.178354908,0.265099271
0.327516271,0.219269615,0.178382259,0.265128278
0.327500244,0.219283593,0.178411401,0.265157613
0.327484486,0.219297587,0.178442333,0.265187275
0.327468999,0.219311599,0.178475052,0.265217264
0.327453782,0.219325628,0.178509554,0.265247579
0.327438835,0.219339675,0.178545837,0.265278221
0.327424156,0.219353742,0.178583899,0.265309188
0.327409747,0.219367828,0.178623736,0.265340482
0.327395609,0.219381935,0.17866535,0.265372101
0.327381745,0.219396063,0.178708741,0.265404044
0.327368156,0.219410212,0.178753909,0.265436311
0.327354846,0.219424381,0.178800855,0.2654689
0.327341817,0.219438572,0.178849581,0.265501811
0.327329074,0.219452783,0.178900087,0.265535044
0.327316622,0.219467016,0.178952373,0.265568598
0.327304463,0.219481272,0.17900644,0.265602473
0.327292604,0.21949555,0.179062288,0.265636669
0.327281048,0.219509852,0.179119918,0.265671186
0.327269802,0.219524178,0.179179331,0.265706022
0.327258871,0.21953853,0.179240525,0.265741179
0.327248262,0.219552906,0.179303502,0.265776656
0.327237981,0.219567309,0.179368261,0.265812452
0.327228033,0.219581738,0.179434803,0.265848569
0.327218426,0.219596195,0.179503127,0.265885005
0.327209166,0.219610679,0.179573235,0.265921762
0.327200258,0.21962519,0.179645127,0.265958839
0.327191708,0.219639729,0.179718802,0.265996235
0.32718352,0.219654296,0.179794261,0.26603395
0.327175701,0.219668889,0.179871503,0.266071984
0.327168254,0.219683508,0.179950526,0.266110337
0.327161188,0.219698154,0.18003133,0.266149007
0.327154506,0.219712826,0.180113913,0.266187994
0.327148215,0.219727526,0.180198274,0.266227298
0.327142321,0.219742252,0.180284409,0.266266919
0.327136828,0.219757006,0.180372317,0.266306854
0.327131743,0.219771788,0.180461995,0.266347103
0.327127072,0.219786597,0.180553439,0.266387665
0.327122819,0.219801434,0.180646645,0.266428537
0.32711899,0.219816299,0.180741609,0.266469719
0.32711559,0.219831193,0.180838325,0.26651121
0.327112622,0.219846115,0.18093679,0.266553007
0.32711009,0.219861066,0.181036996,0.266595108
0.327107997,0.219876046,0.181138937,0.266637513
0.327106346,0.219891055,0.181242608,0.266680218
0.327105139,0.219906092,0.181348,0.266723222
0.327104379,0.219921156,0.181455108,0.266766522
0.327104068,0.219936248,0.181563922,0.266810117
0.32710421,0.219951367,0.181674436,0.266854004
0.327104809,0.219966514,0.181786641,0.266898183
0.327105869,0.219981689,0.18190053,0.26694265
0.327107392,0.219996891,0.182016093,0.266987407
0.327109383,0.220012122,0.182133324,0.26703245
0.327111845,0.220027381,0.182252211,0.26707778
0.327114781,0.220042668,0.182372747,0.267123397
0.327118196,0.220057985,0.182494922,0.267169299
0.32712209,0.220073331,0.182618725,0.267215487
0.327126468,0.220088706,0.182744147,0.26726196
0.327131332,0.22010411,0.182871177,0.267308716
0.327136681,0.220119542,0.182999803,0.267355755
0.327142518,0.220135002,0.183130016,0.267403076
0.327148844,0.220150488,0.183261802,0.267450675
0.327155657,0.220165999,0.18339515,0.267498553
0.327162961,0.220181534,0.183530048,0.267546705
0.327170756,0.220197092,0.183666484,0.267595131
0.327179044,0.220212673,0.183804446,0.267643829
0.327187827,0.220228275,0.183943921,0.267692797
0.327197108,0.220243899,0.184084897,0.267742034
0.327206888,0.220259543,0.184227361,0.267791536
0.32721717,0.220275209,0.1843713,0.267841303
0.327227955,0.220290894,0.184516701,0.267891333
0.327239246,0.2203066,0.184663549,0.267941622
0.327251045,0.220322324,0.184811831,0.267992171
0.327263353,0.220338068,0.184961534,0.268042975
0.327276171,0.22035383,0.185112642,0.268094034
0.3272895,0.220369612,0.185265142,0.268145346
0.327303339,0.220385411,0.185419019,0.268196908
0.327317688,0.220401229,0.18557426,0.268248718
0.327332547,0.220417064,0.18573085,0.268300775
0.327347913,0.220432915,0.185888773,0.268353075
0.327363788,0.220448783,0.186048015,0.268405616
0.327380172,0.220464666,0.186208561,0.268458396
0.327397064,0.220480564,0.186370395,0.268511413
0.327414464,0.220496478,0.186533502,0.268564664
0.327432374,0.220512408,0.186697865,0.268618148
0.327450794,0.220528354,0.18686347,0.268671862
0.327469723,0.220544315,0.187030298,0.268725802
0.327489162,0.220560293,0.187198336,0.268779966
0.32750911,0.220576286,0.187367565,0.268834353
0.327529568,0.220592296,0.187537971,0.268888958
0.327550536,0.220608322,0.187709537,0.26894378
0.32757201,0.220624365,0.187882248,0.268998815
0.327593992,0.220640423,0.18805609,0.26905406
0.327616477,0.220656498,0.18823105,0.269109512
0.327639464,0.220672589,0.188407118,0.269165168
0.327662951,0.220688696,0.188584283,0.269221023
0.327686934,0.220704817,0.188762533,0.269277074
0.327711413,0.220720952,0.188941858,0.269333318
0.327736384,0.220737101,0.189122247,0.269389753
0.327761848,0.220753264,0.189303689,0.269446375
0.327787803,0.220769441,0.189486173,0.269503181
0.327814248,0.220785632,0.18966969,0.269560171
0.327841181,0.220801838,0.189854228,0.269617341
0.327868602,0.220818057,0.190039778,0.26967469
0.32789651,0.220834291,0.190226329,0.269732215
0.327924903,0.220850538,0.190413873,0.269789914
0.32795378,0.2208668,0.190602398,0.269847786
0.327983138,0.220883075,0.190791897,0.269905829
0.328012975,0.220899364,0.190982359,0.269964041
0.328043288,0.220915668,0.191173776,0.27002242
0.328074074,0.220931984,0.191366139,0.270080964
0.328105328,0.220948313,0.191559437,0.27013967
0.328137047,0.220964655,0.191753662,0.270198537
0.328169227,0.220981008,0.191948802,0.270257562
0.328201866,0.220997371,0.192144847,0.270316744
0.328234962,0.221013744,0.192341788,0.270376081
0.328268512,0.221030128,0.192539614,0.270435571
0.328302516,0.221046522,0.192738315,0.270495212
0.32833697,0.221062926,0.192937881,0.270555003
0.328371873,0.22107934,0.193138299,0.270614941
0.328407222,0.221095764,0.19333956,0.270675024
0.328443017,0.221112198,0.193541651,0.270735251
0.328479253,0.221128642,0.193744561,0.27079562
0.32851593,0.221145096,0.193948279,0.27085613
0.328553045,0.22116156,0.194152793,0.270916779
0.328590597,0.221178033,0.194358092,0.270977566
0.328628583,0.221194515,0.194564165,0.27103849
0.328667003,0.221211006,0.194771003,0.271099549
0.328705856,0.221227503,0.194978594,0.271160742
0.328745141,0.221244007,0.195186929,0.271222065
0.328784858,0.221260516,0.195395995,0.271283518
0.328825008,0.22127703,0.195605783,0.271345099
0.328865591,0.221293547,0.195816282,0.271406808
0.328906608,0.221310067,0.196027481,0.271468642
0.328948059,0.221326592,0.196239369,0.2715306
0.328989944,0.22134312,0.196451937,0.271592682
0.329032267,0.221359651,0.196665172,0.271654884
0.329075027,0.221376185,0.196879065,0.271717206
0.329118228,0.221392723,0.197093604,0.271779647
0.32916187,0.221409263,0.197308777,0.271842204
0.329205956,0.221425807,0.197524574,0.271904877
0.329250487,0.221442354,0.197740983,0.271967663
0.329295465,0.221458904,0.197957994,0.272030561
0.329340891,0.221475458,0.198175599,0.272093569
0.329386765,0.221492015,0.198393786,0.272156686
0.329433088,0.221508575,0.198612548,0.272219909
0.329479861,0.221525137,0.198831875,0.272283237
0.329527084,0.221541703,0.199051756,0.272346667
0.329574758,0.221558272,0.199272182,0.272410199
0.329622885,0.221574845,0.199493143,0.272473831
0.329671466,0.221591424,0.199714628,0.27253756
0.329720501,0.22160801,0.199936628,0.272601385
0.329769991,0.221624606,0.200159132,0.272665303
0.329819938,0.221641213,0.200382129,0.272729312
0.329870341,0.221657832,0.200605609,0.272793408
0.329921202,0.221674466,0.20082956,0.27285759
0.32997252,0.221691117,0.201053974,0.272921853
0.330024295,0.221707787,0.201278837,0.272986196
0.330076525,0.221724478,0.201504141,0.273050613
0.33012921,0.221741191,0.201729874,0.273115102
0.330182348,0.22175793,0.201956026,0.273179659
0.330235936,0.221774694,0.202182586,0.27324428
0.330289972,0.221791486,0.202409544,0.273308962
0.330344455,0.221808306,0.202636888,0.2733737
0.330399382,0.221825155,0.202864609,0.273438491
0.330454753,0.221842036,0.203092694,0.273503332
0.330510569,0.221858949,0.203321134,0.27356822
0.330566828,0.221875896,0.203549917,0.27363315
0.33062353,0.221892878,0.203779032,0.273698119
0.330680674,0.221909896,0.204008468,0.273763125
0.330738261,0.221926952,0.204238211,0.273828164
0.330796289,0.221944048,0.20446825,0.273893232
0.330854757,0.221961183,0.204698572,0.273958325
0.330913665,0.22197836,0.204929166,0.274023442
0.330973011,0.22199558,0.205160019,0.274088577
0.331032793,0.222012842,0.20539112,0.274153728
0.331093009,0.222030147,0.205622456,0.274218891
0.331153658,0.222047496,0.205854017,0.274284063
0.331214736,0.222064888,0.206085791,0.274349239
0.331276242,0.222082322,0.206317765,0.274414415
0.331338174,0.222099799,0.206549928,0.274479589
0.331400531,0.222117318,0.206782268,0.274544756
0.331463312,0.22213488,0.207014773,0.274609914
0.331526517,0.222152484,0.207247431,0.27467506
0.331590144,0.222170131,0.207480231,0.274740189
0.331654192,0.222187822,0.207713159,0.274805299
0.331718661,0.222205556,0.207946206,0.274870387
0.33178355,0.222223333,0.208179357,0.274935448
0.331848857,0.222241154,0.2084126,0.27500048
0.331914581,0.222259019,0.208645924,0.27506548
0.33198072,0.222276928,0.208879316,0.275130443
0.332047272,0.222294881,0.209112764,0.275195366
0.332114233,0.222312878,0.209346257,0.275260247
0.332181601,0.222330918,0.209579782,0.275325081
0.332249372,0.222349002,0.209813329,0.275389865
0.332317541,0.222367128,0.210046886,0.275454596
0.332386104,0.222385296,0.210280441,0.27551927
0.33245506,0.222403505,0.210513982,0.275583883
0.332524404,0.222421755,0.210747497,0.275648433
0.332594135,0.222440045,0.210980973,0.275712919
0.332664249,0.222458375,0.211214398,0.275777337
0.332734744,0.222476745,0.21144776,0.275841685
0.332805618,0.222495154,0.211681044,0.275905961
0.332876867,0.222513602,0.211914237,0.275970162
0.33294849,0.222532089,0.212147328,0.276034287
0.333020483,0.222550614,0.2123803,0.276098332
0.333092844,0.222569176,0.212613142,0.276162296
0.333165568,0.222587777,0.21284584,0.276226177
0.333238654,0.222606415,0.213078379,0.27628997
0.333312095,0.222625089,0.213310748,0.276353676
0.333385887,0.2226438,0.213542931,0.27641729
0.333460026,0.222662545,0.213774917,0.27648081
0.333534506,0.222681325,0.214006691,0.276544233
0.333609323,0.222700138,0.214238241,0.276607557
0.333684473,0.222718984,0.214469553,0.276670778
0.333759953,0.222737861,0.214700614,0.276733893
0.333835759,0.22275677,0.214931411,0.276796901
0.333911888,0.222775712,0.215161929,0.276859796
0.333988337,0.222794684,0.215392156,0.276922578
0.334065103,0.222813689,0.215622078,0.276985241
0.334142182,0.222832725,0.21585168,0.277047784
0.334219571,0.222851793,0.216080949,0.277110203
0.334297268,0.222870893,0.21630987,0.277172496
0.334375267,0.222890023,0.216538429,0.27723466
0.334453566,0.222909186,0.216766613,0.277296691
0.334532159,0.22292838,0.216994407,0.277358588
0.334611043,0.222947604,0.217221799,0.277420346
0.334690211,0.222966858,0.217448774,0.277481964
0.334769659,0.222986142,0.21767532,0.277543436
0.334849381,0.223005453,0.217901421,0.277604761
0.334929373,0.223024791,0.218127065,0.277665934
0.335009632,0.223044156,0.218352237,0.277726952
0.335090154,0.223063546,0.218576924,0.277787813
0.335170935,0.223082961,0.218801113,0.277848512
0.335251971,0.2231024,0.219024789,0.277909046
0.335333258,0.223121864,0.219247938,0.277969411
0.335414792,0.223141351,0.219470547,0.278029604
0.33549657,0.22316086,0.219692602,0.278089621
0.335578587,0.223180391,0.219914089,0.278149458
0.33566084,0.223199944,0.220134993,0.27820911
0.335743323,0.223219518,0.220355303,0.278268576
0.335826031,0.223239112,0.220575003,0.27832785
0.335908959,0.223258725,0.220794083,0.27838693
0.335992102,0.223278356,0.221012529,0.27844581
0.336075453,0.223298005,0.221230333,0.278504487
0.336159006,0.22331767,0.221447482,0.278562956
0.336242755,0.22333735,0.221663966,0.278621212
0.336326694,0.223357042,0.221879775,0.278679252
0.336410818,0.223376747,0.222094899,0.278737073
0.336495122,0.223396464,0.222309326,0.27879467
0.3365796,0.223416191,0.222523047,0.27885204
0.336664249,0.223435929,0.222736052,0.27890918
0.336749062,0.223455676,0.22294833,0.278966087
0.336834036,0.223475431,0.22315987,0.279022757
0.336919164,0.223495194,0.223370664,0.279079187
0.337004443,0.223514964,0.223580701,0.279135373
0.337089867,0.22353474,0.223789971,0.279191313
0.33717543,0.223554521,0.223998464,0.279247004
0.337261126,0.223574307,0.224206173,0.279302443
0.337346949,0.223594096,0.224413086,0.279357627
0.337432893,0.223613887,0.224619196,0.279412553
0.33751895,0.223633679,0.224824493,0.27946722
0.337605113,0.22365347,0.225028968,0.279521623
0.337691376,0.223673258,0.225232614,0.279575762
0.337777734,0.223693043,0.22543542,0.279629634
0.337864181,0.223712821,0.225637378,0.279683238
0.337950712,0.223732594,0.225838481,0.279736573
0.338037323,0.223752359,0.226038718,0.279789639
0.338124008,0.223772116,0.226238082,0.279842434
0.338210764,0.223791864,0.226436564,0.279894957
0.338297585,0.223811602,0.226634156,0.279947208
0.338384466,0.223831329,0.226830848,0.279999187
0.338471404,0.223851044,0.227026632,0.280050891
0.338558392,0.223870746,0.227221499,0.280102322
0.338645425,0.223890436,0.22741544,0.280153479
0.338732497,0.22391011,0.227608448,0.28020436
0.338819603,0.22392977,0.227800518,0.280254964
0.338906735,0.223949413,0.227991642,0.280305292
0.338993887,0.223969039,0.228181814,0.28035534
0.339081053,0.223988646,0.228371028,0.280405109
0.339168227,0.224008232,0.228559279,0.280454596
0.339255403,0.224027797,0.22874656,0.280503803
0.339342577,0.224047339,0.228932866,0.280552726
0.339429745,0.224066859,0.229118191,0.280601367
0.3395169,0.224086356,0.229302529,0.280649723
0.339604039,0.22410583,0.229485875,0.280697795
0.339691157,0.22412528,0.229668223,0.28074558
0.339778248,0.224144706,0.229849568,0.28079308
0.339865309,0.224164108,0.230029904,0.280840292
0.339952335,0.224183486,0.230209224,0.280887217
0.340039321,0.224202838,0.230387524,0.280933854
0.340126262,0.224222166,0.230564797,0.280980202
0.340213151,0.224241469,0.230741039,0.28102626
0.340299983,0.224260747,0.230916245,0.281072029
0.340386753,0.224279998,0.231090411,0.281117508
0.340473454,0.224299223,0.231263534,0.281162694
0.340560079,0.224318419,0.231435609,0.281207588
0.340646624,0.224337587,0.231606633,0.281252188
0.340733084,0.224356726,0.231776602,0.281296495
0.340819455,0.224375834,0.231945511,0.281340507
0.340905732,0.224394911,0.232113357,0.281384225
0.34099191,0.224413958,0.232280135,0.281427647
0.341077987,0.224432973,0.232445842,0.281470774
0.341163956,0.224451956,0.232610472,0.281513606
0.341249815,0.224470906,0.232774021,0.28155614
0.341335559,0.224489824,0.232936485,0.281598377
0.341421183,0.224508707,0.23309786,0.281640317
0.341506683,0.224527557,0.23325814,0.281681959
0.341592055,0.224546371,0.233417324,0.281723302
0.341677291,0.22456515,0.23357541,0.281764345
0.341762388,0.224583893,0.233732397,0.281805089
0.341847339,0.224602599,0.233888286,0.281845531
0.341932138,0.224621267,0.234043077,0.281885672
0.342016781,0.224639896,0.234196771,0.281925511
0.342101262,0.224658483,0.234349367,0.281965048
0.342185578,0.22467703,0.234500868,0.282004284
0.342269725,0.224695535,0.234651272,0.282043221
0.342353698,0.224713998,0.234800581,0.282081858
0.342437494,0.224732417,0.234948796,0.282120197
0.34252111,0.224750794,0.235095918,0.28215824
0.342604542,0.224769126,0.235241947,0.282195987
0.342687787,0.224787412,0.235386886,0.28223344
0.342770841,0.224805654,0.235530736,0.282270602
0.342853701,0.224823848,0.235673498,0.282307473
0.342936364,0.224841995,0.235815174,0.282344058
0.343018825,0.224860094,0.235955768,0.282380357
0.343101079,0.224878144,0.23609528,0.282416372
0.343183124,0.224896143,0.236233715,0.282452107
0.343264952,0.22491409,0.236371072,0.282487562
0.343346562,0.224931984,0.236507355,0.282522739
0.343427947,0.224949822,0.236642565,0.282557641
0.343509105,0.224967605,0.236776704,0.282592269
0.343590033,0.224985331,0.236909774,0.282626626
0.343670727,0.225003,0.237041776,0.282660715
0.343751185,0.225020612,0.237172712,0.282694537
0.343831403,0.225038167,0.237302584,0.282728095
0.343911378,0.225055663,0.237431392,0.28276139
0.343991108,0.225073102,0.237559139,0.282794424
0.344070589,0.225090482,0.237685826,0.282827201
0.344149818,0.225107803,0.237811452,0.282859722
0.344228792,0.225125066,0.237936019,0.282891989
0.344307506,0.22514227,0.238059529,0.282924005
0.344385955,0.225159414,0.238181983,0.28295577
0.344464136,0.225176498,0.238303382,0.282987287
0.344542042,0.225193523,0.23842373,0.283018556
0.344619668,0.225210486,0.238543026,0.283049577
0.34469701,0.225227387,0.238661274,0.283080352
0.344774062,0.225244225,0.238778474,0.283110881
0.344850821,0.225260999,0.238894627,0.283141165
0.344927283,0.22527771,0.239009736,0.283171206
0.345003443,0.225294358,0.2391238,0.283201005
0.345079299,0.22531094,0.239236821,0.283230564
0.345154845,0.225327459,0.2393488,0.283259883
0.34523008,0.225343912,0.239459736,0.283288964
0.345304999,0.225360301,0.23956963,0.283317809
0.345379598,0.225376623,0.239678481,0.283346421
0.345453874,0.225392879,0.23978629,0.283374799
0.345527822,0.225409069,0.239893055,0.283402947
0.345601438,0.225425192,0.239998779,0.283430864
0.345674717,0.225441247,0.240103464,0.283458552
0.345747654,0.225457232,0.240207114,0.283486013
0.345820244,0.225473148,0.240309734,0.283513247
0.345892481,0.225488992,0.240411327,0.283540256
0.345964361,0.225504763,0.2405119,0.28356704
0.34603588,0.225520459,0.240611457,0.2835936
0.346107034,0.225536079,0.240710002,0.283619938
0.346177821,0.225551622,0.240807542,0.283646056
0.346248239,0.225567088,0.24090408,0.283671954
0.346318283,0.225582474,0.240999621,0.283697635
0.346387952,0.22559778,0.241094172,0.283723098
0.346457244,0.225613006,0.241187737,0.283748346
0.346526156,0.225628149,0.241280322,0.283773378
0.346594686,0.225643209,0.241371931,0.283798197
0.346662832,0.225658186,0.241462571,0.283822802
0.346730589,0.225673077,0.241552247,0.283847194
0.346797956,0.225687883,0.241640966,0.283871373
0.346864927,0.225702603,0.241728735,0.28389534
0.3469315,0.225717234,0.241815558,0.283919093
0.346997669,0.225731776,0.241901441,0.283942633
0.347063431,0.225746227,0.24198639,0.283965958
0.347128782,0.225760585,0.24207041,0.283989068
0.34719372,0.22577485,0.242153506,0.284011962
0.347258242,0.22578902,0.242235682,0.28403464
0.347322346,0.225803095,0.242316945,0.284057102
0.34738603,0.225817075,0.242397298,0.284079347
0.347449291,0.225830959,0.242476747,0.284101375
0.347512127,0.225844747,0.242555296,0.284123185
0.347574538,0.225858438,0.242632949,0.284144778
0.34763652,0.225872033,0.242709711,0.284166153
0.347698072,0.22588553,0.242785585,0.28418731
0.347759192,0.225898929,0.242860574,0.284208248
0.347819877,0.225912231,0.242934684,0.284228967
0.347880124,0.225925434,0.243007918,0.284249467
0.347939929,0.22593854,0.243080281,0.284269745
0.347999289,0.225951547,0.243151778,0.284289801
0.3480582,0.225964454,0.243222414,0.284309632
0.348116659,0.225977262,0.243292192,0.284329236
0.348174661,0.22598997,0.243361118,0.284348612
0.348232206,0.226002578,0.243429195,0.28436776
0.34828929,0.226015085,0.243496427,0.284386676
0.348345911,0.226027492,0.243562818,0.284405361
0.348402067,0.226039798,0.243628373,0.284423812
0.348457755,0.226052006,0.243693094,0.284442028
0.348512975,0.226064113,0.243756985,0.284460006
0.348567723,0.226076121,0.243820049,0.284477745
0.348621999,0.22608803,0.24388229,0.284495243
0.3486758,0.226099839,0.243943709,0.284512499
0.348729123,0.22611155,0.24400431,0.284529509
0.348781966,0.226123161,0.244064095,0.284546273
0.348834324,0.226134674,0.244123068,0.284562789
0.348886195,0.226146088,0.24418123,0.284579055
0.348937574,0.226157402,0.244238585,0.284595068
0.348988458,0.226168616,0.244295135,0.284610827
0.349038842,0.22617973,0.244350882,0.284626331
0.349088724,0.226190742,0.244405829,0.284641578
0.349138103,0.226201654,0.244459976,0.284656568
0.349186976,0.226212464,0.244513327,0.284671301
0.349235342,0.226223172,0.244565881,0.284685777
0.349283199,0.226233779,0.244617641,0.284699995
0.349330546,0.226244285,0.244668608,0.284713955
0.349377382,0.226254688,0.244718781,0.284727657
0.349423705,0.226264989,0.244768161,0.284741101
0.349469516,0.226275187,0.244816748,0.284754288
0.349514811,0.226285281,0.244864543,0.284767219
0.349559591,0.226295272,0.244911547,0.284779894
0.349603852,0.226305159,0.24495776,0.284792313
0.349647594,0.226314941,0.245003183,0.284804477
0.349690813,0.226324617,0.24504782,0.284816385
0.349733507,0.226334188,0.24509167,0.284828038
0.349775674,0.226343651,0.245134737,0.284839435
0.349817313,0.226353006,0.24517702,0.284850575
0.349858421,0.226362252,0.245218521,0.284861457
0.349899,0.226371389,0.245259242,0.284872083
0.349939047,0.226380417,0.245299184,0.284882451
0.349978564,0.226389336,0.245338347,0.28489256
0.350017549,0.226398146,0.245376732,0.28490241
0.350056003,0.226406847,0.24541434,0.284911999
0.350093926,0.22641544,0.245451171,0.284921328
0.350131317,0.226423924,0.245487226,0.284930396
0.350168176,0.2264323,0.245522502,0.284939201
0.350204503,0.226440567,0.245557001,0.284947745
0.350240296,0.226448726,0.245590723,0.284956025
0.350275555,0.226456777,0.245623668,0.284964042
0.350310278,0.226464719,0.245655836,0.284971796
0.350344464,0.226472551,0.245687228,0.284979286
0.35037811,0.226480274,0.245717845,0.284986511
0.350411216,0.226487887,0.245747687,0.28499347
0.350443781,0.226495388,0.245776754,0.285000163
0.350475805,0.226502779,0.245805047,0.285006591
0.350507288,0.226510058,0.245832566,0.285012754
0.35053823,0.226517226,0.245859311,0.285018651
0.350568631,0.226524283,0.245885283,0.285024283
0.35059849,0.226531229,0.245910481,0.285029649
0.350627807,0.226538063,0.245934905,0.28503475
0.350656584,0.226544787,0.245958555,0.285039586
0.350684819,0.2265514,0.245981429,0.285044156
0.350712513,0.226557903,0.246003527,0.285048461
0.350739664,0.226564295,0.246024849,0.2850525
0.350766273,0.226570577,0.246045393,0.285056274
0.350792337,0.226576749,0.246065159,0.285059781
0.350817855,0.226582811,0.246084147,0.285063023
0.350842825,0.226588763,0.246102356,0.285065997
0.350867245,0.226594604,0.246119787,0.285068703
0.350891113,0.226600334,0.246136438,0.285071141
0.350914428,0.226605952,0.246152308,0.285073311
0.350937189,0.226611458,0.246167399,0.285075212
0.350959398,0.226616853,0.246181708,0.285076845
0.350981053,0.226622137,0.246195235,0.28507821
0.351002155,0.226627309,0.24620798,0.285079309
0.351022705,0.22663237,0.246219942,0.285080142
0.351042702,0.226637319,0.246231119,0.285080709
0.351062148,0.226642158,0.24624151,0.285081012
0.351081042,0.226646886,0.246251115,0.285081052
0.351099386,0.226651503,0.246259932,0.285080829
0.351117179,0.22665601,0.246267961,0.285080346
0.35113442,0.226660406,0.246275203,0.285079604
0.351151109,0.226664692,0.24628166,0.285078604
0.351167245,0.226668868,0.246287337,0.285077348
0.351182826,0.226672933,0.246292237,0.285075835
0.351197852,0.226676887,0.246296365,0.285074067
0.351212322,0.22668073,0.246299725,0.285072045
0.351226235,0.22668446,0.246302322,0.285069771
0.351239594,0.22668808,0.24630416,0.285067244
0.351252398,0.226691588,0.246305244,0.285064467
0.351264648,0.226694986,0.246305579,0.28506144
0.351276344,0.226698274,0.246305169,0.285058165
0.351287488,0.226701453,0.246304021,0.285054642
0.35129808,0.226704523,0.24630214,0.285050873
0.351308122,0.226707485,0.246299529,0.28504686
0.351317614,0.226710338,0.246296195,0.285042603
0.351326557,0.226713085,0.246292143,0.285038103
0.35133495,0.226715724,0.246287379,0.285033361
0.351342795,0.226718257,0.246281909,0.285028378
0.35135009,0.226720683,0.246275739,0.285023154
0.351356835,0.226723003,0.246268873,0.285017689
0.35136303,0.226725215,0.246261317,0.285011982
0.351368674,0.226727321,0.246253076,0.285006034
0.351373767,0.226729319,0.246244155,0.284999845
0.35137831,0.22673121,0.246234557,0.284993416
0.351382303,0.226732994,0.246224289,0.284986748
0.351385747,0.22673467,0.246213353,0.284979841
0.351388642,0.226736241,0.246201754,0.284972696
0.351390989,0.226737705,0.246189496,0.284965315
0.351392789,0.226739064,0.246176582,0.284957697
0.351394043,0.226740317,0.246163015,0.284949844
0.35139475,0.226741465,0.246148798,0.284941756
0.351394912,0.226742508,0.246133933,0.284933435
0.351394528,0.226743447,0.246118424,0.284924881
0.351393598,0.226744282,0.246102273,0.284916094
0.35139212,0.226745013,0.246085484,0.284907075
0.351390094,0.226745641,0.24606806,0.284897824
0.351387518,0.226746166,0.246050004,0.284888342
0.351384391,0.226746588,0.246031322,0.284878627
0.35138071,0.226746907,0.246012016,0.28486868
0.351376476,0.226747121,0.24599209,0.284858501
0.351371688,0.226747232,0.245971549,0.284848091
0.351366348,0.22674724,0.245950396,0.284837453
0.351360455,0.226747145,0.245928634,0.284826586
0.35135401,0.226746948,0.245906268,0.284815491
0.351347014,0.226746648,0.2458833,0.284804171
0.351339468,0.226746247,0.245859735,0.284792625
0.351331373,0.226745745,0.245835574,0.284780854
0.351322729,0.226745142,0.245810821,0.284768861
0.351313537,0.226744438,0.245785479,0.284756646
0.351303797,0.226743634,0.245759551,0.28474421
0.351293509,0.226742729,0.245733041,0.284731555
0.351282674,0.226741726,0.245705955,0.284718683
0.35127129,0.226740622,0.245678296,0.284705594
0.351259358,0.226739418,0.24565007,0.284692288
0.351246875,0.226738114,0.245621281,0.284678766
0.351233843,0.22673671,0.245591936,0.28466503
0.351220263,0.226735205,0.245562037,0.28465108
0.351206135,0.2267336,0.24553159,0.284636917
0.351191461,0.226731895,0.2455006,0.284622544
0.351176243,0.226730092,0.245469069,0.284607959
0.351160481,0.226728191,0.245437004,0.284593166
0.351144178,0.226726193,0.245404408,0.284578165
0.351127335,0.226724099,0.245371284,0.284562958
0.351109954,0.226721909,0.245337637,0.284547546
0.351092036,0.226719625,0.245303469,0.284531931
0.351073582,0.226717247,0.245268785,0.284516114
0.351054594,0.226714776,0.245233587,0.284500096
0.351035071,0.226712212,0.24519788,0.284483878
0.351015015,0.226709558,0.245161667,0.284467463
0.350994424,0.226706811,0.245124952,0.28445085
0.3509733,0.226703975,0.245087738,0.284434041
0.350951642,0.226701047,0.245050029,0.284417037
0.350929452,0.22669803,0.245011826,0.284399839
0.35090673,0.226694923,0.244973134,0.284382448
0.350883479,0.226691728,0.244933954,0.284364865
0.3508597,0.226688445,0.244894289,0.284347094
0.350835394,0.226685076,0.244854141,0.284329133
0.350810563,0.226681622,0.244813511,0.284310986
0.350785208,0.226678083,0.244772402,0.284292653
0.350759332,0.22667446,0.244730815,0.284274135
0.350732936,0.226670755,0.244688751,0.284255434
0.350706021,0.226666967,0.244646211,0.28423655
0.350678589,0.226663099,0.244603197,0.284217484
0.350650639,0.226659151,0.244559709,0.284198238
0.350622173,0.226655125,0.244515748,0.284178811
0.350593191,0.22665102,0.244471316,0.284159205
0.350563692,0.226646838,0.244426413,0.28413942
0.350533675,0.22664258,0.24438104,0.284119456
0.350503141,0.226638245,0.244335198,0.284099312
0.350472091,0.226633836,0.244288888,0.284078989
0.350440525,0.226629352,0.244242111,0.284058488
0.350408445,0.226624796,0.244194868,0.284037809
0.350375852,0.226620169,0.244147159,0.284016952
0.350342747,0.226615473,0.244098986,0.283995919
0.350309131,0.226610711,0.244050348,0.28397471
0.350275006,0.226605883,0.244001246,0.283953326
0.350240373,0.226600992,0.24395168,0.283931769
0.350205232,0.226596039,0.243901651,0.283910038
0.350169584,0.226591027,0.243851159,0.283888136
0.35013343,0.226585957,0.243800204,0.283866064
0.350096769,0.226580832,0.243748787,0.283843823
0.350059602,0.226575654,0.24369691,0.283821414
0.350021929,0.226570423,0.243644572,0.283798839
0.349983748,0.226565142,0.243591775,0.2837761
0.349945059,0.226559812,0.24353852,0.283753196
0.349905863,0.226554433,0.243484808,0.283730132
0.349866161,0.226549008,0.243430638,0.283706908
0.349825954,0.226543537,0.243376011,0.283683527
0.349785244,0.226538023,0.243320929,0.283659991
0.349744033,0.226532467,0.24326539,0.283636303
0.349702323,0.22652687,0.243209395,0.283612465
0.349660115,0.226521235,0.243152945,0.283588478
0.349617412,0.226515562,0.243096038,0.283564343
0.349574217,0.226509853,0.243038675,0.283540064
0.34953053,0.22650411,0.242980855,0.283515643
0.349486354,0.226498334,0.242922578,0.28349108
0.34944169,0.226492525,0.242863843,0.283466378
0.349396539,0.226486686,0.24280465,0.283441538
0.349350902,0.226480818,0.242745001,0.283416563
0.34930478,0.22647492,0.242684896,0.283391452
0.349258172,0.226468994,0.242624334,0.283366206
0.349211079,0.226463039,0.242563316,0.283340827
0.349163503,0.226457058,0.242501843,0.283315313
0.349115444,0.22645105,0.242439914,0.283289667
0.349066905,0.226445016,0.242377529,0.283263889
0.349017888,0.226438959,0.242314689,0.28323798
0.348968393,0.226432878,0.242251391,0.28321194
0.348918424,0.226426776,0.242187637,0.283185771
0.348867982,0.226420654,0.242123425,0.283159472
0.348817069,0.226414512,0.242058754,0.283133044
0.348765687,0.226408352,0.241993624,0.283106488
0.348713839,0.226402176,0.241928032,0.283079805
0.348661524,0.226395985,0.241861978,0.283052995
0.348608746,0.22638978,0.24179546,0.283026059
0.348555504,0.226383562,0.241728477,0.282998997
0.348501798,0.226377332,0.241661028,0.282971811
0.34844763,0.226371092,0.241593111,0.282944501
0.348392998,0.226364842,0.241524724,0.282917067
0.348337904,0.226358583,0.241455866,0.282889511
0.348282348,0.226352316,0.241386535,0.282861833
0.348226333,0.226346042,0.24131673,0.282834036
0.34816986,0.226339762,0.241246447,0.282806121
0.348112931,0.22633348,0.241175685,0.28277809
0.348055549,0.226327195,0.241104442,0.282749943
0.347997715,0.226320911,0.241032715,0.282721683
0.347939432,0.226314629,0.240960502,0.282693312
0.347880702,0.22630835,0.240887799,0.28266483
0.347821528,0.226302076,0.240814605,0.28263624
0.34776191,0.22629581,0.240740916,0.282607544
0.34770185,0.226289552,0.24066673,0.282578744
0.34764135,0.226283306,0.240592047,0.282549842
0.347580411,0.226277071,0.240516863,0.282520839
0.347519032,0.226270852,0.240441178,0.282491737
0.347457214,0.226264647,0.24036499,0.282462538
0.347394958,0.226258459,0.240288297,0.282433242
0.347332264,0.226252289,0.240211099,0.282403851
0.347269135,0.226246138,0.240133392,0.282374367
0.347205574,0.226240008,0.240055176,0.282344791
0.347141583,0.226233901,0.239976449,0.282315126
0.347077164,0.226227818,0.239897209,0.282285374
0.347012321,0.226221761,0.239817455,0.282255535
0.346947057,0.226215732,0.239737184,0.282225614
0.346881376,0.226209733,0.239656393,0.282195611
0.34681528,0.226203765,0.239575082,0.282165529
0.346748775,0.226197829,0.239493247,0.28213537
0.346681861,0.226191928,0.239410886,0.282105138
0.346614542,0.226186062,0.239327998,0.282074835
0.34654682,0.226180233,0.239244581,0.282044463
0.346478696,0.226174442,0.239160634,0.282014024
0.346410172,0.22616869,0.239076157,0.281983521
0.346341249,0.226162977,0.238991148,0.281952955
0.346271929,0.226157306,0.238905607,0.281922328
0.346202213,0.226151675,0.238819532,0.281891642
0.346132104,0.226146088,0.238732922,0.281860898
0.346061604,0.226140544,0.238645777,0.281830099
0.345990715,0.226135046,0.238558095,0.281799247
0.345919441,0.226129595,0.238469876,0.281768342
0.345847782,0.226124192,0.238381117,0.281737387
0.345775741,0.226118838,0.238291819,0.281706383
0.34570332,0.226113536,0.23820198,0.28167533
0.345630522,0.226108286,0.238111599,0.281644229
0.345557349,0.226103089,0.238020675,0.281613084
0.345483802,0.226097947,0.237929205,0.281581894
0.345409883,0.226092861,0.23783719,0.281550661
0.345335593,0.226087832,0.237744627,0.281519387
0.345260934,0.22608286,0.237651517,0.281488073
0.345185905,0.226077945,0.237557858,0.281456719
0.345110507,0.226073088,0.237463649,0.281425327
0.345034741,0.226068289,0.237368888,0.281393896
0.344958609,0.226063547,0.237273576,0.281362427
0.344882113,0.226058863,0.23717771,0.281330921
0.344805255,0.226054237,0.23708129,0.28129938
0.344728039,0.226049669,0.236984314,0.281267804
0.344650465,0.22604516,0.236886781,0.281236195
0.344572538,0.226040711,0.236788689,0.281204553
0.344494261,0.226036321,0.236690036,0.281172879
0.344415636,0.22603199,0.236590821,0.281141176
0.344336667,0.22602772,0.236491041,0.281109444
0.344257356,0.226023509,0.236390696,0.281077685
0.344177705,0.226019359,0.236289783,0.2810459
0.344097718,0.226015269,0.236188304,0.281014091
0.344017395,0.22601124,0.236086259,0.280982259
0.343936738,0.226007272,0.235983649,0.280950407
0.343855748,0.226003364,0.235880476,0.280918536
0.343774426,0.225999516,0.235776742,0.280886648
0.343692774,0.225995729,0.235672448,0.280854748
0.343610793,0.225992001,0.235567597,0.280822838
0.343528487,0.225988333,0.23546219,0.280790923
0.343445858,0.225984726,0.23535623,0.280759008
0.343362909,0.225981181,0.235249721,0.280727096
0.343279641,0.225977699,0.235142663,0.280695193
0.343196057,0.225974281,0.23503506,0.280663302
0.34311216,0.225970928,0.234926914,0.280631428
0.343027953,0.22596764,0.234818227,0.280599574
0.342943436,0.225964419,0.234709001,0.280567746
0.342858612,0.225961265,0.234599239,0.280535948
0.342773481,0.22595818,0.234488942,0.280504184
0.342688046,0.225955165,0.234378114,0.280472457
0.342602305,0.22595222,0.234266757,0.280440774
0.342516259,0.225949347,0.234154877,0.280409137
0.342429909,0.225946545,0.234042474,0.280377552
0.342343254,0.225943816,0.233929553,0.280346022
0.342256294,0.22594116,0.233816116,0.280314553
0.342169033,0.225938578,0.233702166,0.280283149
0.342081469,0.225936071,0.233587707,0.280251816
0.341993606,0.225933641,0.233472741,0.280220558
0.341905444,0.22593129,0.23335727,0.280189381
0.341816986,0.225929019,0.233241298,0.280158288
0.341728234,0.225926831,0.233124825,0.280127285
0.341639189,0.225924726,0.233007855,0.280096376
0.341549853,0.225922707,0.232890388,0.280065564
0.341460228,0.225920775,0.232772427,0.280034855
0.341370315,0.225918932,0.232653972,0.280004251
0.341280115,0.22591718,0.232535025,0.279973757
0.34118963,0.22591552,0.232415588,0.279943375
0.341098859,0.225913954,0.232295663,0.27991311
0.341007804,0.225912482,0.23217525,0.279882963
0.340916463,0.225911106,0.232054351,0.279852938
0.340824838,0.225909826,0.231932969,0.279823037
0.340732929,0.225908643,0.231811103,0.279793263
0.340640739,0.225907557,0.231688756,0.279763619
0.34054827,0.22590657,0.231565928,0.279734109
0.340455525,0.225905682,0.23144262,0.279704734
0.340362504,0.225904896,0.231318833,0.279675498
0.340269211,0.225904212,0.231194569,0.279646404
0.340175649,0.22590363,0.231069827,0.279617455
0.340081819,0.225903152,0.230944608,0.279588653
0.339987724,0.225902779,0.230818913,0.279560001
0.339893366,0.225902512,0.230692742,0.279531501
0.339798747,0.22590235,0.230566096,0.279503157
0.339703869,0.225902296,0.230438978,0.27947497
0.339608732,0.225902349,0.230311388,0.279446943
0.339513338,0.225902511,0.23018333,0.27941908
0.339417688,0.225902782,0.230054804,0.279391382
0.339321782,0.225903161,0.229925814,0.279363851
0.339225622,0.225903649,0.22979636,0.279336491
0.339129211,0.225904247,0.229666445,0.279309304
0.339032552,0.225904956,0.22953607,0.279282292
0.338935647,0.225905777,0.229405238,0.279255459
0.3388385,0.225906711,0.22927395,0.279228809
0.338741114,0.22590776,0.229142208,0.279202343
0.338643493,0.225908925,0.229010013,0.279176065
0.338545641,0.225910206,0.228877366,0.279149979
0.338447562,0.225911606,0.228744269,0.279124086
0.338349258,0.225913124,0.228610721,0.279098391
0.338250734,0.225914764,0.228476726,0.279072894
0.338151993,0.225916524,0.228342283,0.2790476
0.338053036,0.225918407,0.228207397,0.279022509
0.337953867,0.225920413,0.228072071,0.278997623
0.337854488,0.225922543,0.22793631,0.278972945
0.3377549,0.225924798,0.227800118,0.278948474
0.337655105,0.225927178,0.2276635,0.278924211
0.337555106,0.225929683,0.22752646,0.278900159
0.337454907,0.225932315,0.227389004,0.278876316
0.33735451,0.225935075,0.227251136,0.278852686
0.337253918,0.225937962,0.22711286,0.278829269
0.337153136,0.22594098,0.226974182,0.278806066
0.337052165,0.225944129,0.226835107,0.27878308
0.336951011,0.22594741,0.226695639,0.27876031
0.336849676,0.225950824,0.226555784,0.278737759
0.336748163,0.225954372,0.226415545,0.278715427
0.336646476,0.225958056,0.226274929,0.278693316
0.336544618,0.225961876,0.226133939,0.278671425
0.336442591,0.225965835,0.225992581,0.278649757
0.336340398,0.225969931,0.225850858,0.278628312
0.336238041,0.225974168,0.225708777,0.278607091
0.336135522,0.225978544,0.225566342,0.278586095
0.336032842,0.22598306,0.225423557,0.278565325
0.335930004,0.225987717,0.225280427,0.278544782
0.335827011,0.225992514,0.225136955,0.278524467
0.335723866,0.225997451,0.224993146,0.278504382
0.335620572,0.22600253,0.224849004,0.278484529
0.335517134,0.226007751,0.224704534,0.278464911
0.335413555,0.226013114,0.224559739,0.278445529
0.33530984,0.226018619,0.224414622,0.278426385
0.335205991,0.226024267,0.224269188,0.278407482
0.335102015,0.226030059,0.22412344,0.278388821
0.334997913,0.226035994,0.223977382,0.278370404
0.334893689,0.226042073,0.223831016,0.278352233
0.334789347,0.226048296,0.223684349,0.27833431
0.33468489,0.226054663,0.223537382,0.278316636
0.334580318,0.226061174,0.223390121,0.278299214
0.334475635,0.22606783,0.22324257,0.278282045
0.334370842,0.22607463,0.223094733,0.278265131
0.33426594,0.226081573,0.222946614,0.278248472
0.334160933,0.226088659,0.222798218,0.278232072
0.334055823,0.226095886,0.222649549,0.278215931
0.333950614,0.226103256,0.222500611,0.278200052
0.33384531,0.226110767,0.222351409,0.278184438
0.333739915,0.226118421,0.222201945,0.278169091
0.333634433,0.226126215,0.222052225,0.278154015
0.333528868,0.226134151,0.221902252,0.278139212
0.333423226,0.226142228,0.22175203,0.278124684
0.333317511,0.226150446,0.221601562,0.278110435
0.333211728,0.226158804,0.221450852,0.278096467
0.33310588,0.226167302,0.221299904,0.278082784
0.33299997,0.226175939,0.221148721,0.278069387
0.332894004,0.226184714,0.220997308,0.278056281
0.332787982,0.226193628,0.220845669,0.278043466
0.332681907,0.226202678,0.220693808,0.278030945
0.332575783,0.226211864,0.220541728,0.278018721
0.33246961,0.226221184,0.220389434,0.278006794
0.332363392,0.226230637,0.220236927,0.277995167
0.332257132,0.226240223,0.220084214,0.277983842
0.332150835,0.226249941,0.219931295,0.277972822
0.332044502,0.22625979,0.219778175,0.27796211
0.331938137,0.22626977,0.219624857,0.277951707
0.331831744,0.226279881,0.219471343,0.277941616
0.331725326,0.226290122,0.219317636,0.27793184
0.331618887,0.226300492,0.219163739,0.277922379
0.33151243,0.22631099,0.219009654,0.277913238
0.331405959,0.226321616,0.218855384,0.277904417
0.331299476,0.22633237,0.21870093,0.277895919
0.331192983,0.22634325,0.218546296,0.277887747
0.331086484,0.226354256,0.218391485,0.277879903
0.330979979,0.226365387,0.218236498,0.27787239
0.33087347,0.226376643,0.218081339,0.277865209
0.330766959,0.226388021,0.21792601,0.277858364
0.330660447,0.226399522,0.217770513,0.277851856
0.330553936,0.226411144,0.21761485,0.277845687
0.330447429,0.226422887,0.217459024,0.27783986
0.330340929,0.226434749,0.217303036,0.277834378
0.330234438,0.226446732,0.217146888,0.277829242
0.330127959,0.226458834,0.216990583,0.277824457
0.330021496,0.226471056,0.216834122,0.277820022
0.32991505,0.226483397,0.216677506,0.277815942
0.329808626,0.226495856,0.216520738,0.277812216
0.329702226,0.226508434,0.216363819,0.277808848
0.329595851,0.226521131,0.216206751,0.277805839
0.329489505,0.226533946,0.216049535,0.277803191
0.329383189,0.226546879,0.215892175,0.277800905
0.329276905,0.22655993,0.215734673,0.277798982
0.329170652,0.226573099,0.215577031,0.277797423
0.329064432,0.226586384,0.215419252,0.277796227
0.328958245,0.226599786,0.215261338,0.277795396
0.328852093,0.226613302,0.215103292,0.277794929
0.328745979,0.226626934,0.214945118,0.277794826
0.328639904,0.226640679,0.214786816,0.277795088
0.328533871,0.226654538,0.214628392,0.277795714
0.328427884,0.22666851,0.214469846,0.277796704
0.328321946,0.226682596,0.214311183,0.277798058
0.328216059,0.226696795,0.214152406,0.277799776
0.328110227,0.226711108,0.213993518,0.277801856
0.328004454,0.226725533,0.213834521,0.277804298
0.327898742,0.226740072,0.213675417,0.277807101
0.327793094,0.226754722,0.213516211,0.277810265
0.327687513,0.226769485,0.213356906,0.277813789
0.327582001,0.22678436,0.213197504,0.277817672
0.327476559,0.226799346,0.213038009,0.277821914
0.327371189,0.226814443,0.212878426,0.277826512
0.327265893,0.226829649,0.212718757,0.277831466
0.327160671,0.226844963,0.212559006,0.277836774
0.327055527,0.226860385,0.212399176,0.277842434
0.326950463,0.226875914,0.212239271,0.277848447
0.326845482,0.226891549,0.212079293,0.27785481
0.326740586,0.226907291,0.211919245,0.277861521
0.326635779,0.22692314,0.211759129,0.27786858
0.326531063,0.226939095,0.21159895,0.277875985
0.326426442,0.226955156,0.211438708,0.277883734
0.326321918,0.226971324,0.211278406,0.277891825
0.326217496,0.226987597,0.211118046,0.277900258
0.326113177,0.227003976,0.21095763,0.277909031
0.326008965,0.227020461,0.210797159,0.277918141
0.325904862,0.227037052,0.210636637,0.277927589
0.325800869,0.227053748,0.210476064,0.277937372
0.32569699,0.227070548,0.210315443,0.277947489
0.325593224,0.227087453,0.210154777,0.277957937
0.325489574,0.22710446,0.209994068,0.277968715
0.325386041,0.227121569,0.209833317,0.277979822
0.325282628,0.227138779,0.209672526,0.277991256
0.325179336,0.227156088,0.209511698,0.278003015
0.32507617,0.227173497,0.209350834,0.2780151
0.324973131,0.227191004,0.209189936,0.27802751
0.324870225,0.22720861,0.209029005,0.278040243
0.324767452,0.227226312,0.208868042,0.278053298
0.324664819,0.227244111,0.208707049,0.278066674
0.324562326,0.227262004,0.208546028,0.278080369
0.324459979,0.227279992,0.208384978,0.278094384
0.32435778,0.227298074,0.208223902,0.278108716
0.324255732,0.227316248,0.208062801,0.278123366
0.324153837,0.227334514,0.207901677,0.278138331
0.324052097,0.227352871,0.20774053,0.278153612
0.323950515,0.227371317,0.207579363,0.278169207
0.32384909,0.227389852,0.207418178,0.278185113
0.323747824,0.227408473,0.207256975,0.278201329
0.323646719,0.22742718,0.207095756,0.278217853
0.323545778,0.227445972,0.206934522,0.278234682
0.323445003,0.227464848,0.206773276,0.278251814
0.323344398,0.227483807,0.206612018,0.278269248
0.323243965,0.227502849,0.20645075,0.278286982
0.323143708,0.227521974,0.206289473,0.278305012
0.323043629,0.22754118,0.206128188,0.278323336
0.322943733,0.227560467,0.205966895,0.278341953
0.322844022,0.227579834,0.205805595,0.278360859
0.3227445,0.227599281,0.205644288,0.278380052
0.322645169,0.227618807,0.205482975,0.278399529
0.322546031,0.227638412,0.205321658,0.278419288
0.32244709,0.227658094,0.205160337,0.278439327
0.322348346,0.227677852,0.204999013,0.278459643
0.322249802,0.227697686,0.204837688,0.278480234
0.322151457,0.227717594,0.204676364,0.278501098
0.322053315,0.227737575,0.204515041,0.278522232
0.321955376,0.227757628,0.20435372,0.278543635
0.321857644,0.227777752,0.204192404,0.278565305
0.321760121,0.227797948,0.204031092,0.27858724
0.321662811,0.227818214,0.203869785,0.278609441
0.321565714,0.22783855,0.203708486,0.278631904
0.321468835,0.227858955,0.203547195,0.27865463
0.321372175,0.22787943,0.203385912,0.278677615
0.321275737,0.227899974,0.203224638,0.278700859
0.321179525,0.227920587,0.203063374,0.278724359
0.321083538,0.227941269,0.202902121,0.278748115
0.320987781,0.227962019,0.202740878,0.278772123
0.320892253,0.227982836,0.202579646,0.278796382
0.320796955,0.22800372,0.202418424,0.27882089
0.320701889,0.22802467,0.202257213,0.278845644
0.320607054,0.228045684,0.202096013,0.278870641
0.32051245,0.22806676,0.201934822,0.278895878
0.320418077,0.228087897,0.201773642,0.278921354
0.320323936,0.228109093,0.201612472,0.278947065
0.320230027,0.228130346,0.201451312,0.27897301
0.320136353,0.228151655,0.201290161,0.278999187
0.320042914,0.228173018,0.201129019,0.279025594
0.31994971,0.228194436,0.200967886,0.27905223
0.319856744,0.228215905,0.200806761,0.279079092
0.319764015,0.228237426,0.200645643,0.279106179
0.319671526,0.228258996,0.200484532,0.279133488
0.319579278,0.228280615,0.200323425,0.27916102
0.31948727,0.228302281,0.200162324,0.279188771
0.319395504,0.228323994,0.200001227,0.27921674
0.31930398,0.228345752,0.199840135,0.279244925
0.319212697,0.228367553,0.199679046,0.279273325
0.319121656,0.228389398,0.19951796,0.279301937
0.319030854,0.228411283,0.199356877,0.27933076
0.318940292,0.228433207,0.199195797,0.27935979
0.318849969,0.228455169,0.199034719,0.279389027
0.318759886,0.228477165,0.198873643,0.27941847
0.318670044,0.228499196,0.198712569,0.279448116
0.318580445,0.228521259,0.198551496,0.279477965
0.31849109,0.228543353,0.198390425,0.279508016
0.318401981,0.228565477,0.198229354,0.279538265
0.318313119,0.22858763,0.198068284,0.279568713
0.318224508,0.228609809,0.197907214,0.279599357
0.318136149,0.228632014,0.197746143,0.279630195
0.318048043,0.228654244,0.197585071,0.279661225
0.317960193,0.228676497,0.197423998,0.279692446
0.3178726,0.228698771,0.197262923,0.279723856
0.317785265,0.228721065,0.197101849,0.279755454
0.317698187,0.228743377,0.196940776,0.279787236
0.317611369,0.228765705,0.196779707,0.279819202
0.317524808,0.228788047,0.196618644,0.279851348
0.317438506,0.228810401,0.196457589,0.279883672
0.317352463,0.228832764,0.196296544,0.279916173
0.31726668,0.228855135,0.196135512,0.279948849
0.317181158,0.228877511,0.195974495,0.279981697
0.317095899,0.228899891,0.195813497,0.280014718
0.317010903,0.228922275,0.195652518,0.280047908
0.316926173,0.22894466,0.195491563,0.280081267
0.316841709,0.228967045,0.195330632,0.280114793
0.316757512,0.228989428,0.195169727,0.280148485
0.316673586,0.229011809,0.195008851,0.280182341
0.316589929,0.229034186,0.194848005,0.280216361
0.316506544,0.229056557,0.19468719,0.280250543
0.31642343,0.229078922,0.194526409,0.280284887
0.316340588,0.229101278,0.194365663,0.280319392
0.316258017,0.229123625,0.194204954,0.280354056
0.316175717,0.22914596,0.194044287,0.280388878
0.316093685,0.229168281,0.193883664,0.280423855
0.316011923,0.229190588,0.193723088,0.280458985
0.315930429,0.229212877,0.193562562,0.280494267
0.315849204,0.229235148,0.193402089,0.280529698
0.315768248,0.229257399,0.193241673,0.280565278
0.315687563,0.229279629,0.193081316,0.280601003
0.31560715,0.229301837,0.192921021,0.280636873
0.315527009,0.229324021,0.192760791,0.280672885
0.315447141,0.22934618,0.192600629,0.280709036
0.315367549,0.229368313,0.192440538,0.280745324
0.315288233,0.229390419,0.19228052,0.280781748
0.315209194,0.229412497,0.192120577,0.280818305
0.315130433,0.229434545,0.191960712,0.280854994
0.315051949,0.229456562,0.191800928,0.280891812
0.314973744,0.229478546,0.191641229,0.280928757
0.314895816,0.229500497,0.191481616,0.280965827
0.314818164,0.229522412,0.191322093,0.281003021
0.314740789,0.229544289,0.191162663,0.281040337
0.31466369,0.229566126,0.19100333,0.281077772
0.314586867,0.229587922,0.190844095,0.281115325
0.314510322,0.229609675,0.190684963,0.281152997
0.314434056,0.229631383,0.190525936,0.281190786
0.314358072,0.229653045,0.190367018,0.281228692
0.314282369,0.229674661,0.19020821,0.281266715
0.314206951,0.229696229,0.190049515,0.281304854
0.314131818,0.229717747,0.189890937,0.281343109
0.314056973,0.229739214,0.189732476,0.28138148
0.313982416,0.229760629,0.189574135,0.281419965
0.31390815,0.229781992,0.189415915,0.281458566
0.313834175,0.229803299,0.189257821,0.281497281
0.313760491,0.229824551,0.189099854,0.281536112
0.3136871,0.229845745,0.188942017,0.281575056
0.313614001,0.229866881,0.188784315,0.281614114
0.313541194,0.229887955,0.188626751,0.281653284
0.313468679,0.229908966,0.188469327,0.281692566
0.313396457,0.229929912,0.188312047,0.28173196
0.313324528,0.229950792,0.188154914,0.281771463
0.313252895,0.229971604,0.187997932,0.281811077
0.313181558,0.229992348,0.187841103,0.2818508
0.31311052,0.230013023,0.187684432,0.281890631
0.31303978,0.230033628,0.18752792,0.281930569
0.312969342,0.230054163,0.18737157,0.281970612
0.312899206,0.230074626,0.187215385,0.282010761
0.312829374,0.230095018,0.187059367,0.282051012
0.312759847,0.230115337,0.186903518,0.282091367
0.312690626,0.230135584,0.186747841,0.282131823
0.312621711,0.230155756,0.186592336,0.28217238
0.312553103,0.230175855,0.186437007,0.282213036
0.3124848,0.230195878,0.186281856,0.282253791
0.312416803,0.230215824,0.186126885,0.282294643
0.312349109,0.230235692,0.185972095,0.282335591
0.312281718,0.23025548,0.18581749,0.282376632
0.31221463,0.230275188,0.18566307,0.282417765
0.312147846,0.230294813,0.185508838,0.282458989
0.312081365,0.230314355,0.185354794,0.282500304
0.312015189,0.230333813,0.185200941,0.282541707
0.311949317,0.230353185,0.18504728,0.282583198
0.311883752,0.230372472,0.184893812,0.282624774
0.311818493,0.230391671,0.184740537,0.282666433
0.311753543,0.230410782,0.184587457,0.282708175
0.311688901,0.230429804,0.184434572,0.282749996
0.311624569,0.230448736,0.184281884,0.282791896
0.311560547,0.230467577,0.184129393,0.282833873
0.311496836,0.230486327,0.1839771,0.282875925
0.311433435,0.230504983,0.183825006,0.282918049
0.311370344,0.230523546,0.183673114,0.282960243
0.311307562,0.230542013,0.183521424,0.283002505
0.311245088,0.230560384,0.183369937,0.283044832
0.311182921,0.230578656,0.183218655,0.283087221
0.311121063,0.230596828,0.183067579,0.28312967
0.311059513,0.2306149,0.182916709,0.283172177
0.310998274,0.230632869,0.182766048,0.28321474
0.310937346,0.230650736,0.182615595,0.283257358
0.31087673,0.2306685,0.182465351,0.283300027
0.310816428,0.23068616,0.182315318,0.283342746
0.310756442,0.230703714,0.182165495,0.283385514
0.310696773,0.230721163,0.182015882,0.283428327
0.310637423,0.230738505,0.181866479,0.283471185
0.310578393,0.230755739,0.181717288,0.283514085
0.310519684,0.230772865,0.181568308,0.283557026
0.310461296,0.230789881,0.181419543,0.283600004
0.31040323,0.230806786,0.181270996,0.283643018
0.310345485,0.230823579,0.181122673,0.283686065
0.310288059,0.230840258,0.180974579,0.283729142
0.310230954,0.230856821,0.180826722,0.283772245
0.310174169,0.230873267,0.180679105,0.283815373
0.310117705,0.230889595,0.180531736,0.283858521
0.310061562,0.230905803,0.180384621,0.283901688
0.310005741,0.230921891,0.180237766,0.28394487
0.309950243,0.230937858,0.180091178,0.283988065
0.309895069,0.230953704,0.179944863,0.284031269
0.309840219,0.230969429,0.179798829,0.284074479
0.309785695,0.230985031,0.179653082,0.284117692
0.309731497,0.231000511,0.179507629,0.284160906
0.309677625,0.231015868,0.179362477,0.284204116
0.30962408,0.231031102,0.179217634,0.284247321
0.309570861,0.231046212,0.179073107,0.284290516
0.309517967,0.231061198,0.178928905,0.284333699
0.309465398,0.23107606,0.178785034,0.284376866
0.309413151,0.231090796,0.178641504,0.284420012
0.309361226,0.231105408,0.17849832,0.284463134
0.309309621,0.231119892,0.178355491,0.284506228
0.309258336,0.231134249,0.178213022,0.284549289
0.309207371,0.231148479,0.17807092,0.284592314
0.309156725,0.231162581,0.177929193,0.2846353
0.3091064,0.231176554,0.177787847,0.284678242
0.309056396,0.2311904,0.177646887,0.284721138
0.309006714,0.231204117,0.177506321,0.284763983
0.308957354,0.231217707,0.177366153,0.284806774
0.308908317,0.231231168,0.177226389,0.284849508
0.308859604,0.231244501,0.177087035,0.28489218
0.308811215,0.231257706,0.176948095,0.284934788
0.30876315,0.231270783,0.176809576,0.284977328
0.30871541,0.231283732,0.176671482,0.285019797
0.308667994,0.231296553,0.176533819,0.285062189
0.3086209,0.231309245,0.176396592,0.285104503
0.308574128,0.231321808,0.176259805,0.285146733
0.308527676,0.231334241,0.176123465,0.285188875
0.308481544,0.231346542,0.175987575,0.285230925
0.308435732,0.231358711,0.175852139,0.285272881
0.30839024,0.231370746,0.175717163,0.285314737
0.308345071,0.231382648,0.17558265,0.285356492
0.308300224,0.231394417,0.175448605,0.285398141
0.308255701,0.231406051,0.17531503,0.285439681
0.308211502,0.231417552,0.17518193,0.285481109
0.308167628,0.231428917,0.175049308,0.28552242
0.308124082,0.231440147,0.174917167,0.285563613
0.308080863,0.231451242,0.17478551,0.285604684
0.308037973,0.231462202,0.17465434,0.28564563
0.307995412,0.231473026,0.17452366,0.285686447
0.30795318,0.231483713,0.174393474,0.285727134
0.307911277,0.231494263,0.174263787,0.285767685
0.307869703,0.231504675,0.1741346,0.285808099
0.307828458,0.231514948,0.174005919,0.28584837
0.307787542,0.231525081,0.173877746,0.285888497
0.307746953,0.231535073,0.173750085,0.285928474
0.307706695,0.231544922,0.173622939,0.2859683
0.307666768,0.231554629,0.173496312,0.286007972
0.307627173,0.231564194,0.173370207,0.286047487
0.307587912,0.231573615,0.173244627,0.286086843
0.307548985,0.231582893,0.173119574,0.286126037
0.307510395,0.231592027,0.172995052,0.286165067
0.307472143,0.231601017,0.172871062,0.28620393
0.307434229,0.231609863,0.172747607,0.286242624
0.307396656,0.231618565,0.17262469,0.286281146
0.307359424,0.231627123,0.172502311,0.286319495
0.307322533,0.231635535,0.172380473,0.286357668
0.307285982,0.231643803,0.172259179,0.286395662
0.307249772,0.231651925,0.172138431,0.286433474
0.307213902,0.231659902,0.172018233,0.286471101
0.30717837,0.231667731,0.171898589,0.286508539
0.307143175,0.231675413,0.171779502,0.286545785
0.307108317,0.231682947,0.171660975,0.286582836
0.307073796,0.231690332,0.171543012,0.286619687
0.307039612,0.231697569,0.171425616,0.286656337
0.307005766,0.231704656,0.17130879,0.286692783
0.306972257,0.231711594,0.171192537,0.286729021
0.306939086,0.231718382,0.17107686,0.286765049
0.306906254,0.231725021,0.170961763,0.286800864
0.306873761,0.23173151,0.170847247,0.286836463
0.306841608,0.231737849,0.170733315,0.286871845
0.306809794,0.231744038,0.17061997,0.286907006
0.306778319,0.231750076,0.170507213,0.286941944
0.306747184,0.231755964,0.170395047,0.286976658
0.306716386,0.2317617,0.170283475,0.287011145
0.306685925,0.231767284,0.170172499,0.287045402
0.306655799,0.231772716,0.17006212,0.287079426
0.306626005,0.231777993,0.169952341,0.287113215
0.306596543,0.231783116,0.169843163,0.287146766
0.306567412,0.231788082,0.169734588,0.287180077
0.306538612,0.231792891,0.169626618,0.287213145
0.306510143,0.231797544,0.169519255,0.287245969
0.306482006,0.231802038,0.169412499,0.287278546
0.306454201,0.231806375,0.169306353,0.287310875
0.306426727,0.231810554,0.169200816,0.287342953
0.306399586,0.231814574,0.16909589,0.287374779
0.306372779,0.231818435,0.168991576,0.28740635
0.306346304,0.231822136,0.168887873,0.287437665
0.306320164,0.231825678,0.168784783,0.287468722
0.306294356,0.23182906,0.168682307,0.287499519
0.306268882,0.231832282,0.168580446,0.287530054
0.306243739,0.231835343,0.168479201,0.287560326
0.306218926,0.231838243,0.168378574,0.287590331
0.306194441,0.231840981,0.168278567,0.287620068
0.306170284,0.231843557,0.168179182,0.287649535
0.306146452,0.231845969,0.168080419,0.287678731
0.306122946,0.231848218,0.167982281,0.287707653
0.306099764,0.231850304,0.167884768,0.287736302
0.306076907,0.231852227,0.167787881,0.287764675
0.306054373,0.231853988,0.167691622,0.28779277
0.306032163,0.231855587,0.167595991,0.287820588
0.306010276,0.231857025,0.16750099,0.287848125
0.305988712,0.231858303,0.167406617,0.287875382
0.305967469,0.23185942,0.167312874,0.287902358
0.305946549,0.231860377,0.16721976,0.287929052
0.305925948,0.231861176,0.167127275,0.287955463
0.305905667,0.231861815,0.167035419,0.287981591
0.305885704,0.231862297,0.166944193,0.288007435
0.305866057,0.23186262,0.166853599,0.288032993
0.305846723,0.231862786,0.166763636,0.288058264
0.305827701,0.231862792,0.166674306,0.288083248
0.305808988,0.23186264,0.166585611,0.288107941
0.305790582,0.231862328,0.166497549,0.288132343
0.305772482,0.231861857,0.166410123,0.288156452
0.305754688,0.231861227,0.166323332,0.288180268
0.305737198,0.231860439,0.166237178,0.288203787
0.305720011,0.231859492,0.166151661,0.288227009
0.305703126,0.231858387,0.16606678,0.288249933
0.305686543,0.231857125,0.165982536,0.288272556
0.305670261,0.231855705,0.165898928,0.288294876
0.30565428,0.231854129,0.165815955,0.288316894
0.305638597,0.231852396,0.165733618,0.288338606
0.305623212,0.231850507,0.165651915,0.288360013
0.305608124,0.231848463,0.165570845,0.288381112
0.305593329,0.231846263,0.165490408,0.288401902
0.305578826,0.231843909,0.165410604,0.288422381
0.305564613,0.231841399,0.16533143,0.288442547
0.305550686,0.231838735,0.165252887,0.288462399
0.305537045,0.231835915,0.165174974,0.288481935
0.305523686,0.231832939,0.165097688,0.288501153
0.305510611,0.231829808,0.165021029,0.288520052
0.305497819,0.231826521,0.164944996,0.288538631
0.305485309,0.23182308,0.164869587,0.288556888
0.305473081,0.231819485,0.164794802,0.288574822
0.305461134,0.231815737,0.164720638,0.288592431
0.305449469,0.231811835,0.164647094,0.288609713
0.305438086,0.231807781,0.164574167,0.288626667
0.305426985,0.231803574,0.164501856,0.288643291
0.305416165,0.231799216,0.164430159,0.288659584
0.305405625,0.231794707,0.164359074,0.288675545
0.305395365,0.231790047,0.1642886,0.288691172
0.305385384,0.231785236,0.164218736,0.288706464
0.305375681,0.231780275,0.164149483,0.28872142
0.305366254,0.231775162,0.164080838,0.288736038
0.305357102,0.231769896,0.164012801,0.288750317
0.305348224,0.231764478,0.163945371,0.288764256
0.305339621,0.231758907,0.163878547,0.288777853
0.305331293,0.231753183,0.163812328,0.288791109
0.305323241,0.231747306,0.163746712,0.288804022
0.305315464,0.231741276,0.163681698,0.288816593
0.305307963,0.231735095,0.163617283,0.288828821
0.305300739,0.23172876,0.163553467,0.288840703
0.305293792,0.231722274,0.163490247,0.28885224
0.305287122,0.231715636,0.163427621,0.288863431
0.30528073,0.231708846,0.163365586,0.288874275
0.305274615,0.231701905,0.163304139,0.288884771
0.305268777,0.231694812,0.16324328,0.288894919
0.305263215,0.231687569,0.163183007,0.288904718
0.305257926,0.231680174,0.163123318,0.288914168
0.305252911,0.231672627,0.163064213,0.288923268
0.305248165,0.231664928,0.16300569,0.288932017
0.305243689,0.231657076,0.162947749,0.288940414
0.30523948,0.231649072,0.162890389,0.288948459
0.305235538,0.231640913,0.162833609,0.288956152
0.305231863,0.231632601,0.162777407,0.288963491
0.305228453,0.231624136,0.162721783,0.288970478
0.305225308,0.231615516,0.162666736,0.288977112
0.305222429,0.231606742,0.162612264,0.288983392
0.305219813,0.231597814,0.162558365,0.288989318
0.305217462,0.231588731,0.162505038,0.288994889
0.305215374,0.231579493,0.16245228,0.289000106
0.30521355,0.231570099,0.16240009,0.289004968
0.305211988,0.23156055,0.162348466,0.289009476
0.305210688,0.231550845,0.162297405,0.289013628
0.305209646,0.231540983,0.162246905,0.289017425
0.305208862,0.231530965,0.162196965,0.289020866
0.305208333,0.231520788,0.162147583,0.289023952
0.305208056,0.231510453,0.162098757,0.289026681
0.305208029,0.231499958,0.162050485,0.289029053
0.305208251,0.231489303,0.162002764,0.289031068
0.305208721,0.231478487,0.161955593,0.289032725
0.305209438,0.23146751,0.161908969,0.289034027
0.305210403,0.231456372,0.161862889,0.289034972
0.305211614,0.231445073,0.161817352,0.289035562
0.305213071,0.231433613,0.161772354,0.289035798
0.305214774,0.231421992,0.161727891,0.28903568
0.305216724,0.231410209,0.161683962,0.289035209
0.30521892,0.231398266,0.161640562,0.289034385
0.305221361,0.231386161,0.161597688,0.289033211
0.305224047,0.231373895,0.161555337,0.289031687
0.305226976,0.231361468,0.161513507,0.289029813
0.305230148,0.23134888,0.161472196,0.289027589
0.305233559,0.23133613,0.161431404,0.289025015
0.305237209,0.23132322,0.161391127,0.289022092
0.305241094,0.231310147,0.161351366,0.289018819
0.305245215,0.231296912,0.161312118,0.289015197
0.305249569,0.231283515,0.161273382,0.289011225
0.305254158,0.231269957,0.161235157,0.289006905
0.305258979,0.231256238,0.161197443,0.289002237
0.305264033,0.231242359,0.161160237,0.288997223
0.305269319,0.231228321,0.161123539,0.288991864
0.305274837,0.231214125,0.161087346,0.28898616
0.305280586,0.231199771,0.161051657,0.288980114
0.305286566,0.231185262,0.161016471,0.288973726
0.305292776,0.231170596,0.160981785,0.288966999
0.305299216,0.231155776,0.160947596,0.288959934
0.305305883,0.231140802,0.160913904,0.288952533
0.305312777,0.231125676,0.160880706,0.288944797
0.305319896,0.231110397,0.160848002,0.288936729
0.305327237,0.231094967,0.160815791,0.288928328
0.305334797,0.231079386,0.160784071,0.288919596
0.305342575,0.231063655,0.160752841,0.288910535
0.305350568,0.231047774,0.1607221,0.288901143
0.305358776,0.231031743,0.160691847,0.288891423
0.305367197,0.231015566,0.16066208,0.288881377
0.305375831,0.230999242,0.160632799,0.288871004
0.305384677,0.230982774,0.160604001,0.288860307
0.305393733,0.230966163,0.160575686,0.288849286
0.305403,0.23094941,0.160547851,0.288837942
0.305412478,0.230932517,0.160520494,0.288826277
0.305422164,0.230915486,0.160493613,0.288814292
0.305432059,0.230898317,0.160467206,0.288801988
0.305442162,0.230881013,0.16044127,0.288789366
0.30545247,0.230863575,0.160415803,0.288776427
0.305462984,0.230846004,0.160390803,0.288763175
0.3054737,0.230828303,0.160366267,0.288749609
0.305484617,0.230810471,0.160342194,0.288735732
0.305495734,0.230792509,0.160318582,0.288721546
0.305507047,0.230774419,0.160295429,0.288707053
0.305518558,0.230756202,0.160272734,0.288692255
0.305530266,0.230737858,0.160250494,0.288677158
0.305542171,0.230719389,0.160228708,0.288661765
0.305554273,0.230700796,0.160207374,0.28864608
0.305566573,0.230682081,0.16018649,0.288630107
0.305579071,0.230663246,0.160166054,0.28861385
0.305591767,0.230644292,0.160146065,0.288597314
0.305604661,0.230625219,0.160126519,0.288580501
0.305617753,0.230606031,0.160107415,0.288563416
0.305631043,0.230586729,0.16008875,0.288546063
0.305644531,0.230567314,0.160070522,0.288528447
0.305658215,0.230547787,0.160052731,0.288510572
0.305672094,0.230528152,0.160035375,0.288492443
0.305686166,0.230508407,0.160018451,0.288474063
0.305700431,0.230488556,0.160001959,0.288455438
0.305714885,0.230468597,0.159985896,0.288436571
0.305729528,0.230448533,0.159970261,0.288417468
0.30574436,0.230428364,0.159955051,0.288398133
0.305759381,0.230408092,0.159940266,0.288378572
0.30577459,0.230387718,0.159925902,0.28835879
0.305789988,0.230367244,0.159911958,0.288338792
0.305805574,0.230346672,0.15989843,0.288318583
0.305821347,0.230326003,0.159885317,0.288298169
0.305837309,0.23030524,0.159872615,0.288277555
0.305853458,0.230284384,0.159860322,0.288256745
0.305869793,0.230263436,0.159848434,0.288235745
0.305886315,0.230242398,0.159836949,0.288214559
0.305903022,0.230221272,0.159825863,0.288193193
0.305919913,0.23020006,0.159815174,0.28817165
0.305936986,0.230178762,0.15980488,0.288149936
0.30595424,0.23015738,0.15979498,0.288128053
0.305971671,0.230135916,0.159785473,0.288106007
0.305989279,0.230114369,0.159776358,0.288083799
0.306007062,0.230092741,0.159767633,0.288061435
0.306025019,0.230071034,0.159759296,0.288038919
0.306043148,0.230049249,0.159751348,0.288016256
0.30606145,0.230027388,0.159743785,0.28799345
0.306079923,0.230005452,0.159736608,0.287970505
0.306098565,0.229983442,0.159729815,0.287947426
0.306117377,0.229961361,0.159723404,0.287924218
0.306136355,0.229939209,0.159717374,0.287900885
0.306155499,0.229916988,0.159711724,0.287877432
0.306174808,0.2298947,0.159706451,0.287853863
0.306194279,0.229872347,0.159701556,0.287830183
0.306213911,0.229849929,0.159697035,0.287806396
0.306233699,0.22982745,0.159692887,0.287782506
0.306253643,0.229804909,0.159689112,0.287758516
0.306273737,0.229782308,0.159685708,0.28773443
0.30629398,0.229759649,0.159682675,0.287710252
0.306314367,0.229736932,0.159680011,0.287685985
0.306334897,0.229714158,0.159677714,0.287661633
0.306355567,0.229691329,0.159675784,0.2876372
0.306376377,0.229668446,0.15967422,0.287612692
0.306397326,0.22964551,0.159673021,0.287588113
0.30641841,0.229622524,0.159672185,0.287563467
0.30643963,0.229599488,0.159671711,0.287538758
0.306460985,0.229576404,0.159671597,0.28751399
0.306482472,0.229553274,0.159671842,0.287489168
0.306504091,0.229530099,0.159672443,0.287464295
0.306525839,0.229506881,0.159673398,0.287439375
0.306547716,0.229483621,0.159674706,0.287414413
0.306569719,0.22946032,0.159676367,0.28738941
0.306591845,0.22943698,0.159678379,0.287364371
0.306614094,0.229413602,0.159680741,0.287339298
0.306636462,0.229390187,0.159683454,0.287314193
0.306658949,0.229366735,0.159686515,0.28728906
0.306681552,0.229343249,0.159689924,0.2872639
0.306704273,0.229319728,0.159693681,0.287238718
0.306727111,0.229296176,0.159697783,0.287213516
0.306750067,0.229272593,0.159702229,0.287188299
0.30677314,0.229248981,0.159707019,0.287163068
0.306796332,0.229225342,0.15971215,0.287137827
0.306819643,0.229201677,0.159717622,0.287112579
0.306843073,0.229177988,0.159723431,0.287087327
0.306866621,0.229154277,0.159729576,0.287062074
0.306890289,0.229130545,0.159736054,0.287036823
0.306914075,0.229106793,0.159742864,0.287011576
0.306937979,0.229083025,0.159750002,0.286986338
0.306961999,0.22905924,0.159757468,0.286961111
0.306986135,0.22903544,0.159765257,0.286935898
0.307010383,0.229011627,0.159773369,0.286910702
0.307034742,0.228987801,0.159781801,0.286885524
0.307059211,0.228963964,0.15979055,0.286860367
0.307083787,0.228940115,0.159799614,0.286835233
0.30710847,0.228916258,0.159808989,0.286810124
0.307133259,0.228892392,0.159818674,0.286785042
0.307158154,0.228868519,0.159828665,0.28675999
0.307183152,0.228844642,0.15983896,0.28673497
0.307208255,0.228820762,0.159849556,0.286709982
0.30723346,0.228796879,0.159860449,0.286685028
0.307258767,0.228772997,0.159871637,0.286660111
0.307284175,0.228749116,0.159883117,0.28663523
0.307309684,0.228725238,0.159894884,0.286610388
0.307335291,0.228701365,0.159906937,0.286585586
0.307360995,0.228677499,0.159919272,0.286560826
0.307386795,0.22865364,0.159931886,0.286536108
0.307412688,0.22862979,0.159944777,0.286511433
0.30743867,0.228605951,0.159957943,0.286486802
0.30746474,0.228582122,0.159971382,0.286462214
0.307490896,0.228558305,0.159985091,0.28643767
0.307517134,0.228534501,0.159999067,0.28641317
0.307543455,0.228510709,0.160013309,0.286388715
0.307569858,0.228486933,0.160027814,0.286364305
0.307596341,0.228463173,0.160042578,0.286339942
0.307622903,0.228439431,0.160057601,0.286315627
0.307649545,0.228415707,0.160072878,0.28629136
0.307676266,0.228392003,0.160088407,0.286267143
0.307703064,0.228368318,0.160104185,0.286242978
0.30772994,0.228344656,0.160120208,0.286218866
0.307756892,0.228321015,0.160136473,0.286194808
0.307783918,0.228297398,0.160152977,0.286170806
0.307811018,0.228273806,0.160169717,0.28614686
0.307838189,0.228250238,0.16018669,0.286122971
0.307865429,0.228226697,0.160203892,0.286099139
0.307892735,0.228203183,0.160221321,0.286075364
0.307920105,0.228179695,0.160238972,0.286051647
0.307947536,0.228156234,0.160256841,0.286027987
0.307975028,0.228132802,0.160274925,0.286004383
0.30800258,0.228109399,0.16029322,0.285980837
0.30803019,0.228086027,0.160311721,0.285957349
0.308057858,0.228062686,0.160330425,0.285933919
0.308085584,0.228039379,0.160349328,0.285910548
0.308113365,0.228016106,0.160368425,0.285887235
0.308141203,0.227992868,0.160387712,0.285863982
0.308169096,0.227969667,0.160407185,0.285840789
0.308197042,0.227946504,0.160426839,0.285817655
0.308225042,0.227923381,0.16044667,0.285794583
0.308253094,0.227900298,0.160466674,0.285771573
0.308281196,0.227877259,0.160486847,0.285748625
0.308309347,0.227854263,0.160507184,0.285725741
0.308337544,0.227831312,0.160527682,0.28570292
0.308365784,0.227808407,0.160548336,0.285680161
0.308394065,0.227785548,0.160569141,0.285657466
0.308422383,0.227762737,0.160590092,0.285634832
0.308450735,0.227739974,0.160611185,0.285612259
0.308479118,0.22771726,0.160632414,0.285589746
0.308507529,0.227694596,0.160653775,0.285567291
0.308535962,0.22767198,0.160675261,0.285544894
0.308564415,0.227649415,0.160696867,0.285522552
0.308592882,0.227626899,0.160718588,0.285500264
0.30862136,0.227604433,0.160740418,0.285478029
0.308649844,0.227582017,0.16076235,0.285455844
0.308678329,0.227559649,0.160784379,0.285433707
0.308706809,0.227537329,0.160806498,0.285411617
0.308735279,0.227515057,0.160828701,0.28538957
0.308763733,0.227492831,0.160850982,0.285367565
0.308792165,0.22747065,0.160873333,0.285345597
0.308820569,0.227448512,0.160895749,0.285323665
0.308848937,0.227426416,0.160918222,0.285301765
0.308877264,0.227404359,0.160940745,0.285279893
0.308905541,0.227382341,0.160963312,0.285258046
0.308933761,0.227360358,0.160985916,0.28523622
0.308961916,0.227338408,0.161008548,0.285214411
0.308989999,0.22731649,0.161031203,0.285192613
0.309018001,0.227294599,0.161053873,0.285170824
0.309045913,0.227272735,0.16107655,0.285149038
0.309073727,0.227250893,0.161099227,0.28512725
0.309101435,0.227229071,0.161121896,0.285105455
0.309129026,0.227207265,0.16114455,0.285083647
0.309156492,0.227185473,0.161167179,0.28506182
0.309183823,0.227163691,0.161189778,0.285039969
0.30921101,0.227141916,0.161212336,0.285018087
0.309238043,0.227120143,0.161234847,0.284996169
0.309264913,0.22709837,0.161257301,0.284974208
0.309291611,0.227076593,0.161279691,0.284952197
0.309318125,0.227054808,0.161302008,0.284930131
0.309344446,0.227033013,0.161324244,0.284908002
0.309370562,0.227011201,0.161346391,0.284885803
0.309396464,0.226989371,0.161368439,0.284863528
0.309422141,0.226967518,0.16139038,0.28484117
0.30944758,0.226945639,0.161412206,0.284818723
0.309472772,0.22692373,0.161433907,0.284796178
0.309497704,0.226901788,0.161455475,0.284773529
0.309522366,0.226879808,0.161476902,0.284750771
0.309546745,0.226857788,0.161498178,0.284727895
0.30957083,0.226835724,0.161519294,0.284704894
0.309594609,0.226813612,0.161540241,0.284681763
0.309618072,0.226791448,0.161561011,0.284658493
0.309641207,0.226769231,0.161581594,0.284635078
0.309664003,0.226746955,0.161601983,0.284611511
0.309686448,0.226724619,0.161622167,0.284587787
0.309708531,0.226702218,0.161642138,0.284563899
0.30973024,0.22667975,0.161661888,0.284539841
0.309751563,0.22665721,0.161681407,0.284515606
0.309772489,0.226634595,0.161700689,0.284491189
0.309793004,0.226611901,0.161719725,0.284466581
0.309813097,0.226589125,0.16173851,0.284441778
0.309832755,0.226566262,0.161757037,0.284416773
0.309851966,0.226543309,0.161775299,0.28439156
0.309870716,0.226520263,0.161793291,0.284366131
0.309888992,0.226497117,0.161811006,0.284340481
0.309906782,0.22647387,0.161828438,0.284314603
0.309924074,0.226450516,0.161845582,0.28428849
0.309940856,0.226427052,0.161862432,0.284262135
0.309957116,0.226403473,0.16187898,0.284235533
0.309972842,0.226379777,0.161895222,0.284208676
0.309988022,0.226355959,0.161911151,0.284181557
0.310002646,0.226332014,0.161926761,0.28415417
0.3100167,0.22630794,0.161942045,0.284126508
0.310030174,0.226283732,0.161956999,0.284098564
0.310043055,0.226259384,0.161971614,0.28407033
0.310055333,0.226234895,0.161985887,0.2840418
0.310066994,0.226210257,0.161999812,0.284012967
0.310078028,0.226185469,0.162013385,0.283983824
0.310088423,0.226160524,0.162026601,0.283954365
0.310098167,0.22613542,0.162039457,0.283924582
0.310107249,0.22611015,0.162051948,0.283894469
0.310115657,0.226084711,0.16206407,0.283864018
0.310123381,0.226059097,0.16207582,0.283833222
0.310130409,0.226033305,0.162087192,0.283802076
0.310136731,0.226007328,0.162098183,0.283770571
0.310142336,0.225981163,0.162108789,0.283738703
0.310147213,0.225954806,0.162119006,0.283706464
0.310151353,0.225928252,0.162128829,0.283673847
0.310154746,0.225901497,0.162138255,0.283640846
0.310157379,0.225874536,0.162147278,0.283607453
0.310159244,0.225847365,0.162155895,0.283573662
0.310160331,0.225819978,0.162164101,0.283539465
0.310160627,0.225792371,0.16217189,0.283504857
0.310160124,0.22576454,0.162179261,0.283469829
0.31015881,0.225736481,0.162186207,0.283434377
0.310156675,0.225708188,0.162192726,0.283398493
0.310153708,0.225679658,0.162198814,0.283362171
0.310149897,0.225650885,0.162204467,0.283325406
0.310145233,0.225621866,0.162209684,0.283288192
0.310139705,0.225592597,0.162214459,0.283250521
0.310133303,0.225563071,0.162218791,0.283212388
0.310126018,0.225533287,0.162222676,0.283173788
0.31011784,0.225503239,0.16222611,0.283134715
0.310108759,0.225472923,0.162229092,0.283095164
0.310098767,0.225442337,0.162231617,0.28305513
0.310087854,0.225411475,0.162233683,0.283014605
0.31007601,0.225380334,0.162235286,0.282973586
0.310063228,0.225348909,0.162236424,0.282932065
0.310049498,0.225317197,0.162237093,0.282890038
0.31003481,0.225285193,0.16223729,0.282847498
0.310019156,0.225252894,0.162237013,0.282804441
0.310002527,0.225220295,0.16223626,0.282760861
0.309984913,0.225187394,0.162235027,0.282716753
0.309966304,0.225154186,0.162233313,0.282672112
0.309946692,0.225120667,0.162231114,0.282626932
0.309926067,0.225086834,0.162228428,0.282581208
0.30990442,0.225052682,0.162225253,0.282534934
0.309881743,0.225018207,0.162221586,0.282488105
0.309858028,0.224983407,0.162217423,0.282440716
0.309833267,0.224948278,0.162212764,0.28239276
0.309807452,0.224912817,0.162207604,0.282344234
0.309780576,0.224877021,0.162201941,0.28229513
0.309752631,0.224840886,0.162195774,0.282245444
0.309723609,0.22480441,0.162189098,0.282195171
0.309693504,0.224767589,0.162181912,0.282144305
0.309662307,0.22473042,0.162174212,0.28209284
0.309630012,0.2246929,0.162165997,0.282040773
0.309596612,0.224655026,0.162157263,0.281988097
0.309562098,0.224616795,0.162148008,0.281934808
0.309526463,0.224578205,0.162138229,0.281880902
0.3094897,0.224539251,0.162127925,0.281826372
0.309451802,0.22449993,0.162117091,0.281771215
0.309412762,0.22446024,0.162105726,0.281715426
0.309372573,0.224420177,0.162093826,0.281659
0.309331229,0.224379738,0.162081389,0.281601932
0.309288725,0.224338921,0.162068412,0.281544219
0.309245054,0.224297722,0.162054892,0.281485856
0.309200211,0.224256139,0.162040826,0.281426839
0.30915419,0.22421417,0.162026212,0.281367166
0.309106986,0.224171812,0.162011046,0.281306832
0.309058594,0.224129061,0.161995325,0.281245833
0.309009009,0.224085915,0.161979047,0.281184166
0.308958226,0.224042371,0.161962208,0.281121827
0.30890624,0.223998426,0.161944806,0.281058812
0.308853045,0.223954078,0.161926838,0.280995119
0.308798636,0.223909324,0.161908302,0.280930745
0.308743009,0.223864162,0.161889195,0.280865687
0.308686158,0.223818587,0.161869516,0.280799942
0.308628078,0.223772598,0.161849262,0.280733508
0.308568764,0.223726191,0.16182843,0.280666384
0.308508212,0.223679363,0.161807018,0.280598565
0.308446418,0.223632112,0.161785025,0.280530051
0.30838338,0.223584436,0.161762447,0.28046084
0.308319092,0.223536332,0.161739283,0.280390929
0.308253552,0.223487797,0.161715531,0.280320317
0.308186756,0.22343883,0.161691187,0.280249001
0.308118702,0.223389427,0.161666251,0.280176979
0.308049386,0.223339585,0.161640719,0.28010425
0.307978806,0.223289303,0.161614588,0.28003081
0.307906958,0.223238577,0.161587858,0.279956658
0.30783384,0.223187405,0.161560525,0.279881792
0.307759449,0.223135785,0.161532586,0.27980621
0.30768378,0.223083715,0.16150404,0.279729909
0.30760683,0.223031192,0.161474884,0.279652888
0.307528597,0.222978214,0.161445115,0.279575143
0.307449077,0.222924779,0.161414732,0.279496673
0.307368266,0.222870884,0.161383732,0.279417476
0.307286163,0.222816527,0.161352113,0.27933755
0.307202766,0.222761707,0.161319872,0.279256893
0.307118073,0.222706422,0.161287007,0.279175502
0.307032081,0.22265067,0.161253515,0.279093376
0.30694479,0.222594449,0.161219396,0.279010513
0.306856196,0.222537758,0.161184646,0.278926909
0.306766298,0.222480596,0.161149264,0.278842564
0.306675096,0.222422959,0.161113246,0.278757473
0.306582586,0.222364848,0.161076592,0.278671635
0.306488768,0.222306259,0.161039298,0.278585048
0.306393641,0.222247191,0.161001362,0.27849771
0.306297201,0.222187644,0.160962784,0.278409617
0.306199448,0.222127615,0.16092356,0.278320769
0.30610038,0.222067104,0.160883689,0.278231162
0.305999994,0.222006108,0.16084317,0.278140796
0.305898289,0.221944627,0.160801999,0.278049666
0.305795264,0.22188266,0.160760177,0.277957771
0.305690919,0.221820204,0.1607177,0.277865109
0.305585252,0.221757259,0.160674568,0.277771677
0.305478262,0.221693825,0.160630778,0.277677473
0.30536995,0.2216299,0.160586329,0.277582495
0.305260315,0.221565484,0.16054122,0.277486741
0.305149357,0.221500575,0.160495447,0.277390206
0.305037076,0.221435174,0.160449011,0.27729289
0.304923471,0.221369278,0.160401909,0.27719479
0.304808543,0.221302887,0.160354139,0.277095903
0.304692291,0.221236001,0.160305699,0.276996226
0.304574716,0.221168618,0.160256588,0.276895758
0.304455816,0.221100737,0.160206806,0.276794496
0.304335592,0.221032359,0.160156349,0.276692437
0.304214043,0.220963482,0.160105218,0.276589581
0.304091169,0.220894105,0.16005341,0.276485923
0.30396697,0.220824228,0.160000925,0.276381462
0.303841446,0.22075385,0.159947761,0.276276195
0.303714599,0.22068297,0.159893918,0.27617012
0.303586429,0.220611589,0.159839393,0.276063236
0.303456938,0.220539706,0.159784186,0.275955539
0.303326126,0.220467321,0.159728296,0.275847027
0.303193995,0.220394435,0.159671721,0.275737698
0.303060547,0.220321046,0.159614461,0.275627549
0.302925783,0.220247155,0.159556515,0.275516578
0.302789705,0.220172761,0.159497881,0.275404783
0.302652315,0.220097864,0.159438558,0.275292162
0.302513613,0.220022465,0.159378544,0.275178712
0.302373601,0.219946564,0.159317839,0.275064431
0.30223228,0.21987016,0.159256441,0.274949316
0.302089651,0.219793254,0.15919435,0.274833366
0.301945715,0.219715847,0.159131563,0.274716577
0.301800473,0.219637937,0.15906808,0.274598948
0.301653928,0.219559525,0.1590039,0.274480476
0.30150608,0.219480611,0.158939021,0.274361158
0.301356933,0.219401197,0.158873443,0.274240992
0.301206488,0.219321282,0.158807165,0.274119978
0.301054749,0.219240867,0.158740186,0.273998112
0.300901718,0.219159953,0.158672504,0.273875394
0.300747397,0.219078541,0.158604119,0.273751821
0.30059179,0.218996631,0.15853503,0.273627392
0.3004349,0.218914222,0.158465235,0.273502104
0.300276729,0.218831317,0.158394733,0.273375957
0.300117281,0.218747915,0.158323525,0.273248949
0.299956557,0.218664018,0.158251607,0.273121079
0.299794562,0.218579625,0.15817898,0.272992347
0.299631297,0.218494737,0.158105642,0.272862752
0.299466765,0.218409356,0.158031593,0.272732292
0.299300968,0.218323481,0.157956831,0.272600968
0.299133909,0.218237113,0.157881355,0.272468779
0.298965592,0.218150252,0.157805163,0.272335726
0.29879602,0.2180629,0.157728256,0.272201808
0.298625198,0.217975057,0.157650632,0.272067026
0.298453128,0.217886724,0.157572289,0.271931379
0.298279815,0.217797902,0.157493227,0.27179487
0.298105262,0.217708592,0.157413444,0.271657497
0.297929476,0.217618795,0.157332941,0.271519261
0.297752459,0.217528513,0.157251715,0.271380162
0.297574217,0.217437746,0.157169765,0.271240201
0.297394754,0.217346495,0.157087092,0.27109938
0.297214075,0.217254761,0.157003693,0.2709577
0.297032182,0.217162546,0.156919569,0.27081516
0.296849082,0.21706985,0.156834718,0.270671763
0.296664776,0.216976676,0.15674914,0.270527509
0.29647927,0.216883024,0.156662835,0.270382399
0.296292566,0.216788896,0.156575801,0.270236433
0.29610467,0.216694292,0.15648804,0.270089612
0.295915586,0.216599215,0.156399549,0.269941937
0.29572532,0.216503666,0.156310329,0.269793407
0.295533876,0.216407647,0.156220379,0.269644025
0.29534126,0.216311159,0.1561297,0.269493789
0.295147477,0.216214204,0.156038291,0.269342701
0.294952533,0.216116785,0.155946152,0.26919076
0.294756433,0.216018902,0.155853282,0.269037967
0.294559183,0.215920558,0.155759682,0.268884321
0.294360789,0.215821754,0.15566535,0.268729824
0.294161256,0.215722492,0.155570287,0.268574476
0.293960589,0.215622773,0.155474492,0.268418278
0.293758793,0.2155226,0.155377966,0.26826123
0.293555874,0.215421974,0.155280707,0.268103333
0.293351835,0.215320897,0.155182717,0.267944588
0.293146683,0.215219372,0.155083995,0.267784996
0.29294042,0.215117398,0.154984541,0.267624558
0.292733054,0.21501498,0.154884356,0.267463275
0.292524589,0.214912118,0.154783441,0.267301148
0.292315033,0.214808816,0.154681795,0.26713818
0.292104391,0.214705074,0.154579419,0.266974372
0.291892668,0.214600897,0.154476314,0.266809725
0.291679873,0.214496286,0.154372481,0.266644242
0.29146601,0.214391244,0.154267921,0.266477922
0.291251086,0.214285773,0.154162633,0.26631077
0.291035109,0.214179875,0.154056619,0.266142785
0.290818084,0.214073552,0.153949879,0.26597397
0.290600018,0.213966808,0.153842414,0.265804328
0.290380918,0.213859643,0.153734225,0.26563386
0.290160788,0.213752061,0.153625312,0.265462569
0.289939637,0.213644064,0.153515676,0.265290456
0.289717469,0.213535655,0.153405318,0.265117525
0.28949429,0.213426835,0.15329424,0.264943777
0.289270107,0.213317607,0.15318244,0.264769214
0.289044928,0.213207974,0.153069922,0.264593839
0.288818757,0.213097938,0.152956684,0.264417654
0.288591603,0.212987502,0.152842729,0.264240663
0.288363474,0.212876669,0.152728057,0.264062867
0.288134375,0.212765441,0.152612669,0.263884269
0.287904314,0.212653822,0.152496567,0.263704872
0.287673299,0.212541815,0.15237975,0.263524677
0.287441337,0.212429421,0.152262221,0.263343689
0.287208437,0.212316644,0.15214398,0.263161908
0.286974604,0.212203486,0.152025027,0.262979338
0.286739847,0.21208995,0.151905365,0.262795981
0.286504172,0.211976039,0.151784995,0.26261184
0.286267586,0.211861755,0.151663919,0.262426919
0.286030097,0.211747101,0.151542138,0.26224122
0.28579171,0.21163208,0.151419655,0.262054746
0.285552433,0.211516694,0.151296472,0.261867499
0.285312272,0.211400944,0.15117259,0.261679483
0.285071236,0.211284834,0.151048012,0.2614907
0.284829332,0.211168367,0.15092274,0.261301154
0.284586568,0.211051545,0.150796776,0.261110848
0.284342953,0.210934371,0.150670122,0.260919786
0.284098494,0.210816848,0.150542782,0.260727971
0.2838532,0.210698978,0.150414757,0.260535406
0.283607079,0.210580765,0.150286049,0.260342095
0.28336014,0.21046221,0.150156661,0.260148039
0.28311239,0.210343318,0.150026595,0.259953244
0.282863837,0.21022409,0.149895853,0.259757713
0.282614491,0.210104529,0.149764438,0.259561449
0.282364358,0.209984639,0.149632351,0.259364456
0.282113446,0.209864422,0.149499596,0.259166739
0.281861763,0.209743881,0.149366174,0.258968303
0.281609316,0.209623018,0.149232088,0.25876915
0.281356113,0.209501837,0.149097341,0.258569285
0.281102162,0.209380339,0.148961936,0.258368713
0.280847472,0.209258528,0.148825874,0.258167438
0.280592052,0.209136407,0.148689159,0.257965466
0.280335911,0.209013979,0.148551794,0.257762802
0.280079057,0.208891247,0.148413781,0.25755945
0.2798215,0.208768214,0.148275123,0.257355415
0.279563248,0.208644884,0.148135824,0.257150703
0.279304311,0.208521258,0.147995886,0.256945317
0.279044697,0.208397341,0.147855312,0.256739264
0.278784416,0.208273135,0.147714103,0.256532548
0.278523476,0.208148643,0.147572264,0.256325173
0.278261885,0.208023869,0.147429797,0.256117146
0.277999653,0.207898818,0.147286703,0.255908472
0.277736788,0.207773491,0.147142987,0.255699155
0.277473298,0.207647893,0.146998651,0.255489202
0.277209192,0.207522026,0.146853697,0.255278617
0.276944478,0.207395895,0.146708129,0.255067406
0.276679165,0.207269502,0.146561949,0.254855575
0.276413263,0.207142851,0.146415159,0.254643129
0.276146781,0.207015946,0.146267764,0.254430073
0.275879727,0.20688879,0.146119764,0.254216414
0.275612112,0.206761388,0.145971165,0.254002156
0.275343945,0.206633743,0.145821968,0.253787305
0.275075235,0.206505858,0.145672176,0.253571866
0.274805991,0.206377738,0.145521793,0.253355844
0.274536224,0.206249385,0.145370821,0.253139243
0.274265942,0.206120802,0.145219263,0.252922068
0.273995154,0.205991995,0.145067122,0.252704324
0.27372387,0.205862965,0.144914401,0.252486017
0.273452098,0.205733718,0.144761103,0.25226715
0.273179847,0.205604256,0.144607232,0.252047729
0.272907124,0.205474583,0.144452791,0.251827759
0.272633939,0.205344702,0.144297783,0.251607245
0.2723603,0.205214617,0.144142211,0.251386191
0.272086217,0.205084331,0.143986079,0.251164603
0.2718117,0.204953848,0.14382939,0.250942486
0.27153676,0.204823172,0.143672148,0.250719846
0.271261405,0.204692308,0.143514355,0.250496687
0.270985648,0.204561259,0.143356016,0.250273015
0.270709497,0.204430029,0.143197133,0.250048833
0.270432964,0.204298622,0.14303771,0.249824147
0.270156059,0.204167041,0.142877749,0.249598961
0.269878792,0.204035291,0.142717254,0.249373279
0.269601173,0.203903376,0.142556229,0.249147107
0.269323212,0.203771298,0.142394675,0.248920449
0.269044918,0.203639064,0.142232597,0.248693309
0.268766301,0.203506676,0.142069998,0.248465694
0.268487369,0.203374139,0.141906882,0.248237608
0.268208132,0.203241458,0.141743251,0.248009057
0.267928598,0.203108635,0.141579108,0.247780044
0.267648777,0.202975676,0.141414459,0.247550576
0.267368678,0.202842584,0.141249304,0.247320657
0.267088312,0.202709363,0.14108365,0.247090294
0.266807689,0.20257602,0.140917498,0.246859491
0.266526817,0.202442558,0.140750853,0.246628253
0.266245708,0.202308981,0.140583717,0.246396587
0.265964371,0.202175295,0.140416096,0.246164497
0.265682816,0.202041504,0.140247991,0.245931988
0.265401053,0.201907612,0.140079406,0.245699065
0.265119093,0.201773623,0.139910345,0.245465733
0.264836944,0.201639542,0.139740811,0.245231999
0.264554615,0.201505374,0.139570808,0.244997867
0.264272117,0.201371122,0.139400337,0.244763342
0.263989458,0.201236791,0.139229404,0.24452843
0.263706646,0.201102386,0.13905801,0.244293138
0.263423692,0.200967911,0.138886158,0.244057469
0.263140603,0.20083337,0.138713853,0.24382143
0.262857389,0.200698767,0.138541096,0.243585028
0.262574061,0.200564108,0.138367891,0.243348269
0.262290627,0.200429397,0.138194241,0.24311116
0.262007097,0.200294639,0.138020149,0.242873708
0.261723481,0.200159838,0.137845618,0.242635919
0.261439789,0.200024999,0.137670651,0.242397799
0.261156031,0.199890127,0.137495251,0.242159357
0.260872216,0.199755226,0.13731942,0.241920598
0.260588354,0.1996203,0.137143163,0.24168153
0.260304454,0.199485354,0.136966481,0.241442159
0.260020526,0.199350392,0.136789378,0.241202494
0.259736579,0.199215418,0.136611857,0.240962542
0.259452621,0.199080438,0.136433923,0.24072231
0.259168662,0.198945456,0.136255577,0.240481805
0.25888471,0.198810476,0.136076825,0.240241034
0.258600773,0.198675503,0.135897669,0.240000002
0.258316861,0.19854054,0.135718113,0.239758718
0.258032982,0.198405591,0.135538161,0.239517188
0.257749147,0.198270662,0.135357816,0.239275419
0.257465365,0.198135756,0.135177082,0.239033416
0.257181645,0.198000879,0.134995963,0.238791187
0.256897997,0.197866033,0.134814463,0.238548739
0.256614429,0.197731225,0.134632585,0.238306077
0.256330953,0.197596457,0.134450332,0.238063208
0.256047577,0.197461733,0.134267709,0.237820138
0.25576431,0.197327058,0.13408472,0.237576875
0.255481163,0.197192436,0.133901367,0.237333425
0.255198143,0.19705787,0.133717655,0.237089795
0.25491526,0.196923364,0.133533587,0.236845992
0.254632522,0.196788923,0.133349167,0.23660202
0.254349936,0.19665455,0.133164399,0.236357888
0.254067511,0.196520248,0.132979287,0.2361136
0.253785255,0.196386022,0.132793833,0.235869163
0.253503177,0.196251875,0.132608043,0.235624584
0.253221285,0.19611781,0.132421919,0.235379868
0.252939588,0.195983832,0.132235467,0.235135022
0.252658096,0.195849944,0.13204869,0.234890051
0.252376818,0.195716151,0.131861592,0.234644963
0.252095763,0.195582456,0.131674179,0.234399763
0.251814939,0.195448864,0.131486453,0.234154456
0.251534357,0.195315378,0.13129842,0.233909048
0.251254025,0.195182002,0.131110083,0.233663545
0.250973953,0.195048738,0.130921447,0.233417953
0.25069415,0.194915592,0.130732517,0.233172277
0.250414624,0.194782566,0.130543296,0.232926525
0.250135383,0.194649665,0.13035379,0.232680702
0.249856436,0.194516891,0.130164003,0.232434815
0.24957779,0.194384249,0.129973939,0.23218887
0.249299454,0.194251742,0.129783602,0.231942873
0.249021436,0.194119373,0.129592998,0.231696832
0.248743744,0.193987145,0.129402131,0.231450755
0.248466388,0.193855063,0.129211005,0.231204647
0.248189375,0.193723128,0.129019624,0.230958519
0.247912716,0.193591346,0.128827994,0.230712377
0.247636418,0.193459719,0.128636119,0.230466229
0.247360491,0.193328251,0.128444004,0.230220083
0.247084944,0.193196945,0.128251652,0.229973945
0.246809784,0.193065803,0.128059069,0.229727824
0.246535022,0.192934829,0.127866258,0.229481726
0.246260666,0.192804027,0.127673225,0.229235661
0.245986723,0.192673397,0.127479973,0.228989636
0.245713203,0.192542945,0.127286509,0.228743659
0.245440113,0.192412672,0.127092835,0.228497739
0.24516746,0.192282583,0.126898958,0.228251881
0.244895252,0.192152678,0.126704882,0.228006096
0.244623498,0.192022962,0.126510613,0.227760389
0.244352204,0.191893436,0.126316154,0.227514769
0.244081379,0.191764104,0.126121511,0.227269243
0.243811032,0.191634968,0.125926689,0.22702382
0.24354117,0.191506032,0.125731693,0.226778506
0.243271803,0.191377298,0.125536527,0.22653331
0.243002939,0.191248768,0.125341196,0.226288239
0.242734585,0.191120447,0.125145706,0.226043299
0.242466751,0.190992336,0.124950061,0.225798499
0.242199445,0.190864438,0.124754266,0.225553846
0.241932675,0.190736755,0.124558326,0.225309346
0.241666449,0.190609291,0.124362247,0.225065006
0.241400775,0.190482047,0.124166031,0.224820835
0.24113566,0.190355026,0.123969685,0.224576838
0.24087111,0.19022823,0.123773213,0.224333023
0.240607134,0.190101662,0.12357662,0.224089396
0.240343737,0.189975323,0.123379909,0.223845964
0.240080926,0.189849217,0.123183087,0.223602735
0.239818708,0.189723344,0.122986156,0.223359714
0.239557091,0.189597708,0.122789122,0.223116909
0.239296083,0.18947231,0.122591989,0.222874327
0.239035691,0.189347153,0.122394762,0.222631974
0.238775923,0.18922224,0.122197444,0.222389858
0.238516786,0.189097573,0.122000042,0.222147986
0.238258287,0.188973155,0.121802558,0.221906363
0.238000435,0.188848987,0.121604998,0.221664996
0.237743237,0.188725071,0.121407365,0.221423893
0.2374867,0.188601411,0.121209664,0.221183059
0.237230831,0.188478008,0.121011898,0.220942501
0.236975637,0.188354865,0.120814073,0.220702225
0.236721125,0.188231985,0.120616192,0.22046224
0.2364673,0.188109371,0.12041826,0.22022255
0.23621417,0.187987024,0.12022028,0.219983162
0.23596174,0.187864948,0.120022257,0.219744084
0.235710017,0.187743144,0.119824195,0.219505322
0.235459007,0.187621615,0.119626098,0.219266883
0.235208717,0.187500363,0.11942797,0.219028774
0.234959154,0.187379392,0.119229816,0.218791003
0.234710325,0.187258703,0.119031638,0.218553576
0.234462237,0.187138299,0.118833442,0.2183165
0.234214896,0.187018184,0.118635233,0.218079781
0.233968311,0.186898359,0.118437013,0.217843427
0.233722487,0.186778827,0.118238787,0.217607444
0.233477432,0.186659591,0.118040559,0.217371837
0.233233153,0.186540652,0.117842334,0.217136615
0.232989655,0.186422013,0.117644115,0.216901782
0.232746946,0.186303676,0.117445907,0.216667346
0.232505031,0.186185643,0.117247714,0.216433314
0.232263916,0.186067918,0.117049542,0.216199692
0.232023606,0.185950502,0.116851394,0.215966485
0.231784107,0.185833397,0.116653276,0.215733701
0.231545425,0.185716604,0.11645519,0.215501346
0.231307566,0.185600127,0.116257143,0.215269426
0.231070536,0.185483967,0.116059138,0.215037947
0.230834341,0.185368126,0.115861181,0.214806918
0.230598988,0.185252607,0.115663274,0.214576343
0.230364483,0.185137412,0.115465425,0.21434623
0.230130833,0.185022543,0.115267636,0.214116584
0.229898043,0.184908002,0.115069911,0.213887412
0.22966612,0.184793792,0.114872257,0.21365872
0.22943507,0.184679914,0.114674676,0.213430515
0.229204898,0.184566371,0.114477173,0.213202801
0.228975611,0.184453165,0.114279751,0.212975586
0.228747213,0.184340297,0.114082417,0.212748877
0.228519709,0.184227771,0.113885173,0.212522679
0.228293105,0.184115588,0.113688024,0.212296999
0.228067404,0.18400375,0.113490974,0.212071843
0.227842611,0.183892259,0.113294029,0.211847216
0.227618732,0.183781117,0.113097191,0.211623126
0.227395771,0.183670325,0.112900465,0.211399576
0.227173735,0.183559887,0.112703857,0.211176575
0.226952629,0.183449805,0.11250737,0.210954127
0.226732458,0.18334008,0.112311009,0.210732239
0.226513227,0.183230715,0.112114779,0.210510915
0.226294943,0.183121712,0.111918683,0.210290162
0.22607761,0.183013074,0.111722727,0.210069985
0.225861234,0.182904801,0.111526915,0.209850389
0.22564582,0.182796895,0.11133125,0.209631379
0.225431373,0.18268936,0.111135738,0.209412961
0.225217897,0.182582196,0.110940383,0.20919514
0.225005397,0.182475406,0.110745188,0.20897792
0.224793877,0.182368992,0.11055016,0.208761306
0.22458334,0.182262955,0.110355301,0.208545302
0.224373791,0.182157298,0.110160616,0.208329912
0.224165232,0.182052023,0.109966109,0.20811514
0.223957669,0.18194713,0.109771785,0.20790099
0.223751106,0.181842623,0.109577648,0.207687465
0.223545547,0.181738502,0.109383703,0.20747457
0.223340996,0.181634772,0.109189953,0.207262308
0.223137457,0.181531433,0.108996403,0.207050683
0.222934935,0.181428488,0.108803057,0.206839697
0.222733433,0.18132594,0.108609919,0.206629353
0.222532957,0.181223788,0.108416993,0.206419655
0.22233351,0.181122037,0.108224283,0.206210604
0.222135095,0.181020686,0.108031794,0.206002205
0.221937718,0.180919739,0.107839528,0.20579446
0.22174138,0.180819197,0.107647491,0.205587371
0.221546084,0.180719062,0.107455686,0.205380941
0.221351835,0.180619336,0.107264118,0.205175174
0.221158632,0.18052002,0.107072791,0.20497007
0.220966481,0.180421118,0.106881709,0.204765633
0.220775382,0.180322629,0.106690875,0.204561865
0.220585338,0.180224556,0.106500294,0.204358767
0.220396353,0.180126901,0.106309969,0.204156342
0.22020843,0.180029666,0.106119904,0.203954593
0.220021571,0.179932854,0.105930104,0.20375352
0.219835779,0.179836465,0.105740571,0.203553127
0.219651056,0.179740503,0.10555131,0.203353414
0.219467405,0.179644969,0.105362325,0.203154384
0.219284829,0.179549865,0.105173619,0.202956038
0.21910333,0.179455192,0.104985196,0.202758378
0.21892291,0.179360951,0.10479706,0.202561405
0.218743572,0.179267145,0.104609215,0.202365123
0.218565316,0.179173775,0.104421665,0.202169534
0.218388144,0.179080842,0.104234412,0.201974639
0.218212058,0.178988349,0.104047462,0.201780442
0.218037057,0.178896295,0.103860817,0.201586945
0.217863144,0.178804683,0.103674482,0.20139415
0.217690319,0.178713514,0.10348846,0.201202059
0.217518584,0.178622789,0.103302755,0.201010676
0.217347941,0.178532509,0.10311737,0.200820003
0.217178393,0.178442676,0.102932309,0.200630044
0.21700994,0.178353292,0.102747576,0.200440801
0.216842585,0.178264359,0.102563174,0.200252276
0.21667633,0.178175877,0.102379107,0.200064471
0.216511176,0.178087847,0.102195378,0.19987739
0.216347125,0.178000272,0.102011991,0.199691034
0.216184179,0.177913151,0.101828948,0.199505406
0.21602234,0.177826487,0.101646254,0.199320507
0.215861609,0.177740282,0.10146391,0.199136341
0.215701986,0.177654536,0.101281921,0.198952909
0.215543472,0.177569251,0.101100289,0.198770214
0.215386068,0.177484428,0.100919017,0.198588258
0.215229775,0.177400067,0.100738109,0.198407043
0.215074594,0.177316171,0.100557567,0.198226571
0.214920525,0.17723274,0.100377394,0.198046844
0.21476757,0.177149774,0.100197593,0.197867863
0.21461573,0.177067276,0.100018167,0.197689632
0.214465006,0.176985247,0.09983912,0.197512151
0.2143154,0.176903688,0.099660453,0.197335424
0.214166913,0.1768226,0.099482169,0.19715945
0.214019546,0.176741984,0.099304272,0.196984233
0.2138733,0.176661841,0.099126764,0.196809773
0.213728176,0.176582171,0.098949647,0.196636073
0.213584176,0.176502977,0.098772925,0.196463134
0.213441299,0.176424258,0.098596599,0.196290958
0.213299547,0.176346016,0.098420674,0.196119546
0.213158919,0.176268253,0.098245151,0.195948899
0.213019415,0.176190968,0.098070033,0.195779019
0.212881034,0.176114164,0.097895324,0.195609906
0.212743777,0.17603784,0.097721026,0.195441561
0.212607642,0.175961997,0.097547143,0.195273985
0.212472631,0.175886637,0.097373676,0.195107179
0.212338743,0.175811759,0.097200629,0.194941143
0.212205979,0.175737366,0.097028005,0.194775878
0.212074339,0.175663458,0.096855806,0.194611385
0.211943823,0.175590036,0.096684035,0.194447664
0.211814432,0.175517101,0.096512695,0.194284714
0.211686166,0.175444654,0.096341788,0.194122535
0.211559026,0.175372694,0.096171316,0.193961128
0.211433011,0.175301223,0.096001283,0.193800491
0.211308121,0.175230242,0.09583169,0.193640626
0.211184356,0.17515975,0.095662539,0.19348153
0.211061716,0.175089747,0.095493834,0.193323205
0.2109402,0.175020235,0.095325576,0.19316565
0.210819807,0.174951213,0.095157769,0.193008863
0.210700536,0.17488268,0.094990414,0.192852845
0.210582386,0.174814637,0.094823515,0.192697594
0.210465357,0.174747084,0.094657073,0.192543109
0.210349448,0.17468002,0.094491092,0.19238939
0.21023466,0.174613446,0.094325575,0.192236436
0.210120993,0.174547361,0.094160523,0.192084245
0.210008446,0.174481766,0.09399594,0.191932818
0.20989702,0.174416661,0.093831829,0.191782153
0.209786715,0.174352045,0.093668191,0.191632249
0.209677531,0.174287919,0.09350503,0.191483104
0.209569467,0.174224281,0.093342348,0.191334718
0.209462524,0.174161132,0.093180147,0.191187087
0.209356701,0.174098471,0.093018429,0.191040213
0.209251997,0.174036299,0.092857197,0.190894092
0.209148411,0.173974614,0.092696453,0.190748725
0.209045941,0.173913418,0.092536199,0.190604109
0.208944587,0.173852709,0.092376437,0.190460243
0.208844347,0.173792486,0.09221717,0.190317125
0.208745219,0.173732751,0.0920584,0.190174755
0.208647202,0.173673501,0.091900129,0.190033132
0.208550295,0.173614738,0.09174236,0.189892254
0.208454499,0.173556459,0.091585094,0.189752122
0.208359811,0.173498667,0.091428335,0.189612735
0.208266231,0.17344136,0.091272084,0.189474092
0.208173759,0.173384538,0.091116345,0.189336194
0.208082394,0.1733282,0.090961118,0.18919904
0.207992134,0.173272346,0.090806407,0.189062629
0.20790298,0.173216976,0.090652212,0.188926962
0.20781493,0.173162088,0.090498537,0.188792039
0.207727984,0.173107682,0.090345384,0.18865786
0.207642139,0.173053758,0.090192755,0.188524425
0.207557393,0.173000316,0.090040652,0.188391735
0.207473746,0.172947355,0.089889078,0.18825979
0.207391194,0.172894873,0.089738036,0.18812859
0.207309736,0.172842871,0.089587528,0.187998135
0.207229369,0.172791348,0.089437556,0.187868425
0.207150092,0.172740302,0.089288123,0.187739459
0.207071904,0.172689734,0.089139231,0.187611239
0.206994802,0.172639643,0.088990881,0.187483763
0.206918787,0.172590028,0.088843077,0.187357031
0.206843855,0.17254089,0.088695821,0.187231043
0.206770005,0.172492227,0.088549115,0.187105798
0.206697237,0.172444039,0.08840296,0.186981295
0.206625549,0.172396326,0.088257359,0.186857534
0.206554938,0.172349085,0.088112313,0.186734513
0.206485405,0.172302317,0.087967825,0.186612231
0.206416946,0.172256021,0.087823895,0.186490689
0.206349559,0.172210196,0.087680527,0.186369884
0.206283242,0.172164841,0.087537721,0.186249817
0.206217992,0.172119957,0.087395481,0.186130486
0.206153806,0.172075541,0.087253806,0.186011889
0.206090682,0.172031593,0.0871127,0.185894027
0.206028617,0.171988112,0.086972163,0.185776897
0.205967608,0.171945098,0.086832198,0.185660497
0.205907655,0.171902549,0.086692806,0.185544828
0.205848755,0.171860465,0.086553988,0.185429888
0.205790906,0.171818847,0.086415747,0.185315676
0.205734106,0.171777693,0.086278085,0.18520219
0.205678354,0.171737004,0.086141001,0.185089429
0.205623648,0.171696777,0.086004499,0.18497739
0.205569985,0.171657012,0.085868579,0.184866073
0.205517364,0.171617709,0.085733243,0.184755476
0.205465782,0.171578868,0.085598491,0.184645598
0.205415237,0.171540486,0.085464325,0.184536436
0.205365725,0.171502565,0.085330746,0.18442799
0.205317244,0.171465103,0.085197755,0.184320257
0.205269791,0.1714281,0.085065353,0.184213237
0.205223361,0.171391556,0.084933542,0.184106928
0.205177953,0.171355468,0.084802322,0.184001328
0.205133563,0.171319836,0.084671694,0.183896435
0.205090188,0.171284661,0.084541659,0.183792248
0.205047826,0.171249941,0.084412219,0.183688766
0.205006475,0.171215676,0.084283373,0.183585987
0.204966131,0.171181865,0.084155124,0.183483909
0.204926793,0.171148509,0.084027471,0.18338253
0.204888457,0.171115607,0.083900416,0.183281849
0.204851121,0.171083157,0.08377396,0.183181863
0.204814783,0.17105116,0.083648101,0.183082571
0.204779439,0.171019613,0.083522843,0.182983971
0.204745088,0.170988518,0.083398184,0.182886062
0.204711724,0.170957873,0.083274127,0.182788841
0.204679345,0.170927677,0.083150671,0.182692308
0.204647947,0.170897931,0.083027818,0.18259646
0.204617526,0.170868633,0.082905569,0.182501295
0.204588076,0.170839783,0.082783925,0.182406813
0.204559596,0.170811379,0.082662886,0.182313012
0.204532081,0.170783421,0.082542455,0.182219891
0.204505527,0.170755908,0.082422631,0.18212745
0.204479932,0.170728841,0.082303417,0.182035688
0.204455291,0.170702218,0.082184814,0.181944606
0.204431602,0.170676038,0.082066822,0.181854202
0.204408861,0.170650303,0.081949444,0.181764477
0.204387064,0.17062501,0.08183268,0.181675429
0.204366209,0.170600158,0.081716531,0.181587059
0.204346293,0.170575748,0.081600998,0.181499365
0.204327311,0.170551777,0.081486082,0.18141235
0.204309261,0.170528245,0.081371784,0.181326011
0.204292137,0.170505152,0.081258105,0.181240351
0.204275937,0.170482497,0.081145045,0.181155368
0.204260655,0.170460278,0.081032606,0.181071063
0.204246286,0.170438495,0.080920788,0.180987437
0.204232827,0.170417146,0.080809592,0.180904489
0.204220273,0.170396232,0.080699019,0.180822219
0.204208621,0.170375749,0.080589069,0.180740628
0.204197867,0.170355699,0.080479743,0.180659716
0.204188008,0.170336079,0.080371042,0.180579485
0.20417904,0.170316889,0.080262966,0.180499932
0.204170959,0.170298129,0.080155516,0.18042106
0.204163763,0.170279798,0.080048691,0.180342867
0.204157447,0.170261895,0.079942493,0.180265352
0.204152009,0.170244419,0.079836922,0.180188517
0.204147444,0.17022737,0.079731977,0.180112359
0.204143749,0.170210746,0.079627658,0.18003688
0.20414092,0.170194547,0.079523966,0.179962079
0.204138952,0.170178773,0.0794209,0.179887956
0.204137841,0.170163423,0.07931846,0.17981451
0.204137583,0.170148495,0.079216647,0.179741741
0.204138172,0.17013399,0.079115459,0.17966965
0.204139604,0.170119905,0.079014897,0.179598235
0.204141875,0.17010624,0.078914959,0.179527497
0.20414498,0.170092993,0.078815646,0.179457435
0.204148918,0.170080165,0.078716958,0.179388048
0.204153682,0.170067754,0.078618893,0.179319337
0.20415927,0.170055759,0.078521452,0.179251301
0.204165678,0.170044181,0.078424633,0.179183939
0.204172901,0.170033016,0.078328437,0.179117251
0.204180937,0.170022266,0.078232862,0.179051235
0.204189782,0.170011927,0.078137908,0.17898589
0.20419943,0.170002,0.078043574,0.178921216
0.20420988,0.169992483,0.077949859,0.178857212
0.204221125,0.169983376,0.077856763,0.178793877
0.204233161,0.169974678,0.077764286,0.178731209
0.204245984,0.169966388,0.077672427,0.178669208
0.204259589,0.169958504,0.077581186,0.178607872
0.20427397,0.169951027,0.077490562,0.1785472
0.204289124,0.169943955,0.077400555,0.17848719
0.204305045,0.169937287,0.077311164,0.178427842
0.204321729,0.169931023,0.077222389,0.178369154
0.204339172,0.169925161,0.07713423,0.178311124
0.204357371,0.169919701,0.077046687,0.178253751
0.20437632,0.169914644,0.076959758,0.178197034
0.204396015,0.169909988,0.076873444,0.178140971
0.204416454,0.169905732,0.076787744,0.178085559
0.204437631,0.169901877,0.076702658,0.178030797
0.204459544,0.169898421,0.076618184,0.177976683
0.204482187,0.169895363,0.076534323,0.177923216
0.204505556,0.169892702,0.076451074,0.177870393
0.204529648,0.169890438,0.076368436,0.177818213
0.204554457,0.16988857,0.076286409,0.177766674
0.204579977,0.169887096,0.076204992,0.177715775
0.204606205,0.169886016,0.076124186,0.177665514
0.204633134,0.169885328,0.076043988,0.177615889
0.20466076,0.169885031,0.075964399,0.177566899
0.20468908,0.169885123,0.075885419,0.177518543
0.204718089,0.169885603,0.075807045,0.177470818
0.204747782,0.169886471,0.075729278,0.177423725
0.204778157,0.169887726,0.075652117,0.177377261
0.204809209,0.169889365,0.075575561,0.177331425
0.204840933,0.169891389,0.075499609,0.177286215
0.204873326,0.169893795,0.075424261,0.177241629
0.204906383,0.169896581,0.075349514,0.177197665
0.204940101,0.169899748,0.075275369,0.177154322
0.204974475,0.169903292,0.075201824,0.177111597
0.2050095,0.169907213,0.075128878,0.177069488
0.205045171,0.16991151,0.075056531,0.177027994
0.205081483,0.169916182,0.074984781,0.17698711
0.20511843,0.169921227,0.074913627,0.176946835
0.205156008,0.169926645,0.074843069,0.176907165
0.205194211,0.169932433,0.074773106,0.176868098
0.205233035,0.16993859,0.074703736,0.17682963
0.205272474,0.169945115,0.074634959,0.176791759
0.205312524,0.169952007,0.074566774,0.176754482
0.205353182,0.169959266,0.074499179,0.176717795
0.205394442,0.169966889,0.074432174,0.176681696
0.2054363,0.169974877,0.074365758,0.176646181
0.205478752,0.169983227,0.07429993,0.176611246
0.205521794,0.169991939,0.074234689,0.176576888
0.205565421,0.17000101,0.074170033,0.176543103
0.205609629,0.17001044,0.074105961,0.176509889
0.205654414,0.170020227,0.074042473,0.176477242
0.205699771,0.17003037,0.073979567,0.176445158
0.205745694,0.170040869,0.073917243,0.176413636
0.205792179,0.17005172,0.0738555,0.176382671
0.205839219,0.170062924,0.073794337,0.17635226
0.20588681,0.170074479,0.073733753,0.176322399
0.205934945,0.170086382,0.073673748,0.176293087
0.205983621,0.170098633,0.073614319,0.176264318
0.206032832,0.170111231,0.073555466,0.176236091
0.206082574,0.170124174,0.073497188,0.176208403
0.206132842,0.170137461,0.073439484,0.17618125
0.206183632,0.17015109,0.073382353,0.17615463
0.206234938,0.170165062,0.073325792,0.176128539
0.206286757,0.170179374,0.073269801,0.176102974
0.206339084,0.170194024,0.073214379,0.176077932
0.206391914,0.170209011,0.073159524,0.17605341
0.206445243,0.170224333,0.073105234,0.176029405
0.206499067,0.170239989,0.073051507,0.176005913
0.206553379,0.170255977,0.072998344,0.175982933
0.206608175,0.170272294,0.072945742,0.17596046
0.206663449,0.170288938,0.0728937,0.175938492
0.206719196,0.170305906,0.072842217,0.175917026
0.206775409,0.170323196,0.072791292,0.175896057
0.206832085,0.170340805,0.072740922,0.175875584
0.206889218,0.170358731,0.072691107,0.175855603
0.206946805,0.170376971,0.072641846,0.175836111
0.207004841,0.170395523,0.072593137,0.175817106
0.207063321,0.170414384,0.072544978,0.175798584
0.207122242,0.170433554,0.072497369,0.175780542
0.2071816,0.170453028,0.072450308,0.175762977
0.207241391,0.170472804,0.072403794,0.175745885
0.20730161,0.170492881,0.072357825,0.175729264
0.207362254,0.170513255,0.072312399,0.17571311
0.207423318,0.170533925,0.072267515,0.175697419
0.207484798,0.170554889,0.072223172,0.17568219
0.207546689,0.170576144,0.072179367,0.175667419
0.207608987,0.17059769,0.072136099,0.175653102
0.207671686,0.170619524,0.072093365,0.175639237
0.20773478,0.170641644,0.072051166,0.175625821
0.207798267,0.170664047,0.072009497,0.17561285
0.20786214,0.170686731,0.071968359,0.17560032
0.207926397,0.170709695,0.071927748,0.175588228
0.207991033,0.170732936,0.071887664,0.175576572
0.208056045,0.170756452,0.071848103,0.175565346
0.208121429,0.170780243,0.071809065,0.175554548
0.208187181,0.170804305,0.071770548,0.175544174
0.208253298,0.170828637,0.071732548,0.17553422
0.208319776,0.170853236,0.071695065,0.175524682
0.208386612,0.1708781,0.071658095,0.175515557
0.208453803,0.170903228,0.071621637,0.175506841
0.208521344,0.170928616,0.071585689,0.17549853
0.208589232,0.170954264,0.071550248,0.175490621
0.208657463,0.170980169,0.071515313,0.175483111
0.208726033,0.171006329,0.071480882,0.175475996
0.208794937,0.171032743,0.071446952,0.175469272
0.208864172,0.171059408,0.071413523,0.175462934
0.208933733,0.171086322,0.071380592,0.17545698
0.209003618,0.171113483,0.071348158,0.175451405
0.209073823,0.171140889,0.071316218,0.175446204
0.209144345,0.171168539,0.07128477,0.175441373
0.209215182,0.17119643,0.071253814,0.175436909
0.209286331,0.171224562,0.071223346,0.175432808
0.20935779,0.171252931,0.071193364,0.175429066
0.209429555,0.171281536,0.071163868,0.17542568
0.209501624,0.171310375,0.071134854,0.175422647
0.209573996,0.171339445,0.071106321,0.175419962
0.209646667,0.171368744,0.071078267,0.175417623
0.209719634,0.17139827,0.07105069,0.175415626
0.209792895,0.171428021,0.071023589,0.175413969
0.209866447,0.171457994,0.070996961,0.175412648
0.209940286,0.171488187,0.070970804,0.175411661
0.210014409,0.171518598,0.070945118,0.175411003
0.210088812,0.171549223,0.0709199,0.175410672
0.210163493,0.171580061,0.070895149,0.175410664
0.210238449,0.171611109,0.070870862,0.175410976
0.210313678,0.171642364,0.070847039,0.175411605
0.210389177,0.171673824,0.070823677,0.175412547
0.210464944,0.171705489,0.070800775,0.175413801
0.210540977,0.171737354,0.070778331,0.175415362
0.210617273,0.171769418,0.070756344,0.175417228
0.210693831,0.171801679,0.070734811,0.175419394
0.210770647,0.171834133,0.070713732,0.175421858
0.21084772,0.17186678,0.070693104,0.175424615
0.210925047,0.171899615,0.070672925,0.175427665
0.211002624,0.171932638,0.070653194,0.175431002
0.211080449,0.171965846,0.070633908,0.175434624
0.211158518,0.171999237,0.070615065,0.175438527
0.211236828,0.172032809,0.070596665,0.175442709
0.211315376,0.17206656,0.070578705,0.175447167
0.211394157,0.172100486,0.070561183,0.175451896
0.211473168,0.172134587,0.070544097,0.175456895
0.211552408,0.17216886,0.070527445,0.17546216
0.211631873,0.172203303,0.070511227,0.175467689
0.21171156,0.172237915,0.070495439,0.175473479
0.211791468,0.172272694,0.07048008,0.175479527
0.211871592,0.172307638,0.070465148,0.175485829
0.211951931,0.172342746,0.070450642,0.175492383
0.212032481,0.172378015,0.070436559,0.175499186
0.21211324,0.172413443,0.070422897,0.175506235
0.212194205,0.172449029,0.070409655,0.175513526
0.212275373,0.172484771,0.070396829,0.175521058
0.212356739,0.172520668,0.07038442,0.175528828
0.212438301,0.172556718,0.070372424,0.175536833
0.212520054,0.172592918,0.070360841,0.17554507
0.212601994,0.172629269,0.070349668,0.175553535
0.212684117,0.172665767,0.070338904,0.175562226
0.21276642,0.172702411,0.070328547,0.17557114
0.212848898,0.1727392,0.070318594,0.175580272
0.212931549,0.172776132,0.070309044,0.175589621
0.213014368,0.172813206,0.070299896,0.175599182
0.213097353,0.17285042,0.070291147,0.175608953
0.213180499,0.172887774,0.070282795,0.175618931
0.213263804,0.172925265,0.070274839,0.175629113
0.213347265,0.172962893,0.070267276,0.175639496
0.213430879,0.173000656,0.070260104,0.175650075
0.213514642,0.173038551,0.070253322,0.175660849
0.21359855,0.173076577,0.070246926,0.175671813
0.213682602,0.173114733,0.070240916,0.175682965
0.213766792,0.173153017,0.070235289,0.175694303
0.213851117,0.173191427,0.070230044,0.175705824
0.213935572,0.173229962,0.07022518,0.175717524
0.214020154,0.173268619,0.070220693,0.175729402
0.214104858,0.173307397,0.070216583,0.175741455
0.214189681,0.173346294,0.070212849,0.17575368
0.214274619,0.173385307,0.070209487,0.175766074
0.21435967,0.173424436,0.070206498,0.175778635
0.21444483,0.173463679,0.070203878,0.17579136
0.214530096,0.173503034,0.070201628,0.175804247
0.214615466,0.1735425,0.070199744,0.175817292
0.214700937,0.173582075,0.070198225,0.175830494
0.214786505,0.173621758,0.070197069,0.175843849
0.214872168,0.173661546,0.070196275,0.175857355
0.214957924,0.173701437,0.07019584,0.175871008
0.215043768,0.17374143,0.070195762,0.175884806
0.215129699,0.173781524,0.07019604,0.175898746
0.215215711,0.173821717,0.070196671,0.175912825
0.215301801,0.173862008,0.070197652,0.175927042
0.215387966,0.173902394,0.070198982,0.175941392
0.215474201,0.173942873,0.070200658,0.175955874
0.215560502,0.173983444,0.070202678,0.175970484
0.215646866,0.174024105,0.070205038,0.175985221
0.21573329,0.174064855,0.070207737,0.17600008
0.215819771,0.174105691,0.070210773,0.176015061
0.215906305,0.174146612,0.070214142,0.17603016
0.215992889,0.174187618,0.070217842,0.176045375
0.216079521,0.174228707,0.070221871,0.176060703
0.216166197,0.174269876,0.070226226,0.17607614
0.216252913,0.174311125,0.070230905,0.176091684
0.216339668,0.174352452,0.070235904,0.176107333
0.216426458,0.174393855,0.070241222,0.176123082
0.216513278,0.174435333,0.070246857,0.17613893
0.216600126,0.174476884,0.070252804,0.176154874
0.216686997,0.174518507,0.070259063,0.176170912
0.216773888,0.174560201,0.070265631,0.17618704
0.216860794,0.174601964,0.070272507,0.176203256
0.21694771,0.174643794,0.070279686,0.176219559
0.217034633,0.174685689,0.070287168,0.176235944
0.21712156,0.174727649,0.07029495,0.17625241
0.217208485,0.174769671,0.070303029,0.176268955
0.217295407,0.174811754,0.070311403,0.176285576
0.217382321,0.174853898,0.07032007,0.176302271
0.217469223,0.174896101,0.070329027,0.176319039
0.217556111,0.174938362,0.070338273,0.176335876
0.217642981,0.174980679,0.070347805,0.17635278
0.21772983,0.17502305,0.07035762,0.176369749
0.217816654,0.175065475,0.070367715,0.17638678
0.217903449,0.175107951,0.07037809,0.17640387
0.217990213,0.175150478,0.070388741,0.176421017
0.218076941,0.175193054,0.070399667,0.176438219
0.218163629,0.175235677,0.070410864,0.176455474
0.218250273,0.175278347,0.070422333,0.176472777
0.218336868,0.175321061,0.07043407,0.176490128
0.21842341,0.175363818,0.070446073,0.176507522
0.218509896,0.175406617,0.070458341,0.176524958
0.218596322,0.175449456,0.070470872,0.176542434
0.218682686,0.175492333,0.070483663,0.176559946
0.218768984,0.175535249,0.070496714,0.176577493
0.218855215,0.175578201,0.070510022,0.176595072
0.218941374,0.17562119,0.070523585,0.176612682
0.219027459,0.175664213,0.070537403,0.176630319
0.219113469,0.17570727,0.070551472,0.176647981
0.2191994,0.175750359,0.07056579,0.176665667
0.219285249,0.175793479,0.070580357,0.176683373
0.219371014,0.17583663,0.070595168,0.1767011
0.219456692,0.17587981,0.070610223,0.176718844
0.219542279,0.175923018,0.070625519,0.176736604
0.219627773,0.175966254,0.070641054,0.176754378
0.219713169,0.176009517,0.070656826,0.176772163
0.219798464,0.176052807,0.070672834,0.176789958
0.219883655,0.176096121,0.070689075,0.17680776
0.219968737,0.17613946,0.070705548,0.176825566
0.220053709,0.176182823,0.07072225,0.176843375
0.220138567,0.17622621,0.070739181,0.176861183
0.220223309,0.176269621,0.070756337,0.176878988
0.220307931,0.176313056,0.070773719,0.176896788
0.220392431,0.176356513,0.070791323,0.17691458
0.220476806,0.176399992,0.070809149,0.176932361
0.220561052,0.176443493,0.070827193,0.176950128
0.220645168,0.176487015,0.070845454,0.176967879
0.22072915,0.176530557,0.07086393,0.176985612
0.220812993,0.176574119,0.070882619,0.177003323
0.220896696,0.1766177,0.070901519,0.177021011
0.220980254,0.176661301,0.070920628,0.177038673
0.221063664,0.17670492,0.070939946,0.177056308
0.221146921,0.176748557,0.070959469,0.177073912
0.221230022,0.176792212,0.070979196,0.177091485
0.221312964,0.176835883,0.070999125,0.177109022
0.221395744,0.17687957,0.071019254,0.177126524
0.221478358,0.176923272,0.071039582,0.177143987
0.221560803,0.176966989,0.071060106,0.177161409
0.221643078,0.177010722,0.071080825,0.177178788
0.22172518,0.177054468,0.071101736,0.177196123
0.221807105,0.177098228,0.071122839,0.177213411
0.221888851,0.177142001,0.07114413,0.177230648
0.221970417,0.177185786,0.071165608,0.177247834
0.222051799,0.177229582,0.071187271,0.177264965
0.222132994,0.177273389,0.071209118,0.17728204
0.222214001,0.177317206,0.071231145,0.177299055
0.222294816,0.177361031,0.071253351,0.177316009
0.222375436,0.177404865,0.071275735,0.1773329
0.222455858,0.177448706,0.071298294,0.177349724
0.222536078,0.177492553,0.071321028,0.17736648
0.222616092,0.177536405,0.071343933,0.177383165
0.222695899,0.17758026,0.071367009,0.177399776
0.222775496,0.177624118,0.071390253,0.17741631
0.222854881,0.177667977,0.071413664,0.177432766
0.222934051,0.177711838,0.07143724,0.177449141
0.223013005,0.177755698,0.07146098,0.177465434
0.223091741,0.177799558,0.071484881,0.177481642
0.223170258,0.177843416,0.071508943,0.177497763
0.223248552,0.177887271,0.071533162,0.177513797
0.223326623,0.177931122,0.071557538,0.177529741
0.223404468,0.177974968,0.071582068,0.177545595
0.223482086,0.178018808,0.07160675,0.177561356
0.223559474,0.17806264,0.071631582,0.177577024
0.22363663,0.178106464,0.071656562,0.177592598
0.223713551,0.178150279,0.071681689,0.177608076
0.223790234,0.178194083,0.07170696,0.177623457
0.223866677,0.178237876,0.071732373,0.177638741
0.223942878,0.178281656,0.071757927,0.177653925
0.224018833,0.178325422,0.071783618,0.177669009
0.224094542,0.178369172,0.071809447,0.177683991
0.224170002,0.178412907,0.07183541,0.177698871
0.224245212,0.178456624,0.071861506,0.177713648
0.22432017,0.178500324,0.071887733,0.177728319
0.224394876,0.178544005,0.071914089,0.177742885
0.224469326,0.178587666,0.071940572,0.177757344
0.224543521,0.178631306,0.071967181,0.177771694
0.224617458,0.178674924,0.071993912,0.177785934
0.224691136,0.178718518,0.072020764,0.177800064
0.224764553,0.178762088,0.072047735,0.177814082
0.224837708,0.178805633,0.072074824,0.177827987
0.224910598,0.178849151,0.072102027,0.177841778
0.22498322,0.178892643,0.072129344,0.177855454
0.225055573,0.178936107,0.072156773,0.177869015
0.225127653,0.178979542,0.072184312,0.177882459
0.225199459,0.179022947,0.072211959,0.177895784
0.225270989,0.17906632,0.072239711,0.17790899
0.225342241,0.179109662,0.072267568,0.177922075
0.225413214,0.179152971,0.072295527,0.177935039
0.225483905,0.179196247,0.072323586,0.17794788
0.225554313,0.17923949,0.072351744,0.177960598
0.225624437,0.179282698,0.072379998,0.177973191
0.225694275,0.17932587,0.072408346,0.177985659
0.225763826,0.179369006,0.072436786,0.177998001
0.225833089,0.179412104,0.072465317,0.178010218
0.225902062,0.179455163,0.072493936,0.178022308
0.225970743,0.179498183,0.072522643,0.178034272
0.226039131,0.179541161,0.072551435,0.17804611
0.226107223,0.179584098,0.07258031,0.178057823
0.226175018,0.179626992,0.072609269,0.178069409
0.226242512,0.179669841,0.072638308,0.178080871
0.226309703,0.179712644,0.072667428,0.178092208
0.22637659,0.1797554,0.072696626,0.17810342
0.22644317,0.179798107,0.0727259,0.178114507
