raw_ch1,raw_ch2,raw_ch3,raw_ch4,processed_ch1,processed_ch2,processed_ch3,processed_ch4
0.14053208622398414,-0.05110257680872151,0.028745199454905845,-0.2235737735381566,0.3289854109741137,0.050160734695844984,0.0757585805028221,0.22402701432786606
0.20441030723488604,-0.02235737735381566,0.07984777626362735,-0.23315550668979185,0.32894932656400244,0.05014770363805711,0.07577347813572236,0.22403092905887267
0.16608337462834488,0.035133021555996034,0.08942950941526263,-0.12456253097125865,0.32891315071481225,0.05013465247691709,0.07578839371415957,0.22403485194411987
0.05429648785926659,0.05749039890981169,0.07345995416253714,-0.047908665758176414,0.32887688260488956,0.050121581693977665,0.07580332656163892,0.22403878274567793
0.10220515361744302,0.0031939110505450944,0.05110257680872151,-0.0031939110505450944,0.3288405211728468,0.05010849175293979,0.07581827600242519,0.2240427210823252
-0.4088206144697721,0.01596955525272547,0.02235737735381566,0.2107981293359762,0.32880406509642074,0.05009538309528536,0.07583324134955234,0.2240466663492232
-0.9965002477700692,0.01596955525272547,-0.08942950941526263,0.3832693260654113,0.32876751295315404,0.05008225612394935,0.07584822188223006,0.2240506177524857
-0.9709489593657086,-0.05429648785926659,-0.20441030723488604,0.3768815039643211,0.32873086363243237,0.050069111196211345,0.07586321685664074,0.2240545744740469
-0.45353536917740334,-0.025551288404360755,-0.16927728567888997,0.38965714816650143,0.32869411673460003,0.05005594863614915,0.07587822557303381,0.22405853584680946
0.1596955525272547,-0.04152084365708622,-0.1117868867690783,0.2682885282457879,0.3286572725731323,0.05004276874905381,0.07589324744573338,0.22406250142848422
0.38965714816650143,-0.04471475470763132,-0.09262342046580772,0.13095035307234884,0.32862033181872874,0.050029571826355035,0.0759082820078072,0.22406647095940743
0.4854744796828543,-0.13095035307234884,-0.05110257680872151,-0.1117868867690783,0.32858329521889196,0.05001635815725669,0.07592332886195163,0.22407044423863057
0.5461587896432111,-0.14372599727452925,0.012775644202180378,-0.2619007061446977,0.3285461636093481,0.05000312806857201,0.07593838762291004,0.22407442100479785
0.20441030723488604,-0.10220515361744302,0.08304168731417244,-0.3481363045094153,0.32850893801907544,0.04998988197779085,0.07595345787224496,0.22407840092759063
0.14372599727452925,0.012775644202180378,0.07984777626362735,-0.28425808349851334,0.3284716196236291,0.04997662040793259,0.07596853914563478,0.2240823837023847
0.11498079781962338,-0.0031939110505450944,0.05749039890981169,-0.2491250619425173,0.3284342095510881,0.049963343939501824,0.0759836309521671,0.22408636912793456
0.08304168731417244,0.0,-0.012775644202180378,-0.21718595143706637,0.32839670870721477,0.04995005313884093,0.07599873278344728,0.2240903570988457
0.047908665758176414,0.0031939110505450944,-0.07345995416253714,-0.24273723984142714,0.32835911769020054,0.04993674851326276,0.07601384409509797,0.2240943475574252
0.1053990646679881,0.060684309960356786,-0.006387822101090189,-0.20441030723488604,0.32832143675220177,0.04992343050456782,0.0760289642894909,0.2240983404608126
0.17566510777998018,0.07345995416253714,0.03193911050545094,-0.08623559836471753,0.3282836657985769,0.04991009951322461,0.07604409270895017,0.22410233575358185
0.19163466303270565,0.02235737735381566,0.0031939110505450944,-0.04152084365708622,0.32824580443902346,0.04989675593327024,0.07605922862413757,0.2241063333025272
0.09901124256689792,0.0,-0.028745199454905845,-0.01596955525272547,0.3282078520493396,0.04988340016041434,0.0760743712214026,0.22411033279734394
-0.3768815039643211,0.012775644202180378,-0.025551288404360755,0.2107981293359762,0.3281698078084508,0.049870032565449876,0.07608951960053353,0.22411433368720257
-1.0955114903369672,-0.038326932606541124,-0.14372599727452925,0.41201452552031714,0.3281316708379252,0.04985665347056869,0.07610467279261439,0.22411833523595578
-0.7665386521308226,0.0,-0.11498079781962338,0.4503414581268582,0.3280934405759037,0.04984326315013807,0.07611982980938453,0.22412233670545642
-0.3193911050545094,0.009581733151635281,-0.06387822101090188,0.3800754150148662,0.328055117116818,0.049829861835173794,0.07613498969735187,0.22412633755317143
0.3704936818632309,-0.0031939110505450944,-0.038326932606541124,0.2587067950941526,0.328016701146809,0.04981644970602008,0.07615015154380862,0.22413033750898417
0.46950492443012876,-0.06387822101090188,-0.07984777626362735,0.05110257680872151,0.32797819364652503,0.049803026889784045,0.07616531444108643,0.22413433649734732
0.13095035307234884,-0.07984777626362735,-0.006387822101090189,-0.1565016414767096,0.3279395957169049,0.04978959348250511,0.07618047745818228,0.22413833447026477
0.1469199083250743,-0.06707213206144698,0.09581733151635283,-0.2810641724479683,0.3279009084818393,0.049776149588247734,0.07619563963074755,0.22414233128557337
0.27787026139742316,-0.05110257680872151,0.12775644202180375,-0.33855457135777994,0.32786213295353367,0.049762695344596215,0.07621079997037682,0.22414632673132467
0.2076042182854311,0.038326932606541124,0.10859297571853319,-0.10859297571853319,0.32782326996611316,0.049749230919340685,0.07622595750306417,0.22415032061982598
0.17566510777998018,-0.028745199454905845,0.035133021555996034,-0.22996159563924676,0.3277843201976594,0.049735756491475595,0.07624111130055178,0.22415431280176795
0.12136861992071357,-0.035133021555996034,-0.17885901883052527,-0.22996159563924676,0.3277452841666055,0.0497222722331232,0.07625626047505894,0.22415830311346502
-0.04152084365708622,-0.05429648785926659,0.02235737735381566,-0.2555128840436075,0.32770616217266696,0.04970877830193526,0.07627140417224086,0.2241622913666149
-0.060684309960356786,0.060684309960356786,0.1053990646679881,-0.1533077304261645,0.32766695422086634,0.04969527484812339,0.07628654157135528,0.22416627737340575
-0.02235737735381566,0.07984777626362735,0.07026604311199207,-0.06387822101090188,0.3276276599597949,0.049681762031558885,0.07630167187122805,0.22417026092492823
-0.01596955525272547,0.025551288404360755,0.03193911050545094,-0.038326932606541124,0.3275882786471568,0.049668240035506905,0.07631679427428502,0.224174241705141
0.01596955525272547,0.05749039890981169,0.07345995416253714,0.12456253097125865,0.32754880913135487,0.049654709063779265,0.07633190797238694,0.22417821920224024
-0.49505621283448964,0.01596955525272547,-0.047908665758176414,0.29703372770069375,0.327509249888051,0.0496411693252791,0.076347012132897,0.22418219270265427
-1.0124698030227948,-0.06387822101090188,-0.19163466303270565,0.4471475470763132,0.3274695992555217,0.049627621021882166,0.0763621059090481,0.2241861614070513
-0.7825082073835481,-0.07665386521308225,-0.19163466303270565,0.4184023476214073,0.3274298558920787,0.04961406435132796,0.07637718849334432,0.22419012461791127
0.10220515361744302,-0.05749039890981169,-0.13095035307234884,0.3257789271555996,0.3273900191016421,0.04960049952518446,0.07639225918860273,0.22419408187990328
0.41201452552031714,-0.04471475470763132,-0.07665386521308225,0.18524684093161545,0.32735008870340554,0.04958692678188972,0.07640731743061173,0.22419803298464044
0.45672928022794845,-0.14372599727452925,-0.060684309960356786,-0.04152084365708622,0.3273100647143968,0.049573346389394334,0.07642236274220776,0.22420197784819054
0.3832693260654113,-0.10220515361744302,0.0031939110505450944,-0.21718595143706637,0.3272699472510259,0.04955975866534558,0.07643739466525394,0.22420591635045026
0.34174848240832506,-0.07665386521308225,0.060684309960356786,-0.33216674925668976,0.3272297365750938,0.04954616400835347,0.07645241270761008,0.22420984826816998
0.19482857408325072,-0.009581733151635281,0.1053990646679881,-0.32258501610505447,0.3271894330659001,0.04953256289325017,0.07646741632553178,0.22421377335287976
0.1501138193756194,0.0,0.09262342046580772,-0.22996159563924676,0.32714903710916465,0.04951895582167273,0.07648240495018123,0.22421769143933318
0.1469199083250743,0.02235737735381566,0.009581733151635281,-0.2203798624876115,0.3271085489710941,0.049505343267275,0.07649737801772152,0.22422160246330428
0.13733817517343905,-0.012775644202180378,-0.09262342046580772,-0.2203798624876115,0.32706796871154437,0.04949172564991576,0.07651233496065706,0.22422550640996022
0.2203798624876115,0.0031939110505450944,0.08942950941526263,-0.22676768458870167,0.3270272961584886,0.049478103334651656,0.07652727519098432,0.2242294032713995
-0.006387822101090189,0.06707213206144698,0.10859297571853319,-0.12456253097125865,0.32698653091224683,0.049464476637233676,0.07654219811602066,0.22423329302648132
-0.10220515361744302,0.07026604311199207,0.07984777626362735,-0.047908665758176414,0.32694567232005445,0.04945084584278925,0.07655710316539377,0.22423717559691606
-0.20121639618434092,0.05110257680872151,0.047908665758176414,0.0,0.32690471943410704,0.04943721123808995,0.07657198979444584,0.22424105075717515
-0.2491250619425173,0.047908665758176414,0.02235737735381566,0.2139920403865213,0.32686367104037595,0.04942357312940744,0.0765868574594986,0.2242449180557619
-0.7793142963330029,-0.01596955525272547,-0.10220515361744302,0.36729977081268583,0.3268225258067182,0.04940993183415538,0.07660170558796715,0.22424877684919098
-1.0124698030227948,-0.06387822101090188,-0.2107981293359762,0.36729977081268583,0.32678128258781686,0.04939628766402567,0.076616533590314,0.22425262646257416
-0.5876796333002972,-0.009581733151635281,-0.16608337462834488,0.39285105921704655,0.3267399408069041,0.049382640916731446,0.07663134093136634,0.22425646635963006
-0.02235737735381566,0.028745199454905845,-0.10220515361744302,0.2938398166501486,0.32669850057260585,0.04936899187220622,0.07664612719737919,0.22426029622072882
0.19482857408325072,-0.025551288404360755,-0.07345995416253714,0.14053208622398414,0.32665696236116804,0.04935534078393,0.07666089209040101,0.2242641159159552
0.4247901697224975,-0.14372599727452925,-0.05110257680872151,-0.1053990646679881,0.3266153266300587,0.04934168788428588,0.07667563536933195,0.2242679253918753
0.5557405227948463,-0.10859297571853319,-0.006387822101090189,-0.2650946171952428,0.32657359376032724,0.049328033427478456,0.07669035679039175,0.22427172454748556
0.5365770564915758,-0.09581733151635283,0.07984777626362735,-0.35771803766105054,0.3265317642520196,0.04931437774347611,0.0767050560667637,0.22427551321648695
0.22996159563924676,-0.03193911050545094,0.08623559836471753,-0.3130032829534192,0.32648983886671407,0.04930072125064101,0.0767197328609936,0.22427929126403012
0.17247119672943506,-0.04152084365708622,0.060684309960356786,-0.2587067950941526,0.32644781856095484,0.049287064420929234,0.07673438680899436,0.22428305867570933
0.13414426412289396,-0.028745199454905845,0.035133021555996034,-0.2203798624876115,0.3264057042846603,0.04927340773608432,0.0767490175359491,0.22428681555622113
-0.02235737735381566,0.01596955525272547,-0.04471475470763132,-0.2235737735381566,0.326363496801947,0.049259751660897,0.07676362464233358,0.22429056207310236
-0.20441030723488604,0.07665386521308225,0.019163466303270562,-0.2076042182854311,0.326321196594508,0.049246096634491345,0.07677820768152988,0.22429429840785592
-0.12456253097125865,0.08623559836471753,0.07665386521308225,-0.07026604311199207,0.32627880384374686,0.04923244308366476,0.07679276614953694,0.2242980247180536
-0.006387822101090189,0.03193911050545094,0.035133021555996034,-0.038326932606541124,0.32623631845212286,0.049218791450515366,0.07680729949059417,0.22430174106981882
0.04471475470763132,0.01596955525272547,0.009581733151635281,-0.0031939110505450944,0.3261937400191341,0.04920514219739942,0.076821807103955,0.2243054473380946
-0.41201452552031714,0.028745199454905845,-0.0031939110505450944,0.21718595143706637,0.3261510678149553,0.04919149577971326,0.07683628832988205,0.22430914314373882
-1.02205153617443,-0.035133021555996034,-0.1565016414767096,0.40243279236868185,0.32610830095574106,0.04917785262220481,0.07685074243773002,0.22431282791233126
-0.5078318570366699,-0.012775644202180378,-0.12775644202180375,0.43437190287413274,0.3260654388087626,0.04916421311573203,0.07686516866607356,0.22431650105949205
-0.009581733151635281,-0.012775644202180378,-0.10220515361744302,0.3832693260654113,0.32602248124094535,0.04915057761623863,0.07687956629366109,0.224320162185218
0.43756581392467786,-0.09581733151635283,-0.06387822101090188,0.24593115089197226,0.32597942843282923,0.049136946444059304,0.07689393466724191,0.22432381114869676
0.5621283448959365,-0.13733817517343905,-0.08942950941526263,0.04152084365708622,0.3259362806223838,0.04912331991255568,0.07690827317709062,0.2243274479919
0.5589344338453914,-0.17566510777998018,-0.025551288404360755,-0.18524684093161545,0.3258930381578609,0.04910969839393298,0.0769225812252104,0.224331072775218
0.3449423934588701,-0.09901124256689792,0.05429648785926659,-0.3130032829534192,0.32584970166363725,0.04909608238181667,0.07693685820084167,0.22433468546853497
0.2107981293359762,-0.02235737735381566,0.1053990646679881,-0.33855457135777994,0.3258062720277386,0.049082472498484145,0.07695110346593759,0.22433828599560107
0.18205292988107036,0.035133021555996034,0.08304168731417244,-0.09262342046580772,0.3257627502296893,0.049068869438702895,0.07696531636772626,0.22434187433076333
0.1501138193756194,-0.006387822101090189,-0.019163466303270562,-0.2235737735381566,0.325719137164055,0.04905527390027865,0.07697949625878533,0.22434545049382723
0.1117868867690783,0.0,-0.09262342046580772,-0.2107981293359762,0.32567543353660827,0.049041686542579815,0.0769936424890174,0.22434901447834366
0.05429648785926659,-0.006387822101090189,-0.019163466303270562,-0.2587067950941526,0.3256316398044852,0.04902810796610802,0.07700775438633975,0.22435256623506786
0.012775644202180378,0.05429648785926659,0.047908665758176414,-0.16608337462834488,0.325587756116732,0.04901453870691191,0.07702183124725782,0.22435610570167144
0.02235737735381566,0.05429648785926659,0.03193911050545094,-0.07984777626362735,0.32554378225308434,0.049000979254551956,0.07703587232667101,0.22435963279432605
0.07665386521308225,-0.012775644202180378,0.0,-0.04152084365708622,0.32549971758909557,0.048987430078418784,0.07704987682476483,0.22436314733462595
-0.10220515361744302,0.035133021555996034,0.05110257680872151,0.1117868867690783,0.32545556111033414,0.04897389163325913,0.0770638438753588,0.2243666489619758
-0.4599231912784935,-0.009581733151635281,-0.06387822101090188,0.2746763503468781,0.325411311494598,0.048960364346098934,0.07707777254617952,0.22437013711500856
-0.8751316278493557,-0.06387822101090188,-0.18205292988107036,0.4311779918235877,0.3253669673323093,0.04894684860893716,0.07709166187215626,0.22437361113059154
-0.7026604311199207,-0.035133021555996034,-0.16608337462834488,0.4279840807730426,0.3253225274945345,0.04893334478730041,0.07710551092428292,0.2243770704236244
0.05749039890981169,0.02235737735381566,-0.07665386521308225,0.34174848240832506,0.3252779913811102,0.04891985323205579,0.07711931887272581,0.22438051463674433
0.10859297571853319,0.035133021555996034,-0.028745199454905845,0.2139920403865213,0.3252333587628916,0.048906374277764425,0.07713308498378142,0.22438394366536712
-0.21718595143706637,-0.035133021555996034,0.0,0.0,0.3251886294055806,0.04889290823458356,0.0771468085505276,0.224387357547439
0.5333831454410307,-0.07026604311199207,0.012775644202180378,-0.18524684093161545,0.3251438029061177,0.048879455391720866,0.07716048881873803,0.22439075628862057
0.5812918111992071,-0.14372599727452925,0.028745199454905845,-0.33855457135777994,0.32509887884280714,0.04886601604212689,0.07717412495042199,0.2243941397674663
0.2235737735381566,-0.04152084365708622,0.10859297571853319,-0.32897283820614465,0.3250538569899602,0.04885259052252212,0.07718771603086176,0.22439750780817916
0.14372599727452925,-0.019163466303270562,0.04152084365708622,-0.22996159563924676,0.325008737329369,0.04883917922715424,0.07720126110578691,0.22440086030804002
0.13095035307234884,0.01596955525272547,0.0031939110505450944,-0.22996159563924676,0.32496351985667116,0.048825782570408406,0.07721475920622313,0.22440419726956246
0.17885901883052527,-0.05110257680872151,-0.060684309960356786,-0.21718595143706637,0.32491820440104857,0.04881240094323456,0.07722820933313279,0.22440751875126283
0.3704936818632309,-0.038326932606541124,0.09262342046580772,-0.22996159563924676,0.3248727905922993,0.04879903470546503,0.07724161044292753,0.22441082482385305
0.28425808349851334,0.038326932606541124,0.08623559836471753,-0.12136861992071357,0.32482727794511396,0.04878568419831857,0.077254961472104,0.22441411554751117
0.2555128840436075,0.028745199454905845,0.038326932606541124,-0.05110257680872151,0.3247816659534131,0.048772349749605724,0.07726826136765345,0.22441739092576324
0.23315550668979185,0.0,0.03193911050545094,-0.009581733151635281,0.32473595410631584,0.048759031665890795,0.0772815090821062,0.22442065081599719
-0.22996159563924676,0.060684309960356786,0.03193911050545094,0.19802248513379583,0.3246901418479973,0.048745730220772554,0.07729470354397082,0.22442389485256256
-0.8974890052031714,0.0,-0.07345995416253714,0.3641058597621407,0.32464422860948783,0.04873244565261728,0.07730784363945885,0.22442712247761107
-1.149807978196234,-0.05429648785926659,-0.2076042182854311,0.3768815039643211,0.32459821407817696,0.048719178170047665,0.07732092823524554,0.22443033309612628
-0.6515578543111992,-0.038326932606541124,-0.18205292988107036,0.3832693260654113,0.32455209862674966,0.04870592795734615,0.07733395625177868,0.22443352624725688
0.038326932606541124,-0.0031939110505450944,-0.11498079781962338,0.2746763503468781,0.3245058834542407,0.04869269517915619,0.07734692674001553,0.22443670168397226
0.20121639618434092,-0.012775644202180378,-0.09901124256689792,0.13095035307234884,0.32445957022447913,0.0486794799740007,0.07735983889301841,0.22443985933845376
0.29703372770069375,-0.13733817517343905,-0.060684309960356786,-0.12136861992071357,0.32441316060698433,0.04866628244914374,0.0773726919980963,0.2244429992034756
0.36729977081268583,-0.10220515361744302,0.006387822101090189,-0.2682885282457879,0.3243666561299018,0.04865310271627203,0.0773854853776793,0.22444612121725255
0.38646323711595637,-0.08942950941526263,0.09581733151635283,-0.35452412661050536,0.3243200582704869,0.04863994094912074,0.07739821834164348,0.22444922525786287
0.12136861992071357,-0.019163466303270562,0.1053990646679881,-0.303421549801784,0.32427336853116134,0.048626797399420406,0.0774108901752833,0.22445231124021803
0.09262342046580772,-0.02235737735381566,0.07984777626362735,-0.2491250619425173,0.32422658838133045,0.04861367235980703,0.07742350016821586,0.2244553791963282
0.07026604311199207,-0.02235737735381566,0.02235737735381566,-0.2107981293359762,0.32417971910510957,0.04860056611529599,0.07743604763386584,0.22445842926660908
0.13733817517343905,-0.012775644202180378,0.006387822101090189,-0.2203798624876115,0.324132761684881,0.04858747891591304,0.07744853188296101,0.22446146164132677
0.2555128840436075,0.028745199454905845,0.07984777626362735,-0.17885901883052527,0.3240857167938623,0.0485744109695243,0.07746095218234006,0.2244644765113205
0.2076042182854311,0.038326932606541124,0.05429648785926659,-0.07984777626362735,0.32403858486968445,0.04856136244435446,0.07747330774776395,0.22446747402785952
0.05749039890981169,0.047908665758176414,0.019163466303270562,-0.019163466303270562,0.32399136617754526,0.04854833347980063,0.07748559776246358,0.22447045423507833
-0.23315550668979185,0.07026604311199207,0.0,0.012775644202180378,0.32394406079644755,0.04853532420355389,0.07749782137440711,0.22447341697513765
-0.8879072720515362,0.07665386521308225,-0.006387822101090189,0.2139920403865213,0.3238966686593787,0.04852233475183782,0.07750997766707961,0.22447636183106018
-1.3222791749256688,-0.0031939110505450944,-0.14372599727452925,0.4152084365708622,0.3238491898900144,0.048509365282219045,0.07752206564926246,0.22447928819149413
-0.6547517653617443,-0.0031939110505450944,-0.12775644202180375,0.43437190287413274,0.32380162533603185,0.04849641595812559,0.07753408430084226,0.2244821954418906
-0.12775644202180375,-0.012775644202180378,-0.10220515361744302,0.39285105921704655,0.3237539767702529,0.048483486911707604,0.07754603264503297,0.2244850831618255
0.32258501610505447,-0.0031939110505450944,-0.07665386521308225,0.2682885282457879,0.32370624653480057,0.04847057821934136,0.07755790977991929,0.22448795120213222
0.40243279236868185,-0.05429648785926659,-0.07984777626362735,0.07345995416253714,0.32365843709315506,0.04845768990222562,0.07756971486010464,0.22449079961632862
0.5174135901883052,-0.1565016414767096,-0.019163466303270562,-0.17885901883052527,0.32361055091472607,0.048444821955056096,0.07758144706507383,0.22449362850580634
0.5812918111992071,-0.14372599727452925,-0.0031939110505450944,-0.3257789271555996,0.32356259059582043,0.04843197441157423,0.07759310556343964,0.22449643790888404
0.3098093719028741,-0.05749039890981169,0.09901124256689792,-0.35452412661050536,0.3235145589721416,0.04841914740873467,0.07760468947993361,0.2244992278351638
0.19482857408325072,0.009581733151635281,0.025551288404360755,-0.18844075198216054,0.3234664590877868,0.048406341184087126,0.07761619789379881,0.22450199836814447
0.13095035307234884,-0.025551288404360755,0.02235737735381566,-0.23634941774033696,0.32341829401938016,0.048393556012089195,0.07762762985449566,0.22450474968808456
0.12136861992071357,-0.04152084365708622,-0.22996159563924676,-0.22676768458870167,0.3233700666842399,0.04838079214885683,0.07763898439407099,0.22450748201702642
0.32258501610505447,-0.06387822101090188,0.05749039890981169,-0.27148243929633303,0.32332177975074244,0.04836804982317771,0.07765026057018638,0.22451019558507632
0.306615460852329,0.009581733151635281,0.08942950941526263,-0.16927728567888997,0.32327343567700234,0.04835532925112618,0.077661457514306,0.22451289063457067
0.06707213206144698,0.038326932606541124,0.08304168731417244,-0.05749039890981169,0.32322503679153264,0.04834263063871574,0.07767257442231255,0.22451556739640036
0.028745199454905845,0.025551288404360755,0.07665386521308225,-0.0031939110505450944,0.32317658526645704,0.04832995417062366,0.0776836105224334,0.22451822599883525
0.028745199454905845,0.05429648785926659,0.08942950941526263,0.12456253097125865,0.32312808297947354,0.04831730000619915,0.07769456506559425,0.22452086635994994
-0.5397709675421208,-0.025551288404360755,-0.060684309960356786,0.27787026139742316,0.3230795314515452,0.04830466828664848,0.07770543732425905,0.22452348816823026
-1.127450600842418,-0.07026604311199207,-0.16927728567888997,0.4311779918235877,0.32303093206892514,0.04829205914303111,0.07771622659591515,0.22452609099899204
-0.951785493062438,-0.060684309960356786,-0.16927728567888997,0.4215962586719524,0.32298228658794215,0.04827947270597838,0.07772693223241936,0.2245286745051377
-0.13414426412289396,-0.019163466303270562,-0.11498079781962338,0.32897283820614465,0.3229335975201195,0.0482669091155623,0.0777375536870655,0.2245312385631383
0.18205292988107036,-0.006387822101090189,-0.08304168731417244,0.19802248513379583,0.32288486798294586,0.048254368512796415,0.07774809052816319,0.2245337832894753
0.3098093719028741,-0.1117868867690783,-0.07984777626362735,-0.02235737735381566,0.32283610123546796,0.04824185102140028,0.07775854240362551,0.22453630892656293
0.5269953233399406,-0.10220515361744302,-0.009581733151635281,-0.2107981293359762,0.32278730044082377,0.048229356763497946,0.07776890899223729,0.22453881567836242
0.4247901697224975,-0.07984777626362735,0.05110257680872151,-0.33216674925668976,0.3227384687551152,0.04821688590591852,0.07777918996065031,0.22454130363415364
0.16927728567888997,0.0,0.09901124256689792,-0.3193911050545094,0.3226896094429135,0.04820443867703908,0.07778938493928685,0.2245437728447658
0.10859297571853319,0.009581733151635281,0.07665386521308225,-0.23634941774033696,0.3226407258075725,0.048192015329343973,0.07779949353597855,0.2245462234364526
0.1117868867690783,0.05429648785926659,-0.035133021555996034,-0.2107981293359762,0.32259182100047307,0.0481796160911731,0.07780951536080397,0.2245486556327989
0.05110257680872151,-0.019163466303270562,-0.05429648785926659,-0.2076042182854311,0.32254289787474116,0.04816724115351095,0.07781945002151544,0.22455106970158129
-0.09581733151635283,0.019163466303270562,0.05110257680872151,-0.22676768458870167,0.3224939589243941,0.0481548906789046,0.07782929710268663,0.22455346590649994
-0.0031939110505450944,0.08942950941526263,0.08623559836471753,-0.1117868867690783,0.32244500625846656,0.04814256480653719,0.07783905616124911,0.22455584448376578
0.04471475470763132,0.09581733151635283,0.06387822101090188,-0.02235737735381566,0.32239604157807705,0.048130263671107704,0.07784872674000319,0.224558205596855
-0.07026604311199207,0.04152084365708622,0.019163466303270562,0.0,0.322347066159167,0.04811798743744967,0.07785830837597371,0.22456054924140334
-0.18205292988107036,0.019163466303270562,0.01596955525272547,0.20441030723488604,0.32229808087260553,0.048105736307735895,0.07786780058332785,0.22456287516463194
-0.85277425049554,0.0,-0.09581733151635283,0.3641058597621407,0.3222490863206628,0.0480935104881372,0.07787720282916863,0.22456518290522917
-1.226461843409316,-0.02235737735381566,-0.22996159563924676,0.3768815039643211,0.32220008321537974,0.04808131015016044,0.07788651455694179,0.22456747196097873
-0.6355882990584737,-0.019163466303270562,-0.19482857408325072,0.3768815039643211,0.32215107289857,0.0480691354145295,0.07789573527611748,0.22456974196384674
-0.05429648785926659,0.006387822101090189,-0.11498079781962338,0.27148243929633303,0.322102057533583,0.04805698635292433,0.0779048646482432,0.22457199275654136
0.28425808349851334,-0.028745199454905845,-0.08942950941526263,0.14053208622398414,0.32205303975598515,0.04804486299093235,0.07791390249041977,0.2245742243560933
0.6323943880079286,-0.1565016414767096,-0.05429648785926659,-0.10220515361744302,0.3220040222588917,0.048032765323301065,0.07792284871266489,0.22457643683685036
0.7026604311199207,-0.17566510777998018,0.006387822101090189,-0.2619007061446977,0.3219550077846488,0.048020693373381246,0.07793170324918729,0.22457863021351782
0.49505621283448964,-0.13414426412289396,0.09262342046580772,-0.35452412661050536,0.3219059993653551,0.04800864727751871,0.07794046600990877,0.22458080442979395
0.19163466303270565,0.0,0.10220515361744302,-0.3098093719028741,0.32185700040575466,0.047996627316832935,0.07794913687135123,0.22458295945612713
0.1469199083250743,-0.02235737735381566,0.07665386521308225,-0.2555128840436075,0.32180801449565033,0.0479846338608229,0.07795771570655728,0.2245850953784718
0.10859297571853319,-0.028745199454905845,0.04471475470763132,-0.22996159563924676,0.32175904513616516,0.04797266728318161,0.07796620240650132,0.22458721239825624
0.2619007061446977,-0.03193911050545094,-0.006387822101090189,-0.22996159563924676,0.3217100955775481,0.047960727921564285,0.07797459686103496,0.2245893107808033
0.3641058597621407,0.05110257680872151,0.047908665758176414,-0.18205292988107036,0.32166116882319734,0.04794881608059982,0.07798289892070269,0.22459139080951965
0.2650946171952428,0.07026604311199207,0.047908665758176414,-0.07984777626362735,0.321612267733011,0.0479369320481261,0.07799110837646513,0.2245934527420628
-0.006387822101090189,0.060684309960356786,0.025551288404360755,-0.028745199454905845,0.32156339507693377,0.04792507611486593,0.07799922496475542,0.22459549673605902
-0.2650946171952428,0.060684309960356786,0.012775644202180378,0.006387822101090189,0.32151455345804014,0.04791324858946186,0.07800724837091795,0.22459752275104936
-0.6387822101090188,0.035133021555996034,-0.01596955525272547,0.20441030723488604,0.32146574527268523,0.04790144979937758,0.07801517821655227,0.22459953048847106
-1.1370323339940533,-0.006387822101090189,-0.1469199083250743,0.40243279236868185,0.3214169729465807,0.04788968007604447,0.07802301405848937,0.22460151944898438
-0.5333831454410307,0.009581733151635281,-0.12775644202180375,0.4471475470763132,0.3213682393598813,0.047877939728214775,0.07803075543346293,0.22460348911787778
-0.2107981293359762,-0.0031939110505450944,-0.11498079781962338,0.3832693260654113,0.3213195480332365,0.04786622901636863,0.07803840192581671,0.22460543916566222
0.1565016414767096,-0.01596955525272547,-0.07665386521308225,0.24273723984142714,0.32127090286575777,0.047854548140504334,0.07804595319799985,0.2246073695284242
0.27148243929633303,-0.07345995416253714,-0.05429648785926659,0.060684309960356786,0.3212223077463632,0.04784289724634127,0.07805340897025773,0.22460928033100344
0.36729977081268583,-0.12775644202180375,-0.012775644202180378,-0.17566510777998018,0.32117376639269957,0.04783127645889228,0.07806076897811982,0.22461117172283523
0.45672928022794845,-0.1053990646679881,0.03193911050545094,-0.3130032829534192,0.32112528241364885,0.047819685939252315,0.07806803292903554,0.2246130437692292
0.3161971940039643,-0.060684309960356786,0.07984777626362735,-0.35133021555996036,0.32107685942637204,0.04780812592595429,0.0780752004785433,0.22461489649223765
0.19802248513379583,-0.0031939110505450944,0.08942950941526263,-0.17566510777998018,0.3210285010899799,0.04779659672441721,0.07808227124355566,0.2246167299756659
0.1628894635777998,-0.035133021555996034,0.05110257680872151,-0.23634941774033696,0.3209802110176847,0.0477850986573678,0.0780892448342568,0.22461854438844223
0.12456253097125865,-0.02235737735381566,-0.08942950941526263,-0.2203798624876115,0.3209319926456434,0.047773632022855575,0.07809612086912732,0.22462033993137767
0.1628894635777998,-0.0031939110505450944,-0.012775644202180378,-0.23634941774033696,0.3208838491446898,0.04776219707980089,0.07810289896843174,0.22462211680299463
0.1053990646679881,0.08304168731417244,0.06387822101090188,-0.1501138193756194,0.32083578338630375,0.04775079404828632,0.07810957873793799,0.2246238751946095
0.08942950941526263,0.028745199454905845,0.060684309960356786,-0.07665386521308225,0.3207877979273786,0.04773942312280862,0.07811615975537273,0.22462561525895894
-0.12136861992071357,-0.006387822101090189,0.05110257680872151,-0.028745199454905845,0.32073989498972294,0.04772808448716948,0.0781226415725304,0.22462733703243828
0.0031939110505450944,0.04471475470763132,0.07984777626362735,0.1117868867690783,0.320692076438396,0.047716778307216184,0.07812902372537481,0.22462904035214207
-0.6036491885530227,0.025551288404360755,-0.05429648785926659,0.2810641724479683,0.3206443438064199,0.0477055047178398,0.07813530574120153,0.22463072484309443
-1.3382487301783943,-0.025551288404360755,-0.20441030723488604,0.4471475470763132,0.3205966985453192,0.047694263824383465,0.07814148715617691,0.22463239002575255
-0.9230402936075321,-0.02235737735381566,-0.18524684093161545,0.43756581392467786,0.3205491425755382,0.047683055704340324,0.07814756756684269,0.22463403550663186
0.18205292988107036,-0.04152084365708622,-0.13733817517343905,0.32258501610505447,0.3205016786929829,0.047671880404707274,0.0781535466971288,0.22463566113187253
0.7920899405351833,-0.03193911050545094,-0.09901124256689792,0.18844075198216054,0.3204543104281982,0.0476607379452487,0.07815942441858899,0.22463726700095668
0.7505690968780971,-0.13733817517343905,-0.04152084365708622,-0.02235737735381566,0.3204070417466607,0.04764962833528798,0.0781652007070291,0.22463885334038367
0.32258501610505447,-0.12456253097125865,-0.0031939110505450944,-0.21718595143706637,0.320359877010936,0.04763855161491309,0.07817087557236486,0.2246404203330987
-0.1565016414767096,-0.10220515361744302,0.05749039890981169,-0.33855457135777994,0.3203128209322874,0.0476275079066157,0.07817644899578886,0.22464196804698083
0.1501138193756194,-0.025551288404360755,0.1117868867690783,-0.3193911050545094,0.3202658782943677,0.04761649743028337,0.07818192090838831,0.22464349651756488
0.1533077304261645,-0.03193911050545094,0.09262342046580772,-0.2107981293359762,0.3202190536835578,0.047605520464859254,0.07818729122226735,0.2246450058602779
0.12456253097125865,0.009581733151635281,-0.07345995416253714,-0.23954332879088208,0.32017235138078537,0.0475945772933378,0.07819255987042255,0.22464649628456165
0.1628894635777998,-0.006387822101090189,-0.07984777626362735,-0.2107981293359762,0.32012577534185294,0.0475836681656271,0.07819772681480022,0.22464796804202536
0.35133021555996036,0.02235737735381566,0.01596955525272547,-0.2235737735381566,0.3200793292191675,0.04757279328146048,0.07820279202891561,0.2246494213887061
0.3800754150148662,0.07665386521308225,0.02235737735381566,-0.12775644202180375,0.3200330164532013,0.04756195279272477,0.07820775546810212,0.22465085656460607
-0.006387822101090189,0.09262342046580772,0.09901124256689792,-0.038326932606541124,0.3199868403717463,0.04755114683260288,0.07821261704333334,0.22465227374733587
-0.4056267034192269,0.07345995416253714,0.1117868867690783,0.006387822101090189,0.31994080417863713,0.04754037555751305,0.07821737663250673,0.22465367296208646
-0.6004552775024776,0.05110257680872151,0.05429648785926659,0.18844075198216054,0.31989491094112954,0.047529639168921535,0.07822203412117154,0.22465505400172728
-0.8080594957879088,-0.05749039890981169,-0.10859297571853319,0.33855457135777994,0.31984916377684064,0.047518937904861905,0.07822658942315232,0.22465641645315276
-0.9453976709613479,-0.11817470887016848,-0.2235737735381566,0.35452412661050536,0.31980356617711236,0.047508272028810236,0.07823104249126724,0.22465775984480668
-0.440759724975223,-0.060684309960356786,-0.19163466303270565,0.36729977081268583,0.3197581222389639,0.04749764184033817,0.07823539336859892,0.22465908380940092
0.009581733151635281,-0.009581733151635281,-0.1117868867690783,0.2746763503468781,0.3197128365966412,0.047487047682810285,0.07823964224910142,0.2246603881631242
0.32897283820614465,-0.02235737735381566,-0.09581733151635283,0.12775644202180375,0.3196677140570475,0.047476489914846584,0.078243789473942,0.22466167288078023
0.3353606603072349,-0.13733817517343905,-0.07984777626362735,-0.10859297571853319,0.3196227592886052,0.047465968880087236,0.07824783547388192,0.22466293798737702
0.306615460852329,-0.09262342046580772,-0.025551288404360755,-0.2491250619425173,0.31957797679230066,0.04745548492960093,0.0782517807132006,0.22466418344376038
0.36729977081268583,-0.07345995416253714,0.09581733151635283,-0.34174848240832506,0.3195333709839999,0.04744503846923028,0.07825562565180863,0.22466540913409724
0.22676768458870167,-0.02235737735381566,0.10859297571853319,-0.2938398166501486,0.31948894622173873,0.04743462996604371,0.07825937073451576,0.22466661495818083
0.17566510777998018,-0.02235737735381566,0.08623559836471753,-0.24593115089197226,0.3194447067714749,0.04742425991023859,0.07826301641225905,0.22466780091420752
0.13733817517343905,-0.028745199454905845,-0.006387822101090189,-0.21718595143706637,0.31940065672372725,0.04741392877395855,0.07826656315496121,0.22466896709749393
-0.03193911050545094,0.02235737735381566,0.012775644202180378,-0.21718595143706637,0.319356799892769,0.047403636991766626,0.07827001141974184,0.22467011365044695
-0.08942950941526263,0.08623559836471753,0.08304168731417244,-0.17247119672943506,0.31931313972984027,0.04739338496365856,0.07827336160668792,0.2246712407176623
0.2650946171952428,0.060684309960356786,0.08623559836471753,-0.07665386521308225,0.3192696792868832,0.04738317307654594,0.07827661405793537,0.22467234840360548
0.17885901883052527,0.012775644202180378,0.05110257680872151,-0.03193911050545094,0.31922642127102296,0.047373001725082256,0.07827976909195111,0.22467343670321505
0.07026604311199207,-0.02235737735381566,0.006387822101090189,-0.01596955525272547,0.31918336811980585,0.04736287130314244,0.07828282701565957,0.2246745054120507
-0.3002276387512388,-0.01596955525272547,-0.02235737735381566,0.18524684093161545,0.31914052200890247,0.04735278217538339,0.07828578809656682,0.2246755540724917
-1.0284393582755202,-0.047908665758176414,-0.14053208622398414,0.39604497026759167,0.31909788493593694,0.04734273466284854,0.07828865254182399,0.22467658202792126
-0.5653222559464817,0.006387822101090189,-0.11498079781962338,0.4471475470763132,0.31905545904273686,0.04733272904732703,0.07829142053102342,0.22467758860010348
-0.17885901883052527,0.038326932606541124,-0.07665386521308225,0.4056267034192269,0.3190132468968283,0.04732276557595549,0.0782940922734592,0.22467857329144703
-0.006387822101090189,0.019163466303270562,-0.06707213206144698,0.27148243929633303,0.31897125135325277,0.04731284445988631,0.07829666802433614,0.2246795358805783
0.2107981293359762,-0.06707213206144698,-0.07665386521308225,0.07345995416253714,0.31892947516988135,0.047302965877610806,0.078299148060594,0.2246804763629588
0.40243279236868185,-0.11498079781962338,-0.012775644202180378,-0.14053208622398414,0.31888792081198997,0.04729312999582139,0.07830153265527078,0.22468139478845062
0.5525466117443013,-0.1117868867690783,0.04471475470763132,-0.3002276387512388,0.3188465905596818,0.04728333701122709,0.07830382205413561,0.22468229113114296
0.33855457135777994,-0.060684309960356786,0.09262342046580772,-0.35133021555996036,0.31880548672127657,0.047273587188289584,0.07830601645887729,0.22468316530664834
0.19163466303270565,0.0,-0.20441030723488604,-0.18205292988107036,0.31876461171639464,0.04726388085375191,0.07830811605192176,0.2246840172758349
0.1565016414767096,-0.03193911050545094,0.060684309960356786,-0.24273723984142714,0.31872396796604463,0.04725421834897276,0.07831012106003712,0.2246848470823709
0.1117868867690783,-0.04152084365708622,-0.05749039890981169,-0.22676768458870167,0.31868355772093254,0.047244599987663345,0.07831203178418798,0.22468565481034286
-0.2938398166501486,0.0,0.01596955525272547,-0.24593115089197226,0.3186433829663376,0.04723502604609933,0.07831384855761239,0.22468644055397574
-0.7888960294846381,0.12775644202180375,0.08623559836471753,-0.1469199083250743,0.3186034454905736,0.04722549677201153,0.07831557168945696,0.22468720441314813
-0.3609119487115956,0.13414426412289396,0.07665386521308225,-0.05110257680872151,0.3185637471226942,0.04721601241771286,0.07831720145222525,0.22468794645657914
-0.39604497026759167,0.1053990646679881,0.060684309960356786,0.006387822101090189,0.3185242899225023,0.04720657329860545,0.07831873810152715,0.22468866662945816
-0.18524684093161545,0.09901124256689792,0.09581733151635283,0.13095035307234884,0.3184850761304459,0.04719717982943452,0.07832018189118897,0.2246893646582749
-0.49505621283448964,0.02235737735381566,-0.04152084365708622,0.28425808349851334,0.318446108015548,0.04718783251087462,0.0783215330754659,0.22469004004486454
-0.983724603567889,-0.08304168731417244,-0.18844075198216054,0.4215962586719524,0.31840738789151324,0.04717853189009348,0.0783227919155385,0.22469069218833104
-0.7377934526759168,-0.08304168731417244,-0.19482857408325072,0.4056267034192269,0.31836891838220255,0.04716927853367735,0.07832395871737735,0.22469132057103436
0.05429648785926659,-0.012775644202180378,-0.1117868867690783,0.33216674925668976,0.3183307026376888,0.047160073025371715,0.07832503389305394,0.22469192489494277
0.47908665758176416,-0.05749039890981169,-0.10220515361744302,0.17885901883052527,0.31829274417828174,0.04715091595891889,0.07832601798123247,0.22469250509353988
0.8431925173439048,-0.20121639618434092,-0.08942950941526263,-0.05110257680872151,0.3182550466432219,0.04714180793409615,0.07832691160868133,0.2246930612210018
0.7984777626362735,-0.19163466303270565,0.04471475470763132,-0.2139920403865213,0.31821761388288233,0.047132749609903886,0.07832771544252495,0.2246935932978023
0.8687438057482655,-0.16608337462834488,0.03193911050545094,-0.34174848240832506,0.31818045025340674,0.047123741791131074,0.07832843015190773,0.22469410124616404
0.3130032829534192,-0.01596955525272547,0.09901124256689792,-0.3193911050545094,0.3181435607370703,0.04711478545578721,0.0783290563776874,0.22469458496913608
0.2076042182854311,0.03193911050545094,0.08942950941526263,-0.22996159563924676,0.3181069507649776,0.047105881691033864,0.07832959473194032,0.22469504445831862
0.24273723984142714,-0.0031939110505450944,-0.21718595143706637,-0.23634941774033696,0.3180706258722499,0.04709703159681771,0.07833004583666738,0.2246954798106429
0.1533077304261645,0.0031939110505450944,-0.012775644202180378,-0.2076042182854311,0.3180345914313249,0.047088236223162515,0.0783304103723599,0.22469589117821115
0.1469199083250743,0.02235737735381566,0.08623559836471753,-0.22676768458870167,0.31799885254452287,0.04707949654767739,0.07833068908194854,0.22469627872511777
0.17885901883052527,0.07665386521308225,0.07665386521308225,-0.12456253097125865,0.3179634139998013,0.047070813479669134,0.07833088272715848,0.22469664260194355
0.1117868867690783,0.05749039890981169,0.060684309960356786,-0.05110257680872151,0.3179282802460917,0.04706218788857376,0.07833099205884123,0.22469698289999235
-0.2555128840436075,0.047908665758176414,0.03193911050545094,0.0031939110505450944,0.31789345539345687,0.04705362063501532,0.07833101781124253,0.2246972995646232
-0.29064590559960357,0.04152084365708622,0.02235737735381566,0.19802248513379583,0.3178589432497009,0.04704511257821626,0.07833096068433103,0.22469759231772748
-0.7441812747770069,-0.025551288404360755,-0.1117868867690783,0.34174848240832506,0.3178247474425124,0.04703666456415492,0.07833082132549317,0.22469786068456307
-0.9358159378097126,-0.08942950941526263,-0.2203798624876115,0.3641058597621407,0.3177908716849792,0.047028277416385704,0.07833060035720227,0.22469810414206612
-0.4631171023290387,-0.09262342046580772,-0.18524684093161545,0.36729977081268583,0.3177573200923092,0.047019951948611374,0.07833029846132664,0.22469832228265174
0.4503414581268582,-0.09262342046580772,-0.10859297571853319,0.2650946171952428,0.31772409728041845,0.04701168899618306,0.07832991645372499,0.22469851489109072
0.881519449950446,-0.11498079781962338,-0.11817470887016848,0.1117868867690783,0.3176912082375831,0.04700348944276375,0.0783294552835505,0.22469868191148992
0.6739152316650149,-0.1565016414767096,-0.060684309960356786,-0.10859297571853319,0.31765865829255285,0.04699535423945315,0.07832891598163277,0.22469882332931368
0.8304168731417244,-0.12136861992071357,0.028745199454905845,-0.25231897299306244,0.3176264532423591,0.046987284429454414,0.07832829960629471,0.2246989390553207
0.4247901697224975,-0.09262342046580772,0.09581733151635283,-0.3449423934588701,0.3175945994100888,0.046979281162760164,0.0783276071999219,0.2246990289203286
-0.11498079781962338,0.009581733151635281,0.09901124256689792,-0.2746763503468781,0.31756310350075884,0.04697134567293801,0.07832683977555562,0.22469909277283065
-0.10220515361744302,0.006387822101090189,0.07665386521308225,-0.24273723984142714,0.31753197227834806,0.04696347921694436,0.07832599833734237,0.22469913055743174
-0.08304168731417244,0.0031939110505450944,0.012775644202180378,-0.22676768458870167,0.31750121223573174,0.0469556830103599,0.07832508389046804,0.22469914230836996
-0.19802248513379583,0.047908665758176414,0.047908665758176414,-0.2107981293359762,0.317470829435421,0.046947958194233405,0.07832409741451753,0.22469912810363424
-0.16927728567888997,0.10220515361744302,0.09901124256689792,-0.18205292988107036,0.31744082951124714,0.04694030584752677,0.07832303983696264,0.2246990880269202
0.24593115089197226,0.08304168731417244,0.13095035307234884,-0.07345995416253714,0.3174112177287017,0.04693272703145683,0.07832191205028874,0.22469902212742782
0.33216674925668976,0.025551288404360755,0.11498079781962338,-0.01596955525272547,0.31738199905390424,0.04692522282509362,0.07832071496032167,0.22469893034853505
0.27148243929633303,-0.012775644202180378,0.05110257680872151,-0.009581733151635281,0.31735317822950704,0.04691779431563216,0.07831944951525072,0.2246988124311097
-0.25231897299306244,-0.02235737735381566,-0.02235737735381566,0.18524684093161545,0.31732475982902325,0.04691044255858033,0.07831811668541779,0.22469866785329193
-1.2999217975718533,-0.0031939110505450944,-0.1565016414767096,0.39604497026759167,0.3172967483581188,0.04690316854847292,0.07831671742460902,0.22469849588670052
-0.8559681615460852,0.009581733151635281,-0.18524684093161545,0.43437190287413274,0.31726914859062966,0.04689597320796743,0.07831525268196796,0.2246982957788851
-0.3704936818632309,0.0,-0.12456253097125865,0.38646323711595637,0.3172419659388745,0.046888857381754884,0.07831372346771545,0.22469806695348576
0.18844075198216054,-0.0031939110505450944,-0.08623559836471753,0.23954332879088208,0.31721520638275447,0.04688182183150532,0.07831213089063613,0.22469780909540546
0.4918623017839445,-0.05429648785926659,-0.06387822101090188,0.06707213206144698,0.3171888760666651,0.04687486723831193,0.07831047612828802,0.2246975220805812
0.5717100780475718,-0.1469199083250743,-0.04471475470763132,-0.17566510777998018,0.31716298108469737,0.04686799423133451,0.07830876037238435,0.22469720581676905
0.8399986062933597,-0.16608337462834488,0.019163466303270562,-0.32897283820614465,0.3171375275958123,0.046861203456097816,0.07830698478493658,0.22469686013845017
0.16927728567888997,-0.05110257680872151,0.08942950941526263,-0.3449423934588701,0.31711252200655665,0.0468544956441436,0.0783051504720867,0.22469648485095753
-0.028745199454905845,0.01596955525272547,0.08942950941526263,-0.18205292988107036,0.3170879709088413,0.04684787161550092,0.0783032584876871,0.22469607983560383
-0.04471475470763132,-0.009581733151635281,0.05429648785926659,-0.22996159563924676,0.31706388074561326,0.046841332212599784,0.07830130985966341,0.2246956450691539
-0.019163466303270562,-0.009581733151635281,-0.17566510777998018,-0.19802248513379583,0.31704025750111914,0.04683487823433166,0.07829930561317353,0.22469518056428087
0.5333831454410307,-0.10220515361744302,0.09581733151635283,-0.2491250619425173,0.31701710663726673,0.046828510417166805,0.07829724679616662,0.22469468632795886
0.606843099603568,-0.006387822101090189,0.18844075198216054,-0.17247119672943506,0.31699443328473886,0.04682222945670179,0.07829513451377952,0.2246941623581804
0.16927728567888997,0.1053990646679881,0.1533077304261645,-0.05110257680872151,0.316972242523299,0.046816036033798136,0.07829296995691894,0.2246936086246824
-0.6451700322101089,0.12775644202180375,0.08942950941526263,0.009581733151635281,0.316950539497384,0.04680993083535957,0.0782907544155545,0.22469302499074353
-0.9453976709613479,0.1565016414767096,0.09901124256689792,0.13733817517343905,0.3169293294514235,0.04680391459482695,0.07828848926092359,0.22469241111621158
-0.5780979001486619,0.05749039890981169,-0.05429648785926659,0.3002276387512388,0.3169086179216314,0.0467979881347841,0.07828617590178544,0.22469176644761307
-0.8240290510406343,-0.05110257680872151,-0.2107981293359762,0.43437190287413274,0.3168884109277171,0.04679215236133661,0.07828381575897053,0.22469109034391818
-0.7250178084737363,-0.060684309960356786,-0.2203798624876115,0.4184023476214073,0.31686871499847724,0.04678640821691235,0.07828141029804594,0.22469038226815635
-0.12775644202180375,-0.019163466303270562,-0.12775644202180375,0.33216674925668976,0.31684953709599367,0.04678075663999658,0.07827896109754522,0.22468964192436564
0.39604497026759167,-0.038326932606541124,-0.1053990646679881,0.19802248513379583,0.31683088440461155,0.046775198544345774,0.07827646987071046,0.22468886926576384
0.2682885282457879,-0.13095035307234884,-0.14053208622398414,-0.01596955525272547,0.31681276405666664,0.04676973481458846,0.0782739384229861,0.2246880643780883
0.29703372770069375,-0.1117868867690783,-0.11498079781962338,-0.20441030723488604,0.31679518300061427,0.04676436633646142,0.07827136861358566,0.22468722731266846
0.2746763503468781,-0.06707213206144698,0.038326932606541124,-0.3098093719028741,0.31677814798364634,0.04675909404198146,0.07826876233989365,0.2246863580043029
0.17885901883052527,-0.03193911050545094,0.09262342046580772,-0.33216674925668976,0.31676166552905927,0.046753918914376864,0.07826612150884647,0.22468545634200038
0.13095035307234884,-0.05749039890981169,0.08942950941526263,-0.23634941774033696,0.31674574188284843,0.046748841951581674,0.0782634480063083,0.22468452228547844
0.1053990646679881,0.009581733151635281,-0.12456253097125865,-0.23634941774033696,0.31673038293466765,0.04674386413155601,0.07826074369873068,0.2246835558989088
0.13414426412289396,-0.009581733151635281,-0.05429648785926659,-0.18844075198216054,0.31671559414844985,0.046738986390824744,0.07825801045175823,0.2246825573078808
0.028745199454905845,0.02235737735381566,0.06387822101090188,-0.2107981293359762,0.3167013805266104,0.046734209604913216,0.07825525012816438,0.2246815266471831
0.17885901883052527,0.07984777626362735,0.10220515361744302,-0.09901124256689792,0.31668774659247967,0.04672953458361212,0.07825246456761382,0.22468046402146877
0.19802248513379583,0.07665386521308225,0.05110257680872151,-0.01596955525272547,0.316674696404557,0.04672496209656805,0.07824965557848246,0.22467936944897615
0.18205292988107036,0.05749039890981169,0.009581733151635281,0.02235737735381566,0.31666223361811124,0.04672049290895357,0.07824682493351634,0.22467824277069146
-0.1053990646679881,0.07345995416253714,0.009581733151635281,0.2076042182854311,0.3166503615362632,0.04671612779711611,0.07824397434026192,0.2246770835844661
-0.6260065659068385,-0.019163466303270562,-0.1053990646679881,0.3449423934588701,0.31663908314824507,0.04671186754236952,0.07824110541105964,0.2246758912947218
-1.0923175792864221,-0.09262342046580772,-0.2203798624876115,0.3609119487115956,0.31662840133123926,0.04670771291840521,0.07823821969155012,0.22467466527215144
-0.5557405227948463,-0.07665386521308225,-0.19163466303270565,0.3704936818632309,0.3166183192504426,0.046703664690943204,0.07823531875475964,0.2246734050132923
-0.08304168731417244,-0.03193911050545094,-0.14053208622398414,0.2587067950941526,0.31660884056465116,0.04669972363034947,0.07823240428809428,0.22467211021170055
0.14053208622398414,-0.04152084365708622,-0.1117868867690783,0.12456253097125865,0.31659996915970035,0.04669589050892629,0.07822947810576851,0.22467078072364177
0.07345995416253714,-0.1053990646679881,-0.05429648785926659,-0.1053990646679881,0.31659170872328407,0.04669216608559415,0.07822654210022376,0.2246694164522372
0.23315550668979185,-0.11498079781962338,0.01596955525272547,-0.2746763503468781,0.3165840625356271,0.046688551118287624,0.07822359817550326,0.22466801723565047
0.3161971940039643,-0.1117868867690783,0.09262342046580772,-0.36729977081268583,0.31657703348270666,0.04668504640361202,0.07822064819004086,0.2246665828488087
0.2076042182854311,-0.028745199454905845,0.1117868867690783,-0.3193911050545094,0.3165706241557103,0.04668165279795105,0.07821769394142698,0.22466511311341453
0.1628894635777998,-0.025551288404360755,0.08942950941526263,-0.2619007061446977,0.31656483691218984,0.04667837119193563,0.0782147371964817,0.22466360799042312
0.1117868867690783,-0.02235737735381566,0.047908665758176414,-0.2235737735381566,0.31655967384151523,0.0466752024597112,0.07821177971590391,0.22466206757626192
0.13414426412289396,-0.01596955525272547,0.07984777626362735,-0.19482857408325072,0.3165551366911181,0.046672147422918704,0.07820882324303258,0.2246604920401558
0.2874519945490585,0.08623559836471753,0.18524684093161545,-0.13414426412289396,0.3165512268374895,0.04666920684458318,0.07820586949556915,0.22465888155690864
0.006387822101090189,0.14372599727452925,0.1596955525272547,-0.035133021555996034,0.31654794531262376,0.046666381457360954,0.07820292020434103,0.22465723623676698
0.047908665758176414,0.08623559836471753,0.047908665758176414,-0.025551288404360755,0.3165452927970588,0.046663672018485015,0.07819997716161363,0.22465555603730317
0.2810641724479683,0.028745199454905845,0.035133021555996034,0.0,0.3165432695621595,0.04666107934128557,0.07819704220442261,0.22465384067613636
-0.27148243929633303,-0.006387822101090189,-0.028745199454905845,0.19482857408325072,0.31654187549578483,0.04665860426539951,0.07819411714355222,0.22465208959417093
-1.1849409997522298,-0.06387822101090188,-0.18524684093161545,0.3800754150148662,0.31654111031674415,0.04665624760308331,0.07819120372329602,0.22465030202531264
-0.6515578543111992,-0.05749039890981169,-0.1628894635777998,0.4152084365708622,0.3165409739672262,0.046654010120346576,0.07818830366118472,0.22464847717709072
-0.1469199083250743,-0.05749039890981169,-0.1596955525272547,0.35133021555996036,0.3165414669022224,0.046651892554193095,0.07818541872625873,0.22464661441883405
0.2682885282457879,-0.05749039890981169,-0.10859297571853319,0.22676768458870167,0.31654258994030876,0.046649895629275864,0.0781825507787202,0.22464471335320613
0.29703372770069375,-0.04471475470763132,-0.06387822101090188,0.06707213206144698,0.3165443438964839,0.04664802005977875,0.07817970174875362,0.22464277374336444
0.5972613664519327,-0.14372599727452925,-0.06707213206144698,-0.16608337462834488,0.3165467294456293,0.04664626655342829,0.07817687358513169,0.22464079536475803
0.7282117195242814,-0.10859297571853319,-0.006387822101090189,-0.2938398166501486,0.31654974726778023,0.04664463583889213,0.07817406820403715,0.22463877790870954
0.2810641724479683,-0.04471475470763132,0.060684309960356786,-0.35133021555996036,0.3165533982518186,0.046643128697973796,0.07817128745075563,0.2246367210224266
0.009581733151635281,0.05110257680872151,0.08623559836471753,-0.19163466303270565,0.31655768348722124,0.04664174595716029,0.07816853308576088,0.2246346244134773
0.02235737735381566,-0.02235737735381566,0.060684309960356786,-0.24593115089197226,0.31656260397696157,0.046640488445357384,0.07816580680158586,0.22463248788467
0.0,-0.02235737735381566,-0.10220515361744302,-0.2139920403865213,0.3165681603236217,0.04663935695817502,0.07816311024775861,0.22463031129244254
-0.012775644202180378,0.0,-0.04152084365708622,-0.2139920403865213,0.3165743525872991,0.04663835223575824,0.07816044504175935,0.22462809450900806
-0.04152084365708622,0.12456253097125865,-0.028745199454905845,-0.12775644202180375,0.3165811802674781,0.046637474956414675,0.07815781276128751,0.22462583740085243
-0.3449423934588701,0.18524684093161545,0.047908665758176414,-0.019163466303270562,0.3165886423522314,0.04663672577571418,0.07815521491999604,0.22462353977795962
-0.4631171023290387,0.17247119672943506,0.047908665758176414,0.025551288404360755,0.3165967374743816,0.04663610541247494,0.07815265294887415,0.22462120130036237
-0.5014440349355798,0.14053208622398414,0.08942950941526263,0.13733817517343905,0.31660546415465424,0.046635614720688584,0.07815012820170367,0.22461882139765216
-0.8208351399900891,0.07026604311199207,-0.047908665758176414,0.29064590559960357,0.31661482103749117,0.0466352546960713,0.07814764197432177,0.2246163992842556
-1.0284393582755202,-0.07026604311199207,-0.20121639618434092,0.4184023476214073,0.3166248071294875,0.0466350264287963,0.07814519553005705,0.22461393409144176
-0.8048655847373637,-0.08942950941526263,-0.17885901883052527,0.4056267034192269,0.3166354220632118,0.0466349310492681,0.07814279014913243,0.22461142504964915
0.03193911050545094,-0.06387822101090188,-0.07665386521308225,0.3161971940039643,0.3166466661730434,0.04663496970192823,0.07814042718651755,0.22460887161753346
0.47269883548067393,-0.07345995416253714,-0.006387822101090189,0.17885901883052527,0.31665854020864476,0.04663514354015937,0.07813810806649578,0.22460627348730433
0.48866839073339935,-0.16608337462834488,0.009581733151635281,-0.04471475470763132,0.31667104498515714,0.04663545373114478,0.07813583420139969,0.22460363047052542
0.475892746531219,-0.16927728567888997,0.09581733151635283,-0.22676768458870167,0.31668418132173703,0.04663590148903473,0.07813360691876783,0.22460094234656935
0.35771803766105054,-0.10220515361744302,0.1117868867690783,-0.32258501610505447,0.31669795012951796,0.046636488123611666,0.07813142746221348,0.2245982088033404
0.3641058597621407,-0.05110257680872151,0.07665386521308225,-0.33855457135777994,0.3167123524058612,0.0466372150461826,0.07812929703981035,0.22459542951783468
0.303421549801784,-0.012775644202180378,0.03193911050545094,-0.2619007061446977,0.3167273891570975,0.04663808371549706,0.07812721684947686,0.22459260426809918
0.24593115089197226,-0.012775644202180378,-0.2203798624876115,-0.23634941774033696,0.31674306132560975,0.04663909556664082,0.07812518807401536,0.2245897329634329
0.17247119672943506,-0.038326932606541124,-0.14053208622398414,-0.18524684093161545,0.31675936971687557,0.046640251965158634,0.07812321190832552,0.22458681559847757
0.07345995416253714,0.019163466303270562,0.060684309960356786,-0.17247119672943506,0.31677631490704056,0.046641554196184175,0.07812128960900663,0.22458385218798738
0.47908665758176416,0.04152084365708622,0.12456253097125865,-0.09901124256689792,0.3167938971764031,0.046643003471345514,0.07811942249068507,0.22458084270759557
0.08304168731417244,0.025551288404360755,0.07345995416253714,-0.038326932606541124,0.31681211654091374,0.046644600935566966,0.07811761188567236,0.22457778703061393
0.2107981293359762,-0.009581733151635281,0.006387822101090189,-0.02235737735381566,0.3168309728051045,0.04664634766821371,0.07811585911569414,0.22457468485229723
-0.07984777626362735,0.07984777626362735,-0.012775644202180378,0.19163466303270565,0.3168504655194514,0.046648244682065576,0.07811416545389706,0.22457153563820004
-1.2999217975718533,0.06387822101090188,-0.1469199083250743,0.35771803766105054,0.3168705940115963,0.04665029293651004,0.07811253208840556,0.2245683386696816
-1.3925452180376612,-0.01596955525272547,-0.2235737735381566,0.4056267034192269,0.31689135780527905,0.04665249336040115,0.07811096015560377,0.22456509320194218
-0.9262342046580774,-0.028745199454905845,-0.10859297571853319,0.39285105921704655,0.3169127572765044,0.04665484685140608,0.07810945083305397,0.224561798642016
-0.05110257680872151,-0.009581733151635281,-0.025551288404360755,0.28425808349851334,0.31693479388695905,0.04665735425222253,0.07810800538306609,0.22455845463929563
0.3704936818632309,-0.025551288404360755,-0.05429648785926659,0.14372599727452925,0.31695746974170974,0.04666001633274433,0.07810662509772681,0.2245550610532802
0.5078318570366699,-0.1596955525272547,-0.05110257680872151,-0.10859297571853319,0.3169807870361402,0.04666283379937252,0.0781053112238358,0.2245516178292477
0.6387822101090188,-0.1533077304261645,-0.0031939110505450944,-0.28425808349851334,0.3170047479213608,0.04666580735016061,0.07810406493103579,0.22454812487563164
0.5812918111992071,-0.1565016414767096,0.009581733151635281,-0.3832693260654113,0.31702935466773824,0.04666893775467399,0.07810288729620865,0.22454458205695615
0.2650946171952428,-0.04152084365708622,0.07984777626362735,-0.32258501610505447,0.31705460976927446,0.04667222589242368,0.07810177928782833,0.2245409893016828
0.2203798624876115,-0.05110257680872151,0.06387822101090188,-0.27148243929633303,0.3170805158432103,0.046675672719686125,0.07810074177804575,0.224537346694715
0.1469199083250743,-0.03193911050545094,-0.006387822101090189,-0.24273723984142714,0.31710707540997407,0.04667927920383456,0.07809977557094362,0.22453365447240836
0.11817470887016848,-0.035133021555996034,-0.060684309960356786,-0.21718595143706637,0.3171342907091246,0.046683046277252005,0.07809888140503629,0.22452991296302346
0.012775644202180378,0.02235737735381566,0.03193911050545094,-0.17885901883052527,0.31716216359145905,0.046686974819153335,0.0780980599396912,0.22452612252937054
-0.16927728567888997,0.05429648785926659,0.028745199454905845,-0.07665386521308225,0.31719069544964845,0.046691065649744144,0.07809731175258146,0.22452228351269185
0.2203798624876115,0.009581733151635281,-0.02235737735381566,-0.04152084365708622,0.31721988721115935,0.04669531953096187,0.0780966373378076,0.2245183961552433
-0.0031939110505450944,0.025551288404360755,0.038326932606541124,-0.006387822101090189,0.31724973939121576,0.046699737165360494,0.0780960370985062,0.22451446050841237
-0.39285105921704655,0.028745199454905845,-0.006387822101090189,0.20441030723488604,0.31728025213260874,0.04670431918854039,0.07809551134360222,0.2245104763778444
-0.7377934526759168,-0.028745199454905845,-0.16608337462834488,0.38965714816650143,0.31731142530415274,0.04670906616633851,0.0780950602988209,0.2245064433781141
-0.4215962586719524,0.0031939110505450944,-0.12775644202180375,0.43756581392467786,0.31734325875433145,0.046713978597010146,0.07809468415301753,0.22450236110996313
-0.2076042182854311,0.025551288404360755,-0.08304168731417244,0.4088206144697721,0.31737575249786515,0.046719056907212064,0.07809438312134608,0.2244982293568712
-0.006387822101090189,-0.0031939110505450944,-0.0031939110505450944,0.2587067950941526,0.317408906598046,0.04672430144497438,0.07809415745617194,0.2244940481750284
0.5046379459861249,-0.09262342046580772,-0.035133021555996034,0.060684309960356786,0.31744272092292264,0.04672971248390563,0.07809400739330918,0.22448981783153008
0.5525466117443013,-0.1596955525272547,-0.01596955525272547,-0.16608337462834488,0.3174771951153128,0.046735290258505056,0.07809393309543233,0.22448553864110168
0.303421549801784,-0.08304168731417244,0.06707213206144698,-0.2938398166501486,0.3175123287808793,0.04674103502852796,0.07809393463406554,0.22448121084281467
0.2938398166501486,-0.04152084365708622,0.08623559836471753,-0.35771803766105054,0.31754812159199225,0.04674694711607006,0.07809401200612895,0.2244768346269362
0.17247119672943506,-0.03193911050545094,-0.07984777626362735,-0.23315550668979185,0.31758457319301825,0.04675302687754677,0.0780941651671972,0.22447241024404674
0.13733817517343905,-0.02235737735381566,0.06707213206144698,-0.2491250619425173,0.3176216830528456,0.046759274651129015,0.07809439405743306,0.22446793805405152
0.07984777626362735,-0.006387822101090189,-0.1117868867690783,-0.2235737735381566,0.3176594503500738,0.046765690722625826,0.07809469860982053,0.22446341849291515
0.05110257680872151,-0.025551288404360755,0.05749039890981169,-0.23954332879088208,0.3176978738841804,0.04677227530859224,0.07809507875425313,0.22445885203036162
-0.18524684093161545,0.038326932606541124,0.09581733151635283,-0.1501138193756194,0.3177369520245968,0.04677902855206411,0.07809553442063027,0.2244542391461554
0.1596955525272547,0.10859297571853319,0.09262342046580772,-0.035133021555996034,0.3177766827245459,0.04678595053935513,0.07809606553789168,0.2244495802851672
-0.20441030723488604,0.12136861992071357,0.01596955525272547,0.0031939110505450944,0.31781706358315676,0.0467930413425079,0.0780966720309075,0.2244448757622612
-0.23315550668979185,0.1053990646679881,0.07345995416253714,0.14372599727452925,0.31785809190538117,0.04680030107031258,0.07809735380415077,0.22444012566597066
-0.6164248327552032,0.06387822101090188,0.0031939110505450944,0.2874519945490585,0.3178997647838092,0.04680772989318623,0.07809811071545529,0.2244353298588143
-0.7729264742319127,-0.05110257680872151,-0.16927728567888997,0.4279840807730426,0.3179420792967489,0.04681532802721492,0.07809894256903044,0.224430488108165
-0.7569569189791873,-0.038326932606541124,-0.19482857408325072,0.4215962586719524,0.3179850328049134,0.04682309569808315,0.07809984915704327,0.22442560027609926
-0.3832693260654113,0.05429648785926659,-0.10220515361744302,0.3704936818632309,0.31802862314603864,0.04683103311237768,0.07810083033539424,0.22442066646108977
0.13414426412289396,0.038326932606541124,-0.08942950941526263,0.23315550668979185,0.3180728485466975,0.04683914044602391,0.07810188605782689,0.22441568702565473
0.4599231912784935,-0.1469199083250743,-0.1596955525272547,-0.035133021555996034,0.3181177073432556,0.04684741785204611,0.07810301634837077,0.22441066250132508
0.39923888131813673,-0.1565016414767096,0.006387822101090189,-0.2235737735381566,0.31816319780949576,0.04685586549937013,0.0781042212717551,0.22440559342755814
0.4471475470763132,-0.1565016414767096,0.07345995416253714,-0.35133021555996036,0.3182093181950382,0.04686448363444352,0.0781055009067672,0.22440048026393744
0.35771803766105054,-0.06387822101090188,0.09262342046580772,-0.35133021555996036,0.31825606680201934,0.0468732726168467,0.07810685531078544,0.2243953234602606
0.2587067950941526,-0.04471475470763132,0.07984777626362735,-0.27787026139742316,0.31830344197565574,0.04688223289382776,0.07810828451266441,0.22439012357732807
0.19482857408325072,-0.006387822101090189,-0.06707213206144698,-0.24593115089197226,0.31835144201966425,0.046891364934816056,0.07810978852919125,0.22438488132119988
0.1117868867690783,0.0,-0.08623559836471753,-0.18524684093161545,0.3184000650766528,0.04690066916854174,0.07811136736862406,0.2243795974923247
-0.3704936818632309,0.04471475470763132,0.09581733151635283,-0.19802248513379583,0.3184493090394869,0.046910145946795934,0.07811302102861925,0.22437427291480952
0.11498079781962338,0.02235737735381566,0.1053990646679881,-0.14372599727452925,0.3184991715480661,0.04691979554026564,0.07811474950591965,0.22436890838103246
0.009581733151635281,-0.009581733151635281,0.1117868867690783,-0.07026604311199207,0.3185496499960616,0.04692961814956706,0.07811655281236522,0.22436350460487542
0.18844075198216054,-0.07984777626362735,0.028745199454905845,-0.03193911050545094,0.3186007414551879,0.04693961391178819,0.07811843098014919,0.22435806215844822
0.4152084365708622,-0.028745199454905845,-0.012775644202180378,0.18205292988107036,0.31865244263654624,0.04694978291187018,0.07812038403612818,0.22435258141171324
-0.23954332879088208,-0.012775644202180378,-0.1565016414767096,0.35771803766105054,0.31870475000539206,0.04696012519566141,0.07812241196482533,0.22434706255489287
-0.7984777626362735,0.019163466303270562,-0.2555128840436075,0.4184023476214073,0.31875765996164623,0.04697064076116358,0.07812451473344814,0.2243415057402635
-0.9390098488602575,0.10220515361744302,-0.1596955525272547,0.43437190287413274,0.31881116907363743,0.04698132954745783,0.07812669239025083,0.22433591126392036
-0.33216674925668976,0.12136861992071357,-0.06387822101090188,0.3449423934588701,0.3188652743490578,0.046992191462082424,0.0781289451282663,0.22433027967852773
0.29703372770069375,0.028745199454905845,-0.06387822101090188,0.16927728567888997,0.3189199732703244,0.04700322642895157,0.07813127324244763,0.22432461178724847
0.5525466117443013,-0.17247119672943506,-0.05110257680872151,-0.11817470887016848,0.318975263554361,0.04701443440987983,0.0781336770436756,0.22431890852695893
0.3768815039643211,-0.11817470887016848,0.025551288404360755,-0.27148243929633303,0.31903114298908514,0.04702581541587621,0.07813615680471336,0.22431317082619304
0.2139920403865213,-0.10859297571853319,0.047908665758176414,-0.3768815039643211,0.31908760942436803,0.04703736953367626,0.07813871273636068,0.2243073995684647
0.17885901883052527,-0.060684309960356786,0.07345995416253714,-0.3353606603072349,0.31914466069802494,0.047049096931157136,0.07814134497974197,0.22430159568178365
0.1469199083250743,-0.028745199454905845,0.060684309960356786,-0.27148243929633303,0.31920229448154847,0.0470609978216126,0.07814405361786073,0.2242957602310269
0.1117868867690783,-0.05429648785926659,0.0,-0.23634941774033696,0.31926050816664026,0.04707307241626026,0.07814683868666472,0.22428989441899164
0.23634941774033696,-0.05749039890981169,-0.01596955525272547,-0.2139920403865213,0.31931929882028093,0.047085320896345303,0.07814970015847392,0.22428399952538763
0.12456253097125865,0.02235737735381566,0.1565016414767096,-0.19482857408325072,0.3193786631911826,0.04709774340915386,0.07815263792506946,0.22427807684588685
-0.07665386521308225,0.07026604311199207,0.13414426412289396,-0.08942950941526263,0.31943859772266014,0.04711034006810699,0.07815565183568682,0.22427212764141952
0.2555128840436075,0.019163466303270562,0.07984777626362735,-0.035133021555996034,0.3194990985363288,0.04712311095008014,0.07815874176556203,0.22426615306947667
0.17885901883052527,0.028745199454905845,0.02235737735381566,0.009581733151635281,0.3195601614401805,0.04713605609153645,0.07816190763182597,0.22426015409155
-0.5269953233399406,0.035133021555996034,-0.04152084365708622,0.20441030723488604,0.319621782012174,0.047149175478865185,0.07816514934587586,0.22425413141111075
-1.52349557111001,-0.01596955525272547,-0.17885901883052527,0.39604497026759167,0.3196839558549902,0.04716246904011829,0.07816846677763205,0.2242480855255716
-0.7888960294846381,-0.05429648785926659,-0.1565016414767096,0.4184023476214073,0.3197466790993615,0.04717593664460342,0.07817185979073762,0.22424201690363726
-0.12456253097125865,-0.06707213206144698,-0.12456253097125865,0.3800754150148662,0.31980994875225355,0.047189578112057165,0.07817532831236337,0.22423592617458207
0.2682885282457879,-0.05110257680872151,-0.06707213206144698,0.24273723984142714,0.3198737624326004,0.047203393232166886,0.0781788723561981,0.2242298142033362
0.35771803766105054,-0.09262342046580772,-0.05429648785926659,0.07984777626362735,0.3199381178526747,0.04721738178316136,0.07818249198364627,0.22422368202268042
0.3481363045094153,-0.12456253097125865,-0.02235737735381566,-0.14053208622398414,0.32000301260566794,0.04723154355040864,0.07818618724713637,0.22421753068104644
0.43756581392467786,-0.05110257680872151,0.028745199454905845,-0.27148243929633303,0.3200684442156426,0.04724587835057307,0.07818995814577083,0.22421136112704507
0.306615460852329,-0.03193911050545094,0.060684309960356786,-0.35771803766105054,0.3201344102033437,0.04726038603377406,0.0781938046026884,0.22420517422888384
0.23315550668979185,0.012775644202180378,0.06387822101090188,-0.18524684093161545,0.32020090808521284,0.04727506644744174,0.07819772646903424,0.2241989708758688
0.18524684093161545,-0.02235737735381566,0.05110257680872151,-0.2491250619425173,0.32026793529805325,0.04728991939335546,0.07820172354299515,0.22419275202394018
0.14372599727452925,-0.025551288404360755,-0.1053990646679881,-0.21718595143706637,0.3203354890931494,0.04730494460667972,0.0782057955857548,0.2241865186620788
0.10220515361744302,-0.04152084365708622,0.025551288404360755,-0.2587067950941526,0.3204035664503426,0.04732014175602487,0.07820994233225678,0.22418027178203173
-0.5206075012388504,0.07026604311199207,0.047908665758176414,-0.17566510777998018,0.3204721640571097,0.047335510457092944,0.07821416348976147,0.22417401237568474
-0.47269883548067393,0.10220515361744302,0.060684309960356786,-0.06387822101090188,0.3205412784256481,0.04735105029906865,0.07821845872161853,0.2241677414099508
0.025551288404360755,0.07984777626362735,0.028745199454905845,-0.019163466303270562,0.32061090605652537,0.047366760878298414,0.07822282763717257,0.22416145974436646
-0.1596955525272547,0.09901124256689792,0.05429648785926659,0.1117868867690783,0.32068104340896647,0.04738264182247131,0.07822726979109773,0.22415516803152927
-0.5461587896432111,0.07026604311199207,-0.03193911050545094,0.303421549801784,0.32075168675344745,0.04739869279681316,0.07823178468059065,0.22414886669756218
-1.223267932358771,-0.025551288404360755,-0.14372599727452925,0.45353536917740334,0.32082283228993175,0.04741491349351162,0.07823637175218288,0.22414255605993405
-0.8399986062933597,-0.04471475470763132,-0.12456253097125865,0.43756581392467786,0.3208944766064034,0.04743130360433809,0.07824103043776409,0.2241362365282341
-0.07026604311199207,-0.01596955525272547,-0.047908665758176414,0.35133021555996036,0.3209666170049097,0.04744786279001254,0.07824576019866096,0.2241299087581553
0.29064590559960357,-0.019163466303270562,-0.025551288404360755,0.2107981293359762,0.32103925129052224,0.047464590660871546,0.07825056052332535,0.22412357366778013
0.5525466117443013,-0.14372599727452925,-0.09262342046580772,-0.006387822101090189,0.32111237734457976,0.04748148677729804,0.07825543088370736,0.22411723231748357
0.6898847869177402,-0.14372599727452925,-0.06707213206144698,-0.2107981293359762,0.32118599303103573,0.04749855069119154,0.07826037071455887,0.22411088573190807
0.6898847869177402,-0.12775644202180375,-0.03193911050545094,-0.33216674925668976,0.32126009641229364,0.04751578201515312,0.07826537942362836,0.22410453481000953
0.3832693260654113,-0.05110257680872151,0.09581733151635283,-0.33855457135777994,0.3213346859183003,0.047533180456283776,0.07827045639367061,0.22409818040043789
0.2746763503468781,-0.09262342046580772,0.08304168731417244,-0.2587067950941526,0.3214097602897361,0.04755074579171585,0.0782756009825757,0.2240918234266113
0.24593115089197226,-0.0031939110505450944,-0.23634941774033696,-0.22996159563924676,0.32148531836348143,0.04756847782416745,0.07828081255466607,0.2240854649221075
0.18524684093161545,0.01596955525272547,-0.09262342046580772,-0.2076042182854311,0.3215613588723632,0.04758637634099417,0.07828609053987211,0.22407910598338215
0.012775644202180378,0.02235737735381566,0.006387822101090189,-0.20441030723488604,0.32163788031822377,0.047604441076686946,0.07829143445891805,0.22407274771275634
0.035133021555996034,0.06387822101090188,0.05429648785926659,-0.10859297571853319,0.3217148808541848,0.04762267169697062,0.0782968438678559,0.22406639117590876
0.40243279236868185,0.019163466303270562,-0.0031939110505450944,-0.05429648785926659,0.32179235820806523,0.04764106781155974,0.07830231828035493,0.22406003734679525
0.09581733151635283,0.05110257680872151,-0.006387822101090189,-0.02235737735381566,0.3218703097419508,0.047659628988565496,0.07830785712952591,0.22405368702601333
-1.1402262450445986,0.19802248513379583,0.18844075198216054,0.23954332879088208,0.32194873264538304,0.04767835477237657,0.07831345976864161,0.22404734078335384
-1.0444089135282455,0.06387822101090188,-0.025551288404360755,0.3800754150148662,0.32202762429884635,0.04769724473303535,0.07831912551382278,0.22404099901024596
-1.3925452180376612,0.04471475470763132,-0.18844075198216054,0.440759724975223,0.32210698278961064,0.047716298505240756,0.07832485369930318,0.2240346620910993
-0.7633447410802774,0.012775644202180378,-0.19482857408325072,0.39604497026759167,0.32218680729225535,0.047735515758820526,0.07833064371698092,0.22402833058481628
0.09262342046580772,0.02235737735381566,-0.09901124256689792,0.3161971940039643,0.3222670980083756,0.04775489613789623,0.07833649505778682,0.2240220053073581
0.6898847869177402,-0.04152084365708622,-0.07026604311199207,0.16608337462834488,0.3223478557084521,0.047774439227888495,0.07834240732119999,0.22401568729320356
0.6451700322101089,-0.1501138193756194,0.08304168731417244,-0.4088206144697721,0.32242908135022513,0.04779414456565095,0.07834838016627306,0.22400937769939328
0.5078318570366699,-0.13414426412289396,0.08623559836471753,-0.39923888131813673,0.32251077607077183,0.04781401169233781,0.07835441326283019,0.22400307777406928
0.40243279236868185,-0.12775644202180375,0.06387822101090188,-0.33216674925668976,0.3225929412598422,0.04783404021775299,0.07836050627740167,0.22399678891962932
0.3353606603072349,-0.09901124256689792,0.05110257680872151,-0.27787026139742316,0.32267557846872896,0.04785422984846457,0.07836665886741129,0.2239905127326141
0.3130032829534192,0.06707213206144698,0.12136861992071357,-0.16608337462834488,0.3227586892604255,0.047874580372556194,0.07837287067268248,0.22398425094941923
0.4439536360257681,0.02235737735381566,0.12456253097125865,-0.12775644202180375,0.3228422751199249,0.04789509162085552,0.0783791413274513,0.22397800533856208
0.4215962586719524,-0.06387822101090188,0.06387822101090188,-0.12775644202180375,0.32292633745424115,0.04791576342261663,0.07838547048946494,0.22397177759284606
0.48228056863230917,-0.08942950941526263,0.04471475470763132,-0.1053990646679881,0.32301087765106806,0.04793659558290741,0.07839185784206579,0.2239655692575419
0.3161971940039643,-0.05110257680872151,0.02235737735381566,-0.06387822101090188,0.32309589712136383,0.047957587892768806,0.07839830305704908,0.22395938169431787
0.1117868867690783,0.025551288404360755,0.0031939110505450944,0.006387822101090189,0.3231813972536017,0.047978740138593295,0.0784048057501041,0.22395321604578086
0.19482857408325072,0.006387822101090189,-0.03193911050545094,0.012775644202180378,0.32326737926755367,0.04800005208203626,0.07841136545087456,0.22394707318457738
-0.49505621283448964,0.04471475470763132,-0.07984777626362735,0.20441030723488604,0.3233538441007174,0.048021523429457647,0.07841798159851285,0.22394095368711933
-1.1114810455896926,-0.012775644202180378,-0.18844075198216054,0.38646323711595637,0.3234407925410206,0.04804315381976597,0.07842465357928542,0.22393485790744688
-0.7154360753221011,-0.038326932606541124,-0.1596955525272547,0.41201452552031714,0.32352822561504496,0.04806494282789802,0.07843138080368817,0.22392878616162223
-0.23954332879088208,-0.025551288404360755,-0.10220515361744302,0.3832693260654113,0.323616144865904,0.048086889968867674,0.07843816277366293,0.22392273891560588
0.2746763503468781,-0.05749039890981169,-0.07345995416253714,0.24593115089197226,0.3237045522013071,0.04810899470299117,0.07844499908606635,0.2239167168620511
0.43437190287413274,-0.10859297571853319,-0.08623559836471753,0.05749039890981169,0.32379344954655825,0.04813125645337767,0.07845188938731465,0.22391072085603228
0.6930786979682854,-0.16608337462834488,-0.06387822101090188,-0.19163466303270565,0.32388283872846224,0.0481536746478263,0.07845883333369784,0.22390475176416175
-0.11498079781962338,-0.09262342046580772,0.01596955525272547,-0.303421549801784,0.3239727215805303,0.04817624877454334,0.0784658305686936,0.2238988103618308
0.06387822101090188,-0.03193911050545094,0.06387822101090188,-0.36729977081268583,0.3240630999289018,0.04819897840300078,0.07847288069849233,0.2238928973756239
0.10859297571853319,-0.04471475470763132,0.06387822101090188,-0.25231897299306244,0.32415397535662815,0.048221863144889215,0.07847998327594886,0.22388701359602073
0.1053990646679881,-0.028745199454905845,0.05429648785926659,-0.2555128840436075,0.3242453489958947,0.048244902598729204,0.07848713780763769,0.2238811599253043
0.08304168731417244,-0.01596955525272547,-0.06387822101090188,-0.21718595143706637,0.32433722148167615,0.048268096319455396,0.07849434376573673,0.22387533734197493
0.35771803766105054,-0.019163466303270562,-0.02235737735381566,-0.23315550668979185,0.32442959298767593,0.04829144380423921,0.07850160058737947,0.22386954684968674
0.4184023476214073,0.07026604311199207,0.04152084365708622,-0.1596955525272547,0.32452246333549045,0.04831494448719034,0.07850890766291378,0.22386378944367485
0.2491250619425173,0.09901124256689792,0.08942950941526263,-0.04471475470763132,0.3246158321572774,0.04833859775822199,0.07851626432744435,0.22385806606600386
-0.1501138193756194,0.07984777626362735,0.07984777626362735,-0.0031939110505450944,0.3247096989626099,0.04836240300259817,0.07852366987535514,0.22385237751773374
-0.4311779918235877,0.10859297571853319,0.09262342046580772,0.1117868867690783,0.324804063080827,0.048386359633049096,0.07853112358972143,0.22384672436204248
-0.8591620725966302,0.07345995416253714,-0.060684309960356786,0.29064590559960357,0.32489892369661055,0.04841046710191973,0.07853862475921039,0.2238411069116565
-1.0284393582755202,-0.05429648785926659,-0.2076042182854311,0.41201452552031714,0.3249942801420469,0.04843472489706934,0.07854617268822571,0.2238355253495151
-0.7569569189791873,-0.06387822101090188,-0.18205292988107036,0.4152084365708622,0.32509013228018757,0.0484591325236387,0.07855376673650889,0.22382997991969392
-0.1596955525272547,-0.01596955525272547,-0.10859297571853319,0.35133021555996036,0.3251864806240143,0.048483689480866184,0.07856140637536875,0.22382447107139325
0.303421549801784,-0.060684309960356786,-0.06707213206144698,0.2076042182854311,0.32528332605778343,0.048508395242676666,0.07856909119237414,0.22381899948298595
0.5429648785926661,-0.19482857408325072,-0.07345995416253714,-0.03193911050545094,0.3253806694742965,0.0485332492623503,0.07857682083578259,0.22381356596159496
0.6898847869177402,-0.17566510777998018,-0.006387822101090189,-0.2235737735381566,0.3254785117072107,0.048558251031119076,0.07858459495462013,0.2238081712838079
0.6739152316650149,-0.1533077304261645,0.01596955525272547,-0.35133021555996036,0.3255768537233546,0.04858340015833025,0.07859241315423998,0.22380281611891006
0.1117868867690783,-0.019163466303270562,0.09901124256689792,-0.33216674925668976,0.3256756967511028,0.04860869639289344,0.07860027496834847,0.22379750110736102
0.04152084365708622,-0.019163466303270562,0.08304168731417244,-0.25231897299306244,0.3257750421221162,0.048634139561661203,0.07860817987099396,0.22379222697718562
0.07026604311199207,0.0,-0.23315550668979185,-0.22996159563924676,0.32587489092679567,0.048659729477944974,0.07861612733126098,0.22378699456619328
0.07026604311199207,0.025551288404360755,-0.1596955525272547,-0.17247119672943506,0.3259752437691841,0.04868546588268871,0.07862411688805779,0.22378180476451603
0.28425808349851334,0.05429648785926659,0.05429648785926659,-0.20121639618434092,0.32607610073020127,0.048711348434130906,0.07863214819929934,0.22377665844850889
0.29703372770069375,0.09581733151635283,0.08623559836471753,-0.12136861992071357,0.3261774614639257,0.048737376731589316,0.07864022101621537,0.22377155643455088
0.3641058597621407,0.07665386521308225,0.06707213206144698,-0.02235737735381566,0.32627932534235365,0.04876355035522079,0.0786483351173325,0.2237664994317545
0.06707213206144698,0.060684309960356786,0.04471475470763132,0.035133021555996034,0.32638169154692426,0.04878986889495329,0.07865649026913951,0.22376148796583556
-0.7857021184340931,0.1596955525272547,0.038326932606541124,0.2235737735381566,0.3264845590903825,0.048816331961356534,0.07866468620806959,0.22375652231967577
-1.2041044660555005,0.028745199454905845,-0.09901124256689792,0.34174848240832506,0.3265879269922894,0.04884293919818441,0.07867292262710017,0.22375160258288715
-1.3222791749256688,-0.06707213206144698,-0.23315550668979185,0.38965714816650143,0.32669179475994,0.0488696902842171,0.07868119919868034,0.22374672880983093
-0.7697325631813676,-0.08623559836471753,-0.2107981293359762,0.3704936818632309,0.326796162863853,0.04889658491007388,0.07868951565530014,0.22374190117938803
0.20441030723488604,-0.08304168731417244,-0.13733817517343905,0.27148243929633303,0.32690103275301496,0.048923622766202005,0.07869787187336859,0.2237371200675606
0.5333831454410307,-0.12136861992071357,-0.1533077304261645,0.12136861992071357,0.32700640641737094,0.04895080355852458,0.07870626788874559,0.2237323860102461
0.43756581392467786,-0.1533077304261645,-0.01596955525272547,-0.07345995416253714,0.32711228596631403,0.048978127035248745,0.07871470384874113,0.22372769957772537
0.18844075198216054,-0.04471475470763132,0.11498079781962338,-0.2235737735381566,0.327218673483717,0.049005593010763016,0.07872317994544109,0.22372306124285854
-0.12775644202180375,-0.025551288404360755,0.07984777626362735,-0.3641058597621407,0.32732557094241294,0.04903320135365033,0.07873169636924432,0.22371847135882436
0.25231897299306244,-0.05110257680872151,0.10220515361744302,-0.33216674925668976,0.3274329800441708,0.04906095193384822,0.0787402533032713,0.22371393026622283
0.21718595143706637,-0.02235737735381566,0.07984777626362735,-0.27148243929633303,0.3275409021274214,0.04908884457961783,0.07874885093452777,0.2237094384098521
0.1533077304261645,-0.05429648785926659,0.019163466303270562,-0.23954332879088208,0.3276493381774371,0.04911687906700254,0.0787574894482228,0.22370499636068805
0.19163466303270565,0.019163466303270562,0.019163466303270562,-0.2491250619425173,0.3277582888323804,0.049145055120882374,0.07876616899656749,0.2237006047683675
0.19163466303270565,0.06707213206144698,0.11498079781962338,-0.2203798624876115,0.3278677543646122,0.049173372416635344,0.07877488966685178,0.22369626431566872
-0.14053208622398414,0.08942950941526263,0.09901124256689792,-0.11498079781962338,0.3279777346753129,0.04920183059072696,0.07878365149232468,0.22369197568391105
-0.12456253097125865,0.060684309960356786,0.04152084365708622,-0.04152084365708622,0.32808822928738834,0.04923042926440127,0.07879245449098483,0.22368773948898593
0.060684309960356786,0.009581733151635281,0.025551288404360755,-0.01596955525272547,0.3281992373129293,0.04925916805587935,0.07880129866979793,0.22368355618017433
-0.4215962586719524,-0.028745199454905845,-0.04152084365708622,0.16927728567888997,0.32831075744069593,0.049288046559033453,0.07881018398996621,0.2236794259616169
-0.884713361000991,-0.06707213206144698,-0.1565016414767096,0.3704936818632309,0.32842278807876785,0.04931706431624015,0.0788191103519014,0.22367534882155454
-0.4503414581268582,-0.07026604311199207,-0.13414426412289396,0.43756581392467786,0.3285353276788205,0.04934622082284862,0.07882807763599414,0.22367132469195772
-0.3481363045094153,-0.025551288404360755,-0.1053990646679881,0.4056267034192269,0.3286483749591474,0.04937551554948014,0.07883708576277976,0.2236673536456787
-0.09581733151635283,-0.06707213206144698,-0.09262342046580772,0.24273723984142714,0.32876192879815896,0.0494049479476132,0.07884613471292957,0.22366343599749272
0.303421549801784,-0.11498079781962338,-0.07984777626362735,0.07665386521308225,0.3288759879716031,0.04943451744952612,0.07885522450586796,0.22365957224793873
0.4088206144697721,-0.14053208622398414,-0.05429648785926659,-0.14053208622398414,0.3289905510165833,0.04946422349663221,0.07886435517101797,0.22365576292189937
0.6164248327552032,-0.10220515361744302,-0.025551288404360755,-0.2810641724479683,0.3291056163088891,0.04949406558494128,0.07887352671982245,0.22365200844405808
0.3641058597621407,-0.035133021555996034,0.07345995416253714,-0.33855457135777994,0.32922118223814295,0.04952404328015039,0.07888273911853146,0.22364830915741624
0.24593115089197226,-0.006387822101090189,0.09581733151635283,-0.23634941774033696,0.3293372472794966,0.049554156180021576,0.07889199228180513,0.22364466542699526
0.18844075198216054,-0.012775644202180378,0.07984777626362735,-0.23315550668979185,0.32945380988486617,0.04958440385206479,0.0789012860948165,0.22364107769340025
0.14372599727452925,-0.01596955525272547,-0.01596955525272547,-0.20121639618434092,0.32957086831052357,0.049614785790445794,0.07891062043006111,0.2236375464437281
-0.24593115089197226,0.04152084365708622,0.035133021555996034,-0.2076042182854311,0.32968842050923713,0.04964530140693186,0.07891999512871689,0.2236340721631938
-0.5653222559464817,0.1469199083250743,0.09901124256689792,-0.11498079781962338,0.329806464145789,0.04967595005377954,0.07892940997367164,0.22363065529896184
-0.22996159563924676,0.09901124256689792,0.07026604311199207,-0.006387822101090189,0.32992499672892056,0.049706731077424036,0.0789388646972495,0.2236272962054396
0.3257789271555996,-0.025551288404360755,-0.03193911050545094,-0.028745199454905845,0.33004401571368763,0.04973764386419802,0.07894835900548182,0.223623995051593
-0.7888960294846381,0.12775644202180375,0.09262342046580772,0.10859297571853319,0.3301635185228531,0.04976868783654563,0.07895789257946013,0.2236207517421388
-1.1402262450445986,0.12136861992071357,0.04471475470763132,0.306615460852329,0.33028350271697804,0.04979986244034485,0.0789674650674134,0.2236175659338631
-0.8687438057482655,-0.038326932606541124,-0.1596955525272547,0.43437190287413274,0.33040396637464414,0.04983116716020524,0.07897707609543334,0.22361443717297744
-0.4471475470763132,-0.06387822101090188,-0.19802248513379583,0.4279840807730426,0.33052490833002396,0.049862601517848375,0.0789867253079602,0.2236113650935115
0.1117868867690783,-0.009581733151635281,-0.11817470887016848,0.35452412661050536,0.33064632798805266,0.04989416503533206,0.07899641242859008,0.223608349564634
0.440759724975223,0.0031939110505450944,-0.047908665758176414,0.22676768458870167,0.33076822490153485,0.0499258571954792,0.0790061372831609,0.22360539071087848
0.7026604311199207,-0.1596955525272547,-0.08942950941526263,-0.012775644202180378,0.33089059853717795,0.04995767742548251,0.07901589975456225,0.2236024888051805
0.8719377167988107,-0.2076042182854311,-0.047908665758176414,-0.22996159563924676,0.33101344841450414,0.049989625140647656,0.07902569972593036,0.22359964410161232
0.84638642839445,-0.20441030723488604,0.009581733151635281,-0.3800754150148662,0.33113677441406103,0.05002169984574672,0.07903553705007144,0.22359685675354288
0.32258501610505447,-0.035133021555996034,0.1117868867690783,-0.3449423934588701,0.33126057694170524,0.05005390120354308,0.07904541153018708,0.22359412690070038
0.21718595143706637,-0.025551288404360755,0.09901124256689792,-0.2619007061446977,0.3313848567827975,0.05008622899757201,0.07905532292468077,0.2235914547980194
0.1596955525272547,-0.012775644202180378,-0.10220515361744302,-0.2491250619425173,0.33150961475197377,0.050118683030401526,0.07906527098367548,0.2235888408390012
0.11817470887016848,0.047908665758176414,-0.07665386521308225,-0.19482857408325072,0.33163485139983895,0.05015126305039368,0.07907525547629767,0.22358628549597637
-0.20121639618434092,0.17885901883052527,0.060684309960356786,-0.18524684093161545,0.3317605668840048,0.050183968751255296,0.07908527618573119,0.2235837892539234
-0.8623559836471754,0.2650946171952428,0.07984777626362735,-0.10859297571853319,0.3318867610144646,0.05021679984627896,0.07909533288984688,0.2235813525546202
-0.13095035307234884,0.19802248513379583,0.06707213206144698,-0.012775644202180378,0.33201343347015233,0.05024975618303011,0.0791054253486284,0.2235789757306019
0.3257789271555996,0.11498079781962338,0.06707213206144698,0.025551288404360755,0.33214058394811635,0.0502828378110963,0.0791155533019884,0.223576658917682
-0.4056267034192269,0.13414426412289396,0.05429648785926659,0.21718595143706637,0.33226821208530943,0.050316044955516025,0.07912571646731448,0.22357440199546194
-0.5653222559464817,-0.019163466303270562,-0.1501138193756194,0.34174848240832506,0.3323963173995567,0.050349377944330025,0.07913591454106966,0.22357220464054836
-0.8911011831020812,-0.11817470887016848,-0.2491250619425173,0.4056267034192269,0.3325248994351613,0.05038283714439547,0.07914614723709036,0.2235700664909438
-0.5493527006937562,-0.08623559836471753,-0.16608337462834488,0.39285105921704655,0.3326539579971644,0.050416422928480316,0.07915641436715062,0.22356798731764052
0.2650946171952428,-0.09262342046580772,-0.10859297571853319,0.27148243929633303,0.3327834932453648,0.05045013567807001,0.07916671589489817,0.22356596710946916
0.3161971940039643,-0.09901124256689792,-0.07345995416253714,0.13095035307234884,0.3329135055263199,0.05048397579476698,0.079177051907119,0.22356400603835178
0.4279840807730426,-0.22676768458870167,-0.07984777626362735,-0.12456253097125865,0.33304399513492455,0.050517943715512915,0.07918742254286998,0.22356210433221468
0.6611395874628344,-0.2203798624876115,-0.04152084365708622,-0.29064590559960357,0.33317496226718485,0.05055203996366134,0.07919782794072992,0.22356026215798644
0.9102646494053518,-0.2076042182854311,0.025551288404360755,-0.38646323711595637,0.33330640719255317,0.05058626522080682,0.07920826820696716,0.22355847962623637
0.2235737735381566,-0.05749039890981169,0.11498079781962338,-0.32258501610505447,0.3334383304654131,0.05062062035082769,0.07921874339533838,0.22355675690312962
0.1533077304261645,-0.04471475470763132,0.09581733151635283,-0.2650946171952428,0.3335707328930087,0.05065510633988787,0.07922925351715532,0.22355509429833398
0.10859297571853319,-0.047908665758176414,0.01596955525272547,-0.22996159563924676,0.3337036152199707,0.05068972419697519,0.07923979856878202,0.22355349225303983
0.07665386521308225,0.01596955525272547,-0.07345995416253714,-0.21718595143706637,0.3338369778263188,0.050724474884753075,0.07925037852844567,0.22355195127415625
0.5301892343904856,0.047908665758176414,0.006387822101090189,-0.19482857408325072,0.3339708206448898,0.05075935929320148,0.0792609933271813,0.22355047187728416
0.6834969648166501,0.05110257680872151,0.0,-0.10220515361744302,0.33410514331561353,0.0507943782346792,0.07927164282365032,0.22354905454234242
0.7984777626362735,-0.047908665758176414,-0.047908665758176414,-0.05749039890981169,0.33423994550641506,0.05082953245234499,0.07928232678308174,0.22354769965264057
0.613230921704658,-0.04471475470763132,0.0031939110505450944,-0.03193911050545094,0.3343752271998804,0.050864822630610124,0.07929304486891191,0.22354640741304743
-0.303421549801784,-0.012775644202180378,-0.009581733151635281,0.18524684093161545,0.3345109887558131,0.05090024939401054,0.07930379664660867,0.22354517779389346
-1.0699602019326064,-0.05749039890981169,-0.1501138193756194,0.3800754150148662,0.3346472308107188,0.050935813297156116,0.07931458159330948,0.22354401057178505
-0.9166524715064419,-0.04471475470763132,-0.11817470887016848,0.4279840807730426,0.3347839543140447,0.050971514821640945,0.07932539914156665,0.22354290548734743
-0.511025768087215,0.0031939110505450944,-0.10220515361744302,0.4088206144697721,0.3349211607307259,0.05100735438134484,0.07933624874583818,0.22354186243218716
-0.2491250619425173,0.0,-0.07984777626362735,0.2619007061446977,0.335058852027445,0.05104333231377109,0.07934712991024695,0.22354088154268564
0.1596955525272547,-0.06387822101090188,-0.07984777626362735,0.08623559836471753,0.33519703033349807,0.0510794488613519,0.07935804217113787,0.2235399631484356
0.5557405227948463,-0.13414426412289396,-0.01596955525272547,-0.14372599727452925,0.3353356976176517,0.05111570418516264,0.07936898506818912,0.22353910761873536
0.4471475470763132,-0.09581733151635283,0.02235737735381566,-0.29703372770069375,0.3354748556402855,0.05115209842131532,0.07937995811013075,0.22353831523842338
0.20441030723488604,-0.04471475470763132,0.12456253097125865,-0.3449423934588701,0.3356145060603202,0.05118863172656238,0.07939096074843169,0.22353758622429679
-0.07984777626362735,0.047908665758176414,0.1469199083250743,-0.21718595143706637,0.33575465041173913,0.05122530426946238,0.07940199239894401,0.22353692082643825
-0.07345995416253714,-0.009581733151635281,0.12456253097125865,-0.23954332879088208,0.3358952899117163,0.051262116189904394,0.07941305250454905,0.22353631937296156
-0.08623559836471753,-0.006387822101090189,0.047908665758176414,-0.2076042182854311,0.3360364252873378,0.05129906756268927,0.07942414057178541,0.22353578223347942
-0.4663110133795837,0.05429648785926659,0.025551288404360755,-0.22676768458870167,0.33617805674931467,0.051336158375906986,0.07943525614361402,0.22353530977606284
0.17885901883052527,0.07026604311199207,0.1117868867690783,-0.1533077304261645,0.3363201841118403,0.051373388535906506,0.07944639874762745,0.2235349023452676
0.35452412661050536,0.038326932606541124,0.09581733151635283,-0.06707213206144698,0.3364628069290628,0.05141075789441287,0.07945756788336844,0.22353456022663515
0.5685161669970267,-0.012775644202180378,0.0031939110505450944,-0.03193911050545094,0.3366059245688874,0.051448266261941114,0.07946876304164231,0.2235342835725903
0.33216674925668976,0.0,-0.019163466303270562,0.07984777626362735,0.33674953630288257,0.0514859133895223,0.07947998369235015,0.22353407231907144
-0.6355882990584737,0.038326932606541124,-0.04471475470763132,0.28425808349851334,0.33689364140954564,0.051523698942712075,0.0794912292419741,0.22353392616649698
-1.2296557544598612,-0.01596955525272547,-0.1533077304261645,0.4471475470763132,0.3370382393110634,0.051561622495165695,0.0795024990269415,0.22353384468419482
-0.6100370106541129,-0.038326932606541124,-0.17885901883052527,0.4439536360257681,0.3371833298454513,0.051599683538375817,0.07951379237129062,0.22353382750880801
-0.12136861992071357,-0.006387822101090189,-0.09262342046580772,0.3609119487115956,0.3373289134113912,0.051637881489102845,0.07952510866283995,0.22353387451199705
-0.04152084365708622,-0.009581733151635281,0.019163466303270562,0.23315550668979185,0.33747499066165637,0.05167621568651132,0.07953644737102206,0.22353398583300055
-0.3832693260654113,-0.1565016414767096,0.006387822101090189,-0.01596955525272547,0.3376215620351707,0.05171468539676941,0.07954780798634674,0.22353416177022745
0.35133021555996036,-0.14053208622398414,0.025551288404360755,-0.22676768458870167,0.33776862759387527,0.05175328986109276,0.07955918994356714,0.22353440260855784
0.43756581392467786,-0.04471475470763132,0.08623559836471753,-0.3098093719028741,0.3379161871443398,0.051792028363992715,0.07957059259177424,0.223534708525676
0.20121639618434092,-0.01596955525272547,0.09581733151635283,-0.32897283820614465,0.3380642403577351,0.05183090024054383,0.0795820152192995,0.2235350796536141
0.12775644202180375,-0.02235737735381566,0.07665386521308225,-0.2746763503468781,0.3382127867437646,0.051869904817491166,0.07959345709796949,0.22353551619021453
0.1501138193756194,-0.0031939110505450944,-0.2235737735381566,-0.22676768458870167,0.33836182551981686,0.05190904135871232,0.07960491752108804,0.22353601843594406
0.1628894635777998,0.0,-0.09581733151635283,-0.19482857408325072,0.3385113554995678,0.05194830904181669,0.07961639584604333,0.2235365867544934
0.3832693260654113,0.038326932606541124,-0.047908665758176414,-0.23634941774033696,0.3386613750871329,0.051987706950566474,0.07962789151800677,0.22353722151642055
0.028745199454905845,0.11817470887016848,0.035133021555996034,-0.1565016414767096,0.33881188234326715,0.052027234090268645,0.07963940402966804,0.22353792306500264
-0.84638642839445,0.07665386521308225,0.05749039890981169,-0.060684309960356786,0.33896287506750505,0.052066889435019144,0.07965093285477355,0.22353869168357285
-0.3800754150148662,-0.07984777626362735,0.009581733151635281,-0.028745199454905845,0.3391143509539833,0.05210667197325655,0.0796624774142248,0.22353952752297343
0.04152084365708622,-0.04152084365708622,0.012775644202180378,0.18205292988107036,0.3392663077382599,0.05214658071554341,0.07967403706217661,0.22354043052372755
-0.4631171023290387,0.01596955525272547,-0.13095035307234884,0.35771803766105054,0.33941874311771186,0.052186614670434874,0.07968561107946825,0.22354140043238765
-1.5586285926660057,0.1501138193756194,-0.17247119672943506,0.4854744796828543,0.33957165472322387,0.052226772822592527,0.07969719871006385,0.22354243695218348
-0.8687438057482655,0.09262342046580772,-0.1628894635777998,0.4599231912784935,0.33972504054526315,0.05226705415013881,0.07970879924195702,0.22354353994861753
0.05429648785926659,0.10220515361744302,-0.11498079781962338,0.35452412661050536,0.3398788993477231,0.0523074576676507,0.0797204120682378,0.22354470958349532
0.2682885282457879,0.02235737735381566,-0.06707213206144698,0.18844075198216054,0.34003323042506267,0.052347982437591076,0.07973203668420197,0.22354594630478822
0.49505621283448964,-0.16608337462834488,-0.05429648785926659,-0.09581733151635283,0.34018803306493633,0.05238862754883891,0.07974367263851628,0.22354725071010653
0.5589344338453914,-0.1501138193756194,-0.006387822101090189,-0.2619007061446977,0.34034330638431226,0.05242939212210354,0.07975531947560617,0.22354862338491194
0.5046379459861249,-0.1565016414767096,-0.012775644202180378,-0.38646323711595637,0.3404990494867329,0.05247027535721336,0.0797669766873141,0.22355006485075063
0.32897283820614465,-0.08304168731417244,0.14053208622398414,-0.33216674925668976,0.34065526156949566,0.05251127656573819,0.07977864369127291,0.2235515756535053
0.2491250619425173,-0.07026604311199207,0.10859297571853319,-0.27787026139742316,0.34081194186121055,0.05255239515091634,0.07979031986240816,0.2235531564640924
0.20441030723488604,-0.07026604311199207,0.0,-0.23634941774033696,0.3409690894690305,0.0525936305595075,0.07980200458275666,0.22355480808400344
0.19482857408325072,-0.01596955525272547,-0.2555128840436075,-0.25231897299306244,0.34112670324258043,0.05263498224059563,0.07981369725560408,0.22355653138809709
0.4471475470763132,0.0,0.08623559836471753,-0.24593115089197226,0.3412847817246875,0.05267644961092552,0.07982539732463562,0.22355832727849584
0.6515578543111992,0.07665386521308225,0.14053208622398414,-0.10220515361744302,0.3414433232427391,0.052718032023894114,0.07983710431622162,0.22356019665558324
0.48228056863230917,0.04152084365708622,0.1117868867690783,-0.025551288404360755,0.3416023261127551,0.052759728766518806,0.07984881784644333,0.22356214035336955
-0.019163466303270562,0.025551288404360755,0.08304168731417244,-0.0031939110505450944,0.34176178874417157,0.05280153907837318,0.07986053759651753,0.22356415902438603
-0.43437190287413274,0.01596955525272547,0.009581733151635281,0.19802248513379583,0.3419217095043771,0.0528434621529407,0.07987226328151578,0.22356625305208924
-1.2488192207631317,0.012775644202180378,-0.12775644202180375,0.4056267034192269,0.34208208664409,0.05288549711889544,0.07988399461033137,0.22356842259402065
-1.0348271803766105,0.028745199454905845,-0.13414426412289396,0.45672928022794845,0.3422429186383849,0.05292764302632521,0.07989573127561395,0.22357066776747297
-0.27787026139742316,0.06707213206144698,-0.08304168731417244,0.4503414581268582,0.3424042046147096,0.05296989885077895,0.07990747298892263,0.22357298886268714
0.4663110133795837,0.035133021555996034,-0.08304168731417244,0.3002276387512388,0.34256594429832776,0.05301226351330454,0.07991921950296126,0.2235753864516496
0.7154360753221011,-0.11817470887016848,-0.08942950941526263,0.07665386521308225,0.34272813765616544,0.053054735905105274,0.07993097059579982,0.22357786133986565
0.2555128840436075,-0.17885901883052527,0.03193911050545094,-0.1565016414767096,0.3428907847402099,0.0530973149238339,0.07994272604825232,0.2235804143991591
-0.038326932606541124,-0.08623559836471753,0.060684309960356786,-0.2810641724479683,0.34305388563095696,0.053139999527501265,0.07995448562316579,0.2235830464210824
0.1117868867690783,-0.07345995416253714,0.08304168731417244,-0.35771803766105054,0.3432174402074292,0.0531827887606534,0.07996624904813483,0.22358575811898926
0.1501138193756194,-0.006387822101090189,0.08942950941526263,-0.306615460852329,0.34338144790245106,0.05322568171932166,0.07997801602041149,0.2235885502353079
0.11498079781962338,-0.05429648785926659,0.06707213206144698,-0.2555128840436075,0.34354590763507936,0.053268677491542536,0.07998978622624238,0.22359142361651393
0.08942950941526263,-0.05110257680872151,0.04471475470763132,-0.2139920403865213,0.3437108178321477,0.05331177512291652,0.08000155934538958,0.22359437919954056
0.05429648785926659,0.038326932606541124,0.05749039890981169,-0.17566510777998018,0.34387617642422197,0.05335497361544302,0.08001333503552145,0.2235974179484081
0.17247119672943506,0.06707213206144698,0.09901124256689792,-0.13733817517343905,0.3440419808265689,0.053398271936255,0.08002511292056382,0.22360054078632668
0.29703372770069375,0.07026604311199207,0.08942950941526263,-0.03193911050545094,0.3442082279714186,0.053441669025599436,0.0800368926030059,0.22360374852798348
0.1053990646679881,0.012775644202180378,0.03193911050545094,-0.02235737735381566,0.3443749143977804,0.0534851638043833,0.08004867368187184,0.22360704179844335
0.09581733151635283,0.02235737735381566,0.03193911050545094,0.07345995416253714,0.3445420362972658,0.05352875516493662,0.08006045574231997,0.22361042095771505
-0.2619007061446977,0.06707213206144698,-0.04471475470763132,0.3002276387512388,0.34470958948052716,0.05357244195020448,0.08007223832412164,0.22361388609662786
-1.025245447224975,-0.05749039890981169,-0.22676768458870167,0.4279840807730426,0.34487756945384,0.053616222954576895,0.08008402092182598,0.22361743715685842
-0.7505690968780971,-0.047908665758176414,-0.2076042182854311,0.4439536360257681,0.34504597176664575,0.05366009694415243,0.0800958030559011,0.22362107413449894
-0.060684309960356786,-0.05429648785926659,-0.19163466303270565,0.32897283820614465,0.345214792343865,0.05370406266680194,0.08010758437387958,0.2236247972408049
0.648363943260654,-0.07984777626362735,-0.10859297571853319,0.19482857408325072,0.3453840274217852,0.05374811885250552,0.08011936469460508,0.22362860692174502
0.747375185827552,-0.23634941774033696,-0.05749039890981169,-0.04152084365708622,0.3455536733473268,0.053792264237756134,0.08013114396934572,0.22363250373926793
0.7601508300297324,-0.17566510777998018,0.035133021555996034,-0.2076042182854311,0.34572372666322154,0.053836497636469166,0.08014292220155667,0.22363648820542242
-0.3161971940039643,0.0031939110505450944,0.03193911050545094,-0.3098093719028741,0.34589418428466095,0.053880817999853135,0.08015469937380547,0.22364056070527802
-0.038326932606541124,-0.012775644202180378,0.11817470887016848,-0.3449423934588701,0.34606504339715227,0.05392522437623458,0.08016647541446213,0.22364472156583995
-0.006387822101090189,-0.019163466303270562,0.09262342046580772,-0.2810641724479683,0.3462363010986501,0.05396971580548939,0.08017825021400259,0.2236489711729126
0.0031939110505450944,0.0,-0.006387822101090189,-0.24273723984142714,0.3464079540567861,0.05401429125284121,0.08019002365401202,0.22365331001754785
0.047908665758176414,0.009581733151635281,-0.07984777626362735,-0.20441030723488604,0.34657999835009623,0.05405894959435495,0.08020179559930524,0.2236577386621096
0.1501138193756194,0.009581733151635281,0.18844075198216054,-0.22996159563924676,0.3467524294637345,0.054103689614404926,0.08021356588554883,0.22366225768312092
0.09581733151635283,0.07665386521308225,0.1117868867690783,-0.11817470887016848,0.34692524235507577,0.05414851001245433,0.08022533436108993,0.22366686762676516
-0.39604497026759167,0.047908665758176414,0.047908665758176414,-0.07345995416253714,0.34709843154671255,0.05419340942948535,0.08023710093396509,0.22367156895801804
-0.32897283820614465,-0.012775644202180378,0.038326932606541124,-0.038326932606541124,0.34727199125564445,0.054238386474315906,0.0802488655499403,0.22367636198253815
-0.24593115089197226,0.006387822101090189,0.035133021555996034,0.1565016414767096,0.34744591552750476,0.05428343971925243,0.08026062813171447,0.22368124678034174
-0.6930786979682854,-0.04471475470763132,-0.09901124256689792,0.32258501610505447,0.3476201983226497,0.05432856767699598,0.08027238854657943,0.22368622322266876
-0.9549794041129831,-0.11498079781962338,-0.23634941774033696,0.40243279236868185,0.3477948336709071,0.05437376880323644,0.08028414663355213,0.22369129109783853
-0.5717100780475718,-0.11498079781962338,-0.2107981293359762,0.3768815039643211,0.34796981595556137,0.05441904154117938,0.08029590228931546,0.2236964502795015
0.060684309960356786,-0.012775644202180378,-0.09901124256689792,0.3130032829534192,0.34814514002696473,0.054464384366893284,0.08030765555059206,0.2237017008310418
0.45672928022794845,0.0031939110505450944,-0.06707213206144698,0.19163466303270565,0.3483208009581406,0.054509795779296676,0.08031940658999083,0.22370704299809224
0.5812918111992071,-0.09262342046580772,-0.06387822101090188,-0.05429648785926659,0.34849679378736825,0.05455527425235125,0.08033115563969596,0.2237124771061051
0.8112534068384538,-0.07345995416253714,-0.04152084365708622,-0.2491250619425173,0.34867311358434394,0.05460081822321546,0.08034290292287073,0.2237180034271793
0.27787026139742316,-0.019163466303270562,0.05749039890981169,-0.33855457135777994,0.3488497556630708,0.054646426118551715,0.08035464862166557,0.22372362213207037
0.05749039890981169,-0.012775644202180378,0.09581733151635283,-0.3130032829534192,0.34902671557031145,0.054692096355721295,0.0803663928704387,0.22372933337197987
0.012775644202180378,-0.01596955525272547,0.07984777626362735,-0.2587067950941526,0.34920398878413733,0.05473782731063582,0.08037813577007669,0.22373513737752973
0.05429648785926659,-0.01596955525272547,0.012775644202180378,-0.2203798624876115,0.34938157039024453,0.05478361729323595,0.08038987740208613,0.22374103447125585
-0.006387822101090189,-0.03193911050545094,-0.01596955525272547,-0.2491250619425173,0.3495594549373243,0.05482946454436239,0.08040161781036642,0.22374702502125587
-0.019163466303270562,0.05110257680872151,0.12136861992071357,-0.21718595143706637,0.34973763641428285,0.05487536724564827,0.08041335697186705,0.22375310940268253
-0.025551288404360755,0.11817470887016848,0.1053990646679881,-0.10220515361744302,0.349916108249201,0.05492132354407113,0.08042509481124091,0.22375928797066313
0.038326932606541124,0.028745199454905845,0.035133021555996034,-0.07665386521308225,0.35009486331548734,0.05496733158721958,0.08043683124458087,0.22376556100249598
0.05110257680872151,-0.05110257680872151,0.01596955525272547,-0.04152084365708622,0.3502738939515864,0.05501338953885485,0.08044856618233026,0.2237719286093234
-0.39604497026759167,-0.06707213206144698,-0.02235737735381566,0.16927728567888997,0.35045319201963104,0.05505949556490326,0.08046029948586043,0.22377839067518543
-1.0603784687809712,-0.038326932606541124,-0.1565016414767096,0.3800754150148662,0.35063274912428444,0.05510564782183757,0.08047203094389371,0.223784946889052
-1.2328496655104064,0.0,-0.17885901883052527,0.440759724975223,0.35081255709713655,0.05515184445142135,0.08048376031720693,0.22379159689331024
-0.613230921704658,0.06707213206144698,-0.1053990646679881,0.4503414581268582,0.35099260852009057,0.055198083564433384,0.0804954874190229,0.2237983404770517
0.36729977081268583,0.09581733151635283,-0.07345995416253714,0.35133021555996036,0.3511728968405241,0.05524436323823975,0.08050721214810806,0.22380517769676322
0.23634941774033696,0.02235737735381566,-0.09581733151635283,0.12775644202180375,0.3513534160215988,0.055290681542799994,0.08051893445621006,0.2238121088614027
0.4247901697224975,-0.12775644202180375,-0.02235737735381566,-0.1501138193756194,0.3515341601364838,0.05533703656162341,0.08053065430398414,0.2238191343961047
0.6355882990584737,-0.1469199083250743,0.05429648785926659,-0.3098093719028741,0.3517151232293059,0.055383426409297644,0.08054237162905345,0.22382625469728964
0.440759724975223,-0.07345995416253714,0.07984777626362735,-0.35771803766105054,0.35189629941350714,0.05542984926693483,0.08055408632415842,0.22383347011634344
0.22676768458870167,-0.025551288404360755,0.07984777626362735,-0.2491250619425173,0.3520776829574854,0.05547630339296383,0.08056579824004562,0.22384078104786764
0.17885901883052527,-0.028745199454905845,0.06387822101090188,-0.24273723984142714,0.3522592681818263,0.05552278707881086,0.08057750720466979,0.22384818797791417
0.14053208622398414,-0.02235737735381566,0.02235737735381566,-0.2139920403865213,0.3524410492576089,0.055569298594806874,0.08058921302634887,0.2238556914481064
-0.04471475470763132,0.0,0.14053208622398414,-0.20441030723488604,0.3526230200558486,0.05561583616228302,0.08060091548267595,0.22386329200151325
-0.019163466303270562,0.047908665758176414,0.2650946171952428,-0.13414426412289396,0.35280517405189343,0.055662397943408395,0.08061261434849668,0.22387099014236436
0.05429648785926659,0.07984777626362735,0.16927728567888997,-0.028745199454905845,0.35298750425087433,0.055708982048791184,0.08062430948576393,0.22387878628192268
-0.18844075198216054,0.07026604311199207,0.1501138193756194,0.01596955525272547,0.3531700031668946,0.05575558656841592,0.08063600091710613,0.22388668065069006
-0.27148243929633303,0.07026604311199207,0.13733817517343905,0.07345995416253714,0.35335266289273237,0.05580220960331511,0.08064768881856331,0.2238946732126837
-0.5461587896432111,0.012775644202180378,-0.01596955525272547,0.25231897299306244,0.35353547525487017,0.05584884927142157,0.08065937346428301,0.2239027636542761
-0.9358159378097126,-0.07984777626362735,-0.2682885282457879,0.4247901697224975,0.35371843206571063,0.055895503691106935,0.08067105517827504,0.22391095149267354
-0.43437190287413274,-0.05749039890981169,-0.2555128840436075,0.4247901697224975,0.3539015254309387,0.05594217097085223,0.08068273435267181,0.2239192362699774
0.35771803766105054,-0.028745199454905845,-0.1628894635777998,0.3768815039643211,0.35408474788428745,0.055988849214826684,0.08069441153079167,0.2239276177227905
0.8240290510406343,-0.0031939110505450944,-0.07026604311199207,0.22996159563924676,0.3542680922830698,0.05603553651696002,0.08070608743822244,0.2239360958302335
0.4311779918235877,-0.006387822101090189,-0.006387822101090189,0.05749039890981169,0.35445155174517917,0.05608223093289642,0.08071776290352088,0.2239446707253733
0.3098093719028741,-0.01596955525272547,0.006387822101090189,-0.1596955525272547,0.3546351196741036,0.05612893045488008,0.08072943874099993,0.22395334253216342
-0.1565016414767096,0.0,0.02235737735381566,-0.3130032829534192,0.3548187896381597,0.05617563300433992,0.080741115670604,0.22396211125842402
0.18205292988107036,-0.07345995416253714,0.028745199454905845,-0.3641058597621407,0.3550025551344161,0.05622233643849158,0.08075279429248479,0.22397097684024
0.22676768458870167,-0.08942950941526263,0.02235737735381566,-0.29703372770069375,0.3551864094308417,0.056269038576282286,0.0807644750937901,0.2239799392680354
0.18524684093161545,-0.05749039890981169,-0.10859297571853319,-0.2491250619425173,0.3553703455277008,0.056315737239657035,0.08077615846615714,0.22398899865380917
0.17566510777998018,-0.028745199454905845,-0.07984777626362735,-0.21718595143706637,0.3555543561665208,0.056362430274713514,0.08078784473805353,0.2239981552031439
0.1565016414767096,0.02235737735381566,0.08623559836471753,-0.2139920403865213,0.355738433825067,0.056409115534555784,0.08079953421338859,0.22400740915217104
-0.20441030723488604,0.20121639618434092,0.05749039890981169,-0.1053990646679881,0.3559225707022564,0.056455790866747714,0.08081122718759,0.2240167607117301
-0.9933063367195243,0.2491250619425173,-0.025551288404360755,-0.038326932606541124,0.35610675879932613,0.05650245416947682,0.0808229239344134,0.2240262100004058
-0.6643334985133795,0.1533077304261645,0.05749039890981169,0.04471475470763132,0.35629099021633215,0.05654910349863891,0.08083462468000933,0.22403575695336428
-0.3800754150148662,0.07026604311199207,0.09581733151635283,0.20121639618434092,0.35647525747065795,0.05659573711668964,0.08084632959068744,0.22404540126170455
-0.28425808349851334,-0.07984777626362735,-0.10220515361744302,0.3161971940039643,0.3566595534905996,0.05664235343853535,0.08085803879267121,0.2240551424152773
-0.6834969648166501,-0.14372599727452925,-0.2650946171952428,0.38965714816650143,0.35684387139516177,0.056688950958536925,0.08086975242239389,0.2240649798441955
-0.3353606603072349,-0.08623559836471753,-0.21718595143706637,0.40243279236868185,0.3570282044150439,0.05673552823269352,0.08088147070621428,0.22407491307718014
0.03193911050545094,0.012775644202180378,-0.11817470887016848,0.3257789271555996,0.35721254589451545,0.05678208388116672,0.08089319403141655,0.22408494183961078
-0.6036491885530227,0.019163466303270562,-0.09581733151635283,0.1628894635777998,0.35739688917136175,0.056828616551875315,0.08090492293888799,0.2240950660518257
0.2587067950941526,-0.14372599727452925,0.01596955525272547,-0.09262342046580772,0.35758122749335053,0.05687512487603998,0.08091665804399675,0.22410528572374175
0.9262342046580774,-0.17885901883052527,0.009581733151635281,-0.2619007061446977,0.35776555413202155,0.05692160748987329,0.08092839994794773,0.2241156008197039
0.8559681615460852,-0.21718595143706637,-0.009581733151635281,-0.4056267034192269,0.3579498626257686,0.05696806311948339,0.08094014917094938,0.22412601122737152
0.4152084365708622,-0.08304168731417244,0.07026604311199207,-0.34174848240832506,0.35813414701522917,0.05701449065049806,0.08095190612258282,0.22413651686351252
0.3130032829534192,-0.06707213206144698,0.05429648785926659,-0.2810641724479683,0.3583184018393337,0.057060889120007466,0.08096367111525155,0.22414711778485918
0.22996159563924676,-0.05429648785926659,0.028745199454905845,-0.23634941774033696,0.3585026218619693,0.05710725764721191,0.08097544439161934,0.22415781419284111
0.14372599727452925,-0.025551288404360755,-0.11817470887016848,-0.24593115089197226,0.35868680179195905,0.05715359536704001,0.08098722613865035,0.2241686063687917
0.05749039890981169,-0.019163466303270562,-0.03193911050545094,-0.2682885282457879,0.35887093611252857,0.05719990139169264,0.08099901649957623,0.22417949462285053
0.20121639618434092,-0.04152084365708622,-0.038326932606541124,-0.1628894635777998,0.3590550189740641,0.05724617478762837,0.08101081558227995,0.2241904792742426
0.28425808349851334,-0.07665386521308225,-0.025551288404360755,-0.07984777626362735,0.3592390441722894,0.05729241457237078,0.08102262344317007,0.2242015606145971
0.38965714816650143,-0.02235737735381566,-0.07026604311199207,-0.02235737735381566,0.3594230052385541,0.05733861973143249,0.08103444006638721,0.22421273881909995
-0.4311779918235877,0.047908665758176414,-0.07345995416253714,0.17885901883052527,0.3596068955848519,0.057384789228796876,0.08104626536927921,0.2242240138544801
-0.884713361000991,-0.028745199454905845,-0.1469199083250743,0.3800754150148662,0.3597907086733441,0.05743092199964397,0.081058099233408,0.2242353854866492
-0.7505690968780971,-0.06707213206144698,-0.13414426412289396,0.440759724975223,0.3599744382513149,0.05747701694443362,0.08106994155017644,0.2242468534280289
-0.43756581392467786,-0.035133021555996034,-0.1469199083250743,0.4088206144697721,0.36015807855418636,0.0575230729348164,0.08108179226509389,0.22425841753031533
0.1533077304261645,-0.04152084365708622,-0.10220515361744302,0.23954332879088208,0.360341624251208,0.05756908881976142,0.08109365139878756,0.22427007788151285
0.4184023476214073,-0.06707213206144698,0.028745199454905845,0.1117868867690783,0.3605250701651726,0.05761506342541663,0.08110551903094114,0.22428183474861066
0.5589344338453914,-0.09262342046580772,0.1117868867690783,-0.11498079781962338,0.36070841108770907,0.05766099556299821,0.08111739525671503,0.22429368842088124
0.5525466117443013,-0.05429648785926659,0.14053208622398414,-0.25231897299306244,0.3608916418475385,0.05770688404951462,0.08112928016269735,0.2243056390813394
0.2682885282457879,-0.02235737735381566,0.11817470887016848,-0.32897283820614465,0.3610747574368636,0.05775272771519287,0.0811411738513856,0.22431768680497313
0.12456253097125865,0.07665386521308225,0.10859297571853319,-0.16608337462834488,0.361257752961644,0.05779852538640549,0.0811530764729818,0.22432983164280187
0.07665386521308225,-0.006387822101090189,0.08623559836471753,-0.23954332879088208,0.3614406234263474,0.05784427586918537,0.08116498822488011,0.22434207366414524
0.05749039890981169,-0.006387822101090189,0.06707213206144698,-0.20441030723488604,0.36162336352191454,0.057889977937949845,0.0811769093289388,0.22435441292969707
0.306615460852329,-0.019163466303270562,0.07026604311199207,-0.16608337462834488,0.36180596753725774,0.05793563031453907,0.08118884000510743,0.22436684946133592
0.8431925173439048,-0.006387822101090189,0.07984777626362735,-0.1501138193756194,0.3619884294709823,0.05798123165099801,0.08120078045288939,0.22437938321860343
0.7761203852824579,0.01596955525272547,0.07665386521308225,-0.07345995416253714,0.3621707433699857,0.05802678052746064,0.0812127308473035,0.22439201405736825
0.23954332879088208,0.07345995416253714,0.05429648785926659,0.0031939110505450944,0.3623529036569865,0.058072275460262356,0.08122469134077745,0.22440474166757657
-0.7825082073835481,0.1596955525272547,0.12136861992071357,0.13095035307234884,0.3625349051626107,0.05811771493554154,0.08123666206347033,0.22441756550679257
-1.0859297571853321,0.13414426412289396,0.028745199454905845,0.3161971940039643,0.3627167430732817,0.05816309747655098,0.08124864312729581,0.22443048479934474
-1.36060610753221,-0.019163466303270562,-0.1533077304261645,0.4279840807730426,0.36289841317059307,0.05820842169536624,0.08126063463235074,0.22444349866203425
-0.9996941588206144,-0.028745199454905845,-0.18205292988107036,0.4184023476214073,0.3630799122271663,0.05825368627215135,0.08127263668805217,0.22445660629816594
0.10859297571853319,-0.08942950941526263,-0.08942950941526263,0.35133021555996036,0.3632612380941451,0.0582988898955648,0.08128464945799777,0.22446980713471631
0.6866908758671952,-0.08942950941526263,-0.05429648785926659,0.21718595143706637,0.363442389321481,0.05834403124486783,0.08129667317569941,0.22448310083535047
0.6292004769573835,-0.12775644202180375,-0.08942950941526263,0.0,0.3636233647349371,0.05838910902169854,0.08130870810265575,0.22449648719192505
0.32258501610505447,-0.09262342046580772,-0.04152084365708622,-0.19802248513379583,0.36380416333561955,0.05843412198564667,0.08132075448340086,0.22450996595293984
0.32897283820614465,-0.0031939110505450944,0.05429648785926659,-0.27787026139742316,0.363984784283203,0.0584790689593102,0.08133281252628158,0.2245235367242185
0.09901124256689792,-0.03193911050545094,0.07345995416253714,-0.3609119487115956,0.36416522672944146,0.05852394879006146,0.0813448823931927,0.22453719902798255
