0.328985411,0.050160735,0.075758581,0.224027014
0.328949327,0.050147704,0.075773478,0.224030929
0.328913151,0.050134652,0.075788394,0.224034852
0.328876883,0.050121582,0.075803327,0.224038783
0.328840521,0.050108492,0.075818276,0.224042721
0.328804065,0.050095383,0.075833241,0.224046666
0.328767513,0.050082256,0.075848222,0.224050618
0.328730864,0.050069111,0.075863217,0.224054574
0.328694117,0.050055949,0.075878226,0.224058536
0.328657273,0.050042769,0.075893247,0.224062501
0.328620332,0.050029572,0.075908282,0.224066471
0.328583295,0.050016358,0.075923329,0.224070444
0.328546164,0.050003128,0.075938388,0.224074421
0.328508938,0.049989882,0.075953458,0.224078401
0.32847162,0.04997662,0.075968539,0.224082384
0.32843421,0.049963344,0.075983631,0.224086369
0.328396709,0.049950053,0.075998733,0.224090357
0.328359118,0.049936749,0.076013844,0.224094348
0.328321437,0.049923431,0.076028964,0.22409834
0.328283666,0.0499101,0.076044093,0.224102336
0.328245804,0.049896756,0.076059229,0.224106333
0.328207852,0.0498834,0.076074371,0.224110333
0.328169808,0.049870033,0.07608952,0.224114334
0.328131671,0.049856653,0.076104673,0.224118335
0.328093441,0.049843263,0.07611983,0.224122337
0.328055117,0.049829862,0.07613499,0.224126338
0.328016701,0.04981645,0.076150152,0.224130338
0.327978194,0.049803027,0.076165314,0.224134336
0.327939596,0.049789593,0.076180477,0.224138334
0.327900908,0.04977615,0.07619564,0.224142331
0.327862133,0.049762695,0.0762108,0.224146327
0.32782327,0.049749231,0.076225958,0.224150321
0.32778432,0.049735756,0.076241111,0.224154313
0.327745284,0.049722272,0.07625626,0.224158303
0.327706162,0.049708778,0.076271404,0.224162291
0.327666954,0.049695275,0.076286542,0.224166277
0.32762766,0.049681762,0.076301672,0.224170261
0.327588279,0.04966824,0.076316794,0.224174242
0.327548809,0.049654709,0.076331908,0.224178219
0.32750925,0.049641169,0.076347012,0.224182193
0.327469599,0.049627621,0.076362106,0.224186161
0.327429856,0.049614064,0.076377188,0.224190125
0.327390019,0.0496005,0.076392259,0.224194082
0.327350089,0.049586927,0.076407317,0.224198033
0.327310065,0.049573346,0.076422363,0.224201978
0.327269947,0.049559759,0.076437395,0.224205916
0.327229737,0.049546164,0.076452413,0.224209848
0.327189433,0.049532563,0.076467416,0.224213773
0.327149037,0.049518956,0.076482405,0.224217691
0.327108549,0.049505343,0.076497378,0.224221602
0.327067969,0.049491726,0.076512335,0.224225506
0.327027296,0.049478103,0.076527275,0.224229403
0.326986531,0.049464477,0.076542198,0.224233293
0.326945672,0.049450846,0.076557103,0.224237176
0.326904719,0.049437211,0.07657199,0.224241051
0.326863671,0.049423573,0.076586857,0.224244918
0.326822526,0.049409932,0.076601706,0.224248777
0.326781283,0.049396288,0.076616534,0.224252626
0.326739941,0.049382641,0.076631341,0.224256466
0.326698501,0.049368992,0.076646127,0.224260296
0.326656962,0.049355341,0.076660892,0.224264116
0.326615327,0.049341688,0.076675635,0.224267925
0.326573594,0.049328033,0.076690357,0.224271725
0.326531764,0.049314378,0.076705056,0.224275513
0.326489839,0.049300721,0.076719733,0.224279291
0.326447819,0.049287064,0.076734387,0.224283059
0.326405704,0.049273408,0.076749018,0.224286816
0.326363497,0.049259752,0.076763625,0.224290562
0.326321197,0.049246097,0.076778208,0.224294298
0.326278804,0.049232443,0.076792766,0.224298025
0.326236318,0.049218791,0.076807299,0.224301741
0.32619374,0.049205142,0.076821807,0.224305447
0.326151068,0.049191496,0.076836288,0.224309143
0.326108301,0.049177853,0.076850742,0.224312828
0.326065439,0.049164213,0.076865169,0.224316501
0.326022481,0.049150578,0.076879566,0.224320162
0.325979428,0.049136946,0.076893935,0.224323811
0.325936281,0.04912332,0.076908273,0.224327448
0.325893038,0.049109698,0.076922581,0.224331073
0.325849702,0.049096082,0.076936858,0.224334685
0.325806272,0.049082472,0.076951103,0.224338286
0.32576275,0.049068869,0.076965316,0.224341874
0.325719137,0.049055274,0.076979496,0.22434545
0.325675434,0.049041687,0.076993642,0.224349014
0.32563164,0.049028108,0.077007754,0.224352566
0.325587756,0.049014539,0.077021831,0.224356106
0.325543782,0.049000979,0.077035872,0.224359633
0.325499718,0.04898743,0.077049877,0.224363147
0.325455561,0.048973892,0.077063844,0.224366649
0.325411311,0.048960364,0.077077773,0.224370137
0.325366967,0.048946849,0.077091662,0.224373611
0.325322527,0.048933345,0.077105511,0.22437707
0.325277991,0.048919853,0.077119319,0.224380515
0.325233359,0.048906374,0.077133085,0.224383944
0.325188629,0.048892908,0.077146809,0.224387358
0.325143803,0.048879455,0.077160489,0.224390756
0.325098879,0.048866016,0.077174125,0.22439414
0.325053857,0.048852591,0.077187716,0.224397508
0.325008737,0.048839179,0.077201261,0.22440086
0.32496352,0.048825783,0.077214759,0.224404197
0.324918204,0.048812401,0.077228209,0.224407519
0.324872791,0.048799035,0.07724161,0.224410825
0.324827278,0.048785684,0.077254961,0.224414116
0.324781666,0.04877235,0.077268261,0.224417391
0.324735954,0.048759032,0.077281509,0.224420651
0.324690142,0.04874573,0.077294704,0.224423895
0.324644229,0.048732446,0.077307844,0.224427122
0.324598214,0.048719178,0.077320928,0.224430333
0.324552099,0.048705928,0.077333956,0.224433526
0.324505883,0.048692695,0.077346927,0.224436702
0.32445957,0.04867948,0.077359839,0.224439859
0.324413161,0.048666282,0.077372692,0.224442999
0.324366656,0.048653103,0.077385485,0.224446121
0.324320058,0.048639941,0.077398218,0.224449225
0.324273369,0.048626797,0.07741089,0.224452311
0.324226588,0.048613672,0.0774235,0.224455379
0.324179719,0.048600566,0.077436048,0.224458429
0.324132762,0.048587479,0.077448532,0.224461462
0.324085717,0.048574411,0.077460952,0.224464477
0.324038585,0.048561362,0.077473308,0.224467474
0.323991366,0.048548333,0.077485598,0.224470454
0.323944061,0.048535324,0.077497821,0.224473417
0.323896669,0.048522335,0.077509978,0.224476362
0.32384919,0.048509365,0.077522066,0.224479288
0.323801625,0.048496416,0.077534084,0.224482195
0.323753977,0.048483487,0.077546033,0.224485083
0.323706247,0.048470578,0.07755791,0.224487951
0.323658437,0.04845769,0.077569715,0.2244908
0.323610551,0.048444822,0.077581447,0.224493629
0.323562591,0.048431974,0.077593106,0.224496438
0.323514559,0.048419147,0.077604689,0.224499228
0.323466459,0.048406341,0.077616198,0.224501998
0.323418294,0.048393556,0.07762763,0.22450475
0.323370067,0.048380792,0.077638984,0.224507482
0.32332178,0.04836805,0.077650261,0.224510196
0.323273436,0.048355329,0.077661458,0.224512891
0.323225037,0.048342631,0.077672574,0.224515567
0.323176585,0.048329954,0.077683611,0.224518226
0.323128083,0.0483173,0.077694565,0.224520866
0.323079531,0.048304668,0.077705437,0.224523488
0.323030932,0.048292059,0.077716227,0.224526091
0.322982287,0.048279473,0.077726932,0.224528675
0.322933598,0.048266909,0.077737554,0.224531239
0.322884868,0.048254369,0.077748091,0.224533783
0.322836101,0.048241851,0.077758542,0.224536309
0.3227873,0.048229357,0.077768909,0.224538816
0.322738469,0.048216886,0.07777919,0.224541304
0.322689609,0.048204439,0.077789385,0.224543773
0.322640726,0.048192015,0.077799494,0.224546223
0.322591821,0.048179616,0.077809515,0.224548656
0.322542898,0.048167241,0.07781945,0.22455107
0.322493959,0.048154891,0.077829297,0.224553466
0.322445006,0.048142565,0.077839056,0.224555844
0.322396042,0.048130264,0.077848727,0.224558206
0.322347066,0.048117987,0.077858308,0.224560549
0.322298081,0.048105736,0.077867801,0.224562875
0.322249086,0.04809351,0.077877203,0.224565183
0.322200083,0.04808131,0.077886515,0.224567472
0.322151073,0.048069135,0.077895735,0.224569742
0.322102058,0.048056986,0.077904865,0.224571993
0.32205304,0.048044863,0.077913902,0.224574224
0.322004022,0.048032765,0.077922849,0.224576437
0.321955008,0.048020693,0.077931703,0.22457863
0.321905999,0.048008647,0.077940466,0.224580804
0.321857,0.047996627,0.077949137,0.224582959
0.321808014,0.047984634,0.077957716,0.224585095
0.321759045,0.047972667,0.077966202,0.224587212
0.321710096,0.047960728,0.077974597,0.224589311
0.321661169,0.047948816,0.077982899,0.224591391
0.321612268,0.047936932,0.077991108,0.224593453
0.321563395,0.047925076,0.077999225,0.224595497
0.321514553,0.047913249,0.078007248,0.224597523
0.321465745,0.04790145,0.078015178,0.22459953
0.321416973,0.04788968,0.078023014,0.224601519
0.321368239,0.04787794,0.078030755,0.224603489
0.321319548,0.047866229,0.078038402,0.224605439
0.321270903,0.047854548,0.078045953,0.22460737
0.321222308,0.047842897,0.078053409,0.22460928
0.321173766,0.047831276,0.078060769,0.224611172
0.321125282,0.047819686,0.078068033,0.224613044
0.321076859,0.047808126,0.0780752,0.224614896
0.321028501,0.047796597,0.078082271,0.22461673
0.320980211,0.047785099,0.078089245,0.224618544
0.320931993,0.047773632,0.078096121,0.22462034
0.320883849,0.047762197,0.078102899,0.224622117
0.320835783,0.047750794,0.078109579,0.224623875
0.320787798,0.047739423,0.07811616,0.224625615
0.320739895,0.047728084,0.078122642,0.224627337
0.320692076,0.047716778,0.078129024,0.22462904
0.320644344,0.047705505,0.078135306,0.224630725
0.320596699,0.047694264,0.078141487,0.22463239
0.320549143,0.047683056,0.078147568,0.224634036
0.320501679,0.04767188,0.078153547,0.224635661
0.32045431,0.047660738,0.078159424,0.224637267
0.320407042,0.047649628,0.078165201,0.224638853
0.320359877,0.047638552,0.078170876,0.22464042
0.320312821,0.047627508,0.078176449,0.224641968
0.320265878,0.047616497,0.078181921,0.224643497
0.320219054,0.04760552,0.078187291,0.224645006
0.320172351,0.047594577,0.07819256,0.224646496
0.320125775,0.047583668,0.078197727,0.224647968
0.320079329,0.047572793,0.078202792,0.224649421
0.320033016,0.047561953,0.078207755,0.224650857
0.31998684,0.047551147,0.078212617,0.224652274
0.319940804,0.047540376,0.078217377,0.224653673
0.319894911,0.047529639,0.078222034,0.224655054
0.319849164,0.047518938,0.078226589,0.224656416
0.319803566,0.047508272,0.078231042,0.22465776
0.319758122,0.047497642,0.078235393,0.224659084
0.319712837,0.047487048,0.078239642,0.224660388
0.319667714,0.04747649,0.078243789,0.224661673
0.319622759,0.047465969,0.078247835,0.224662938
0.319577977,0.047455485,0.078251781,0.224664183
0.319533371,0.047445038,0.078255626,0.224665409
0.319488946,0.04743463,0.078259371,0.224666615
0.319444707,0.04742426,0.078263016,0.224667801
0.319400657,0.047413929,0.078266563,0.224668967
0.3193568,0.047403637,0.078270011,0.224670114
0.31931314,0.047393385,0.078273362,0.224671241
0.319269679,0.047383173,0.078276614,0.224672348
0.319226421,0.047373002,0.078279769,0.224673437
0.319183368,0.047362871,0.078282827,0.224674505
0.319140522,0.047352782,0.078285788,0.224675554
0.319097885,0.047342735,0.078288653,0.224676582
0.319055459,0.047332729,0.078291421,0.224677589
0.319013247,0.047322766,0.078294092,0.224678573
0.318971251,0.047312844,0.078296668,0.224679536
0.318929475,0.047302966,0.078299148,0.224680476
0.318887921,0.04729313,0.078301533,0.224681395
0.318846591,0.047283337,0.078303822,0.224682291
0.318805487,0.047273587,0.078306016,0.224683165
0.318764612,0.047263881,0.078308116,0.224684017
0.318723968,0.047254218,0.078310121,0.224684847
0.318683558,0.0472446,0.078312032,0.224685655
0.318643383,0.047235026,0.078313849,0.224686441
0.318603445,0.047225497,0.078315572,0.224687204
0.318563747,0.047216012,0.078317201,0.224687946
0.31852429,0.047206573,0.078318738,0.224688667
0.318485076,0.04719718,0.078320182,0.224689365
0.318446108,0.047187833,0.078321533,0.22469004
0.318407388,0.047178532,0.078322792,0.224690692
0.318368918,0.047169279,0.078323959,0.224691321
0.318330703,0.047160073,0.078325034,0.224691925
0.318292744,0.047150916,0.078326018,0.224692505
0.318255047,0.047141808,0.078326912,0.224693061
0.318217614,0.04713275,0.078327715,0.224693593
0.31818045,0.047123742,0.07832843,0.224694101
0.318143561,0.047114785,0.078329056,0.224694585
0.318106951,0.047105882,0.078329595,0.224695044
0.318070626,0.047097032,0.078330046,0.22469548
0.318034591,0.047088236,0.07833041,0.224695891
0.317998853,0.047079497,0.078330689,0.224696279
0.317963414,0.047070813,0.078330883,0.224696643
0.31792828,0.047062188,0.078330992,0.224696983
0.317893455,0.047053621,0.078331018,0.2246973
0.317858943,0.047045113,0.078330961,0.224697592
0.317824747,0.047036665,0.078330821,0.224697861
0.317790872,0.047028277,0.0783306,0.224698104
0.31775732,0.047019952,0.078330298,0.224698322
0.317724097,0.047011689,0.078329916,0.224698515
0.317691208,0.047003489,0.078329455,0.224698682
0.317658658,0.046995354,0.078328916,0.224698823
0.317626453,0.046987284,0.0783283,0.224698939
0.317594599,0.046979281,0.078327607,0.224699029
0.317563104,0.046971346,0.07832684,0.224699093
0.317531972,0.046963479,0.078325998,0.224699131
0.317501212,0.046955683,0.078325084,0.224699142
0.317470829,0.046947958,0.078324097,0.224699128
0.31744083,0.046940306,0.07832304,0.224699088
0.317411218,0.046932727,0.078321912,0.224699022
0.317381999,0.046925223,0.078320715,0.22469893
0.317353178,0.046917794,0.07831945,0.224698812
0.31732476,0.046910443,0.078318117,0.224698668
0.317296748,0.046903169,0.078316717,0.224698496
0.317269149,0.046895973,0.078315253,0.224698296
0.317241966,0.046888857,0.078313723,0.224698067
0.317215206,0.046881822,0.078312131,0.224697809
0.317188876,0.046874867,0.078310476,0.224697522
0.317162981,0.046867994,0.07830876,0.224697206
0.317137528,0.046861203,0.078306985,0.22469686
0.317112522,0.046854496,0.07830515,0.224696485
0.317087971,0.046847872,0.078303258,0.22469608
0.317063881,0.046841332,0.07830131,0.224695645
0.317040258,0.046834878,0.078299306,0.224695181
0.317017107,0.04682851,0.078297247,0.224694686
0.316994433,0.046822229,0.078295135,0.224694162
0.316972243,0.046816036,0.07829297,0.224693609
0.316950539,0.046809931,0.078290754,0.224693025
0.316929329,0.046803915,0.078288489,0.224692411
0.316908618,0.046797988,0.078286176,0.224691766
0.316888411,0.046792152,0.078283816,0.22469109
0.316868715,0.046786408,0.07828141,0.224690382
0.316849537,0.046780757,0.078278961,0.224689642
0.316830884,0.046775199,0.07827647,0.224688869
0.316812764,0.046769735,0.078273938,0.224688064
0.316795183,0.046764366,0.078271369,0.224687227
0.316778148,0.046759094,0.078268762,0.224686358
0.316761666,0.046753919,0.078266122,0.224685456
0.316745742,0.046748842,0.078263448,0.224684522
0.316730383,0.046743864,0.078260744,0.224683556
0.316715594,0.046738986,0.07825801,0.224682557
0.316701381,0.04673421,0.07825525,0.224681527
0.316687747,0.046729535,0.078252465,0.224680464
0.316674696,0.046724962,0.078249656,0.224679369
0.316662234,0.046720493,0.078246825,0.224678243
0.316650362,0.046716128,0.078243974,0.224677084
0.316639083,0.046711868,0.078241105,0.224675891
0.316628401,0.046707713,0.07823822,0.224674665
0.316618319,0.046703665,0.078235319,0.224673405
0.316608841,0.046699724,0.078232404,0.22467211
0.316599969,0.046695891,0.078229478,0.224670781
0.316591709,0.046692166,0.078226542,0.224669416
0.316584063,0.046688551,0.078223598,0.224668017
0.316577033,0.046685046,0.078220648,0.224666583
0.316570624,0.046681653,0.078217694,0.224665113
0.316564837,0.046678371,0.078214737,0.224663608
0.316559674,0.046675202,0.07821178,0.224662068
0.316555137,0.046672147,0.078208823,0.224660492
0.316551227,0.046669207,0.078205869,0.224658882
0.316547945,0.046666381,0.07820292,0.224657236
0.316545293,0.046663672,0.078199977,0.224655556
0.31654327,0.046661079,0.078197042,0.224653841
0.316541875,0.046658604,0.078194117,0.22465209
0.31654111,0.046656248,0.078191204,0.224650302
0.316540974,0.04665401,0.078188304,0.224648477
0.316541467,0.046651893,0.078185419,0.224646614
0.31654259,0.046649896,0.078182551,0.224644713
0.316544344,0.04664802,0.078179702,0.224642774
0.316546729,0.046646267,0.078176874,0.224640795
0.316549747,0.046644636,0.078174068,0.224638778
0.316553398,0.046643129,0.078171287,0.224636721
0.316557683,0.046641746,0.078168533,0.224634624
0.316562604,0.046640488,0.078165807,0.224632488
0.31656816,0.046639357,0.07816311,0.224630311
0.316574353,0.046638352,0.078160445,0.224628095
0.31658118,0.046637475,0.078157813,0.224625837
0.316588642,0.046636726,0.078155215,0.22462354
0.316596737,0.046636105,0.078152653,0.224621201
0.316605464,0.046635615,0.078150128,0.224618821
0.316614821,0.046635255,0.078147642,0.224616399
0.316624807,0.046635026,0.078145196,0.224613934
0.316635422,0.046634931,0.07814279,0.224611425
0.316646666,0.04663497,0.078140427,0.224608872
0.31665854,0.046635144,0.078138108,0.224606273
0.316671045,0.046635454,0.078135834,0.22460363
0.316684181,0.046635901,0.078133607,0.224600942
0.31669795,0.046636488,0.078131427,0.224598209
0.316712352,0.046637215,0.078129297,0.22459543
0.316727389,0.046638084,0.078127217,0.224592604
0.316743061,0.046639096,0.078125188,0.224589733
0.31675937,0.046640252,0.078123212,0.224586816
0.316776315,0.046641554,0.07812129,0.224583852
0.316793897,0.046643003,0.078119422,0.224580843
0.316812117,0.046644601,0.078117612,0.224577787
0.316830973,0.046646348,0.078115859,0.224574685
0.316850466,0.046648245,0.078114165,0.224571536
0.316870594,0.046650293,0.078112532,0.224568339
0.316891358,0.046652493,0.07811096,0.224565093
0.316912757,0.046654847,0.078109451,0.224561799
0.316934794,0.046657354,0.078108005,0.224558455
0.31695747,0.046660016,0.078106625,0.224555061
0.316980787,0.046662834,0.078105311,0.224551618
0.317004748,0.046665807,0.078104065,0.224548125
0.317029355,0.046668938,0.078102887,0.224544582
0.31705461,0.046672226,0.078101779,0.224540989
0.317080516,0.046675673,0.078100742,0.224537347
0.317107075,0.046679279,0.078099776,0.224533654
0.317134291,0.046683046,0.078098881,0.224529913
0.317162164,0.046686975,0.07809806,0.224526123
0.317190695,0.046691066,0.078097312,0.224522284
0.317219887,0.04669532,0.078096637,0.224518396
0.317249739,0.046699737,0.078096037,0.224514461
0.317280252,0.046704319,0.078095511,0.224510476
0.317311425,0.046709066,0.07809506,0.224506443
0.317343259,0.046713979,0.078094684,0.224502361
0.317375752,0.046719057,0.078094383,0.224498229
0.317408907,0.046724301,0.078094157,0.224494048
0.317442721,0.046729712,0.078094007,0.224489818
0.317477195,0.04673529,0.078093933,0.224485539
0.317512329,0.046741035,0.078093935,0.224481211
0.317548122,0.046746947,0.078094012,0.224476835
0.317584573,0.046753027,0.078094165,0.22447241
0.317621683,0.046759275,0.078094394,0.224467938
0.31765945,0.046765691,0.078094699,0.224463418
0.317697874,0.046772275,0.078095079,0.224458852
0.317736952,0.046779029,0.078095534,0.224454239
0.317776683,0.046785951,0.078096066,0.22444958
0.317817064,0.046793041,0.078096672,0.224444876
0.317858092,0.046800301,0.078097354,0.224440126
0.317899765,0.04680773,0.078098111,0.22443533
0.317942079,0.046815328,0.078098943,0.224430488
0.317985033,0.046823096,0.078099849,0.2244256
0.318028623,0.046831033,0.07810083,0.224420666
0.318072849,0.04683914,0.078101886,0.224415687
0.318117707,0.046847418,0.078103016,0.224410663
0.318163198,0.046855865,0.078104221,0.224405593
0.318209318,0.046864484,0.078105501,0.22440048
0.318256067,0.046873273,0.078106855,0.224395323
0.318303442,0.046882233,0.078108285,0.224390124
0.318351442,0.046891365,0.078109789,0.224384881
0.318400065,0.046900669,0.078111367,0.224379597
0.318449309,0.046910146,0.078113021,0.224374273
0.318499172,0.046919796,0.07811475,0.224368908
0.31854965,0.046929618,0.078116553,0.224363505
0.318600741,0.046939614,0.078118431,0.224358062
0.318652443,0.046949783,0.078120384,0.224352581
0.31870475,0.046960125,0.078122412,0.224347063
0.31875766,0.046970641,0.078124515,0.224341506
0.318811169,0.04698133,0.078126692,0.224335911
0.318865274,0.046992191,0.078128945,0.22433028
0.318919973,0.047003226,0.078131273,0.224324612
0.318975264,0.047014434,0.078133677,0.224318909
0.319031143,0.047025815,0.078136157,0.224313171
0.319087609,0.04703737,0.078138713,0.2243074
0.319144661,0.047049097,0.078141345,0.224301596
0.319202294,0.047060998,0.078144054,0.22429576
0.319260508,0.047073072,0.078146839,0.224289894
0.319319299,0.047085321,0.0781497,0.224284
0.319378663,0.047097743,0.078152638,0.224278077
0.319438598,0.04711034,0.078155652,0.224272128
0.319499099,0.047123111,0.078158742,0.224266153
0.319560161,0.047136056,0.078161908,0.224260154
0.319621782,0.047149175,0.078165149,0.224254131
0.319683956,0.047162469,0.078168467,0.224248086
0.319746679,0.047175937,0.07817186,0.224242017
0.319809949,0.047189578,0.078175328,0.224235926
0.319873762,0.047203393,0.078178872,0.224229814
0.319938118,0.047217382,0.078182492,0.224223682
0.320003013,0.047231544,0.078186187,0.224217531
0.320068444,0.047245878,0.078189958,0.224211361
0.32013441,0.047260386,0.078193805,0.224205174
0.320200908,0.047275066,0.078197726,0.224198971
0.320267935,0.047289919,0.078201724,0.224192752
0.320335489,0.047304945,0.078205796,0.224186519
0.320403566,0.047320142,0.078209942,0.224180272
0.320472164,0.04733551,0.078214163,0.224174012
0.320541278,0.04735105,0.078218459,0.224167741
0.320610906,0.047366761,0.078222828,0.22416146
0.320681043,0.047382642,0.07822727,0.224155168
0.320751687,0.047398693,0.078231785,0.224148867
0.320822832,0.047414913,0.078236372,0.224142556
0.320894477,0.047431304,0.07824103,0.224136237
0.320966617,0.047447863,0.07824576,0.224129909
0.321039251,0.047464591,0.078250561,0.224123574
0.321112377,0.047481487,0.078255431,0.224117232
0.321185993,0.047498551,0.078260371,0.224110886
0.321260096,0.047515782,0.078265379,0.224104535
0.321334686,0.04753318,0.078270456,0.22409818
0.32140976,0.047550746,0.078275601,0.224091823
0.321485318,0.047568478,0.078280813,0.224085465
0.321561359,0.047586376,0.078286091,0.224079106
0.32163788,0.047604441,0.078291434,0.224072748
0.321714881,0.047622672,0.078296844,0.224066391
0.321792358,0.047641068,0.078302318,0.224060037
0.32187031,0.047659629,0.078307857,0.224053687
0.321948733,0.047678355,0.07831346,0.224047341
0.322027624,0.047697245,0.078319126,0.224040999
0.322106983,0.047716299,0.078324854,0.224034662
0.322186807,0.047735516,0.078330644,0.224028331
0.322267098,0.047754896,0.078336495,0.224022005
0.322347856,0.047774439,0.078342407,0.224015687
0.322429081,0.047794145,0.07834838,0.224009378
0.322510776,0.047814012,0.078354413,0.224003078
0.322592941,0.04783404,0.078360506,0.223996789
0.322675578,0.04785423,0.078366659,0.223990513
0.322758689,0.04787458,0.078372871,0.223984251
0.322842275,0.047895092,0.078379141,0.223978005
0.322926337,0.047915763,0.07838547,0.223971778
0.323010878,0.047936596,0.078391858,0.223965569
0.323095897,0.047957588,0.078398303,0.223959382
0.323181397,0.04797874,0.078404806,0.223953216
0.323267379,0.048000052,0.078411365,0.223947073
0.323353844,0.048021523,0.078417982,0.223940954
0.323440793,0.048043154,0.078424654,0.223934858
0.323528226,0.048064943,0.078431381,0.223928786
0.323616145,0.04808689,0.078438163,0.223922739
0.323704552,0.048108995,0.078444999,0.223916717
0.32379345,0.048131256,0.078451889,0.223910721
0.323882839,0.048153675,0.078458833,0.223904752
0.323972722,0.048176249,0.078465831,0.22389881
0.3240631,0.048198978,0.078472881,0.223892897
0.324153975,0.048221863,0.078479983,0.223887014
0.324245349,0.048244903,0.078487138,0.22388116
0.324337221,0.048268096,0.078494344,0.223875337
0.324429593,0.048291444,0.078501601,0.223869547
0.324522463,0.048314944,0.078508908,0.223863789
0.324615832,0.048338598,0.078516264,0.223858066
0.324709699,0.048362403,0.07852367,0.223852378
0.324804063,0.04838636,0.078531124,0.223846724
0.324898924,0.048410467,0.078538625,0.223841107
0.32499428,0.048434725,0.078546173,0.223835525
0.325090132,0.048459133,0.078553767,0.22382998
0.325186481,0.048483689,0.078561406,0.223824471
0.325283326,0.048508395,0.078569091,0.223818999
0.325380669,0.048533249,0.078576821,0.223813566
0.325478512,0.048558251,0.078584595,0.223808171
0.325576854,0.0485834,0.078592413,0.223802816
0.325675697,0.048608696,0.078600275,0.223797501
0.325775042,0.04863414,0.07860818,0.223792227
0.325874891,0.048659729,0.078616127,0.223786995
0.325975244,0.048685466,0.078624117,0.223781805
0.326076101,0.048711348,0.078632148,0.223776658
0.326177461,0.048737377,0.078640221,0.223771556
0.326279325,0.04876355,0.078648335,0.223766499
0.326381692,0.048789869,0.07865649,0.223761488
0.326484559,0.048816332,0.078664686,0.223756522
0.326587927,0.048842939,0.078672923,0.223751603
0.326691795,0.04886969,0.078681199,0.223746729
0.326796163,0.048896585,0.078689516,0.223741901
0.326901033,0.048923623,0.078697872,0.22373712
0.327006406,0.048950804,0.078706268,0.223732386
0.327112286,0.048978127,0.078714704,0.2237277
0.327218673,0.049005593,0.07872318,0.223723061
0.327325571,0.049033201,0.078731696,0.223718471
0.32743298,0.049060952,0.078740253,0.22371393
0.327540902,0.049088845,0.078748851,0.223709438
0.327649338,0.049116879,0.078757489,0.223704996
0.327758289,0.049145055,0.078766169,0.223700605
0.327867754,0.049173372,0.07877489,0.223696264
0.327977735,0.049201831,0.078783651,0.223691976
0.328088229,0.049230429,0.078792454,0.223687739
0.328199237,0.049259168,0.078801299,0.223683556
0.328310757,0.049288047,0.078810184,0.223679426
0.328422788,0.049317064,0.07881911,0.223675349
0.328535328,0.049346221,0.078828078,0.223671325
0.328648375,0.049375516,0.078837086,0.223667354
0.328761929,0.049404948,0.078846135,0.223663436
0.328875988,0.049434517,0.078855225,0.223659572
0.328990551,0.049464223,0.078864355,0.223655763
0.329105616,0.049494066,0.078873527,0.223652008
0.329221182,0.049524043,0.078882739,0.223648309
0.329337247,0.049554156,0.078891992,0.223644665
0.32945381,0.049584404,0.078901286,0.223641078
0.329570868,0.049614786,0.07891062,0.223637546
0.329688421,0.049645301,0.078919995,0.223634072
0.329806464,0.04967595,0.07892941,0.223630655
0.329924997,0.049706731,0.078938865,0.223627296
0.330044016,0.049737644,0.078948359,0.223623995
0.330163519,0.049768688,0.078957893,0.223620752
0.330283503,0.049799862,0.078967465,0.223617566
0.330403966,0.049831167,0.078977076,0.223614437
0.330524908,0.049862602,0.078986725,0.223611365
0.330646328,0.049894165,0.078996412,0.22360835
0.330768225,0.049925857,0.079006137,0.223605391
0.330890599,0.049957677,0.0790159,0.223602489
0.331013448,0.049989625,0.0790257,0.223599644
0.331136774,0.0500217,0.079035537,0.223596857
0.331260577,0.050053901,0.079045412,0.223594127
0.331384857,0.050086229,0.079055323,0.223591455
0.331509615,0.050118683,0.079065271,0.223588841
0.331634851,0.050151263,0.079075255,0.223586285
0.331760567,0.050183969,0.079085276,0.223583789
0.331886761,0.0502168,0.079095333,0.223581353
0.332013433,0.050249756,0.079105425,0.223578976
0.332140584,0.050282838,0.079115553,0.223576659
0.332268212,0.050316045,0.079125716,0.223574402
0.332396317,0.050349378,0.079135915,0.223572205
0.332524899,0.050382837,0.079146147,0.223570066
0.332653958,0.050416423,0.079156414,0.223567987
0.332783493,0.050450136,0.079166716,0.223565967
0.332913506,0.050483976,0.079177052,0.223564006
0.333043995,0.050517944,0.079187423,0.223562104
0.333174962,0.05055204,0.079197828,0.223560262
0.333306407,0.050586265,0.079208268,0.22355848
0.33343833,0.05062062,0.079218743,0.223556757
0.333570733,0.050655106,0.079229254,0.223555094
0.333703615,0.050689724,0.079239799,0.223553492
0.333836978,0.050724475,0.079250379,0.223551951
0.333970821,0.050759359,0.079260993,0.223550472
0.334105143,0.050794378,0.079271643,0.223549055
0.334239946,0.050829532,0.079282327,0.2235477
0.334375227,0.050864823,0.079293045,0.223546407
0.334510989,0.050900249,0.079303797,0.223545178
0.334647231,0.050935813,0.079314582,0.223544011
0.334783954,0.050971515,0.079325399,0.223542905
0.334921161,0.051007354,0.079336249,0.223541862
0.335058852,0.051043332,0.07934713,0.223540882
0.33519703,0.051079449,0.079358042,0.223539963
0.335335698,0.051115704,0.079368985,0.223539108
0.335474856,0.051152098,0.079379958,0.223538315
0.335614506,0.051188632,0.079390961,0.223537586
0.33575465,0.051225304,0.079401992,0.223536921
0.33589529,0.051262116,0.079413053,0.223536319
0.336036425,0.051299068,0.079424141,0.223535782
0.336178057,0.051336158,0.079435256,0.22353531
0.336320184,0.051373389,0.079446399,0.223534902
0.336462807,0.051410758,0.079457568,0.22353456
0.336605925,0.051448266,0.079468763,0.223534284
0.336749536,0.051485913,0.079479984,0.223534072
0.336893641,0.051523699,0.079491229,0.223533926
0.337038239,0.051561622,0.079502499,0.223533845
0.33718333,0.051599684,0.079513792,0.223533828
0.337328913,0.051637881,0.079525109,0.223533875
0.337474991,0.051676216,0.079536447,0.223533986
0.337621562,0.051714685,0.079547808,0.223534162
0.337768628,0.05175329,0.07955919,0.223534403
0.337916187,0.051792028,0.079570593,0.223534709
0.33806424,0.0518309,0.079582015,0.22353508
0.338212787,0.051869905,0.079593457,0.223535516
0.338361826,0.051909041,0.079604918,0.223536018
0.338511355,0.051948309,0.079616396,0.223536587
0.338661375,0.051987707,0.079627892,0.223537222
0.338811882,0.052027234,0.079639404,0.223537923
0.338962875,0.052066889,0.079650933,0.223538692
0.339114351,0.052106672,0.079662477,0.223539528
0.339266308,0.052146581,0.079674037,0.223540431
0.339418743,0.052186615,0.079685611,0.2235414
0.339571655,0.052226773,0.079697199,0.223542437
0.339725041,0.052267054,0.079708799,0.22354354
0.339878899,0.052307458,0.079720412,0.22354471
0.34003323,0.052347982,0.079732037,0.223545946
0.340188033,0.052388628,0.079743673,0.223547251
0.340343306,0.052429392,0.079755319,0.223548623
0.340499049,0.052470275,0.079766977,0.223550065
0.340655262,0.052511277,0.079778644,0.223551576
0.340811942,0.052552395,0.07979032,0.223553156
0.340969089,0.052593631,0.079802005,0.223554808
0.341126703,0.052634982,0.079813697,0.223556531
0.341284782,0.05267645,0.079825397,0.223558327
0.341443323,0.052718032,0.079837104,0.223560197
0.341602326,0.052759729,0.079848818,0.22356214
0.341761789,0.052801539,0.079860538,0.223564159
0.34192171,0.052843462,0.079872263,0.223566253
0.342082087,0.052885497,0.079883995,0.223568423
0.342242919,0.052927643,0.079895731,0.223570668
0.342404205,0.052969899,0.079907473,0.223572989
0.342565944,0.053012264,0.07991922,0.223575386
0.342728138,0.053054736,0.079930971,0.223577861
0.342890785,0.053097315,0.079942726,0.223580414
0.343053886,0.05314,0.079954486,0.223583046
0.34321744,0.053182789,0.079966249,0.223585758
0.343381448,0.053225682,0.079978016,0.22358855
0.343545908,0.053268677,0.079989786,0.223591424
0.343710818,0.053311775,0.080001559,0.223594379
0.343876176,0.053354974,0.080013335,0.223597418
0.344041981,0.053398272,0.080025113,0.223600541
0.344208228,0.053441669,0.080036893,0.223603749
0.344374914,0.053485164,0.080048674,0.223607042
0.344542036,0.053528755,0.080060456,0.223610421
0.344709589,0.053572442,0.080072238,0.223613886
0.344877569,0.053616223,0.080084021,0.223617437
0.345045972,0.053660097,0.080095803,0.223621074
0.345214792,0.053704063,0.080107584,0.223624797
0.345384027,0.053748119,0.080119365,0.223628607
0.345553673,0.053792264,0.080131144,0.223632504
0.345723727,0.053836498,0.080142922,0.223636488
0.345894184,0.053880818,0.080154699,0.223640561
0.346065043,0.053925224,0.080166475,0.223644722
0.346236301,0.053969716,0.08017825,0.223648971
0.346407954,0.054014291,0.080190024,0.22365331
0.346579998,0.05405895,0.080201796,0.223657739
0.346752429,0.05410369,0.080213566,0.223662258
0.346925242,0.05414851,0.080225334,0.223666868
0.347098432,0.054193409,0.080237101,0.223671569
0.347271991,0.054238386,0.080248866,0.223676362
0.347445916,0.05428344,0.080260628,0.223681247
0.347620198,0.054328568,0.080272389,0.223686223
0.347794834,0.054373769,0.080284147,0.223691291
0.347969816,0.054419042,0.080295902,0.22369645
0.34814514,0.054464384,0.080307656,0.223701701
0.348320801,0.054509796,0.080319407,0.223707043
0.348496794,0.054555274,0.080331156,0.223712477
0.348673114,0.054600818,0.080342903,0.223718003
0.348849756,0.054646426,0.080354649,0.223723622
0.349026716,0.054692096,0.080366393,0.223729333
0.349203989,0.054737827,0.080378136,0.223735137
0.34938157,0.054783617,0.080389877,0.223741034
0.349559455,0.054829465,0.080401618,0.223747025
0.349737636,0.054875367,0.080413357,0.223753109
0.349916108,0.054921324,0.080425095,0.223759288
0.350094863,0.054967332,0.080436831,0.223765561
0.350273894,0.05501339,0.080448566,0.223771929
0.350453192,0.055059496,0.080460299,0.223778391
0.350632749,0.055105648,0.080472031,0.223784947
0.350812557,0.055151844,0.08048376,0.223791597
0.350992609,0.055198084,0.080495487,0.22379834
0.351172897,0.055244363,0.080507212,0.223805178
0.351353416,0.055290682,0.080518934,0.223812109
0.35153416,0.055337037,0.080530654,0.223819134
0.351715123,0.055383426,0.080542372,0.223826255
0.351896299,0.055429849,0.080554086,0.22383347
0.352077683,0.055476303,0.080565798,0.223840781
0.352259268,0.055522787,0.080577507,0.223848188
0.352441049,0.055569299,0.080589213,0.223855691
0.35262302,0.055615836,0.080600915,0.223863292
0.352805174,0.055662398,0.080612614,0.22387099
0.352987504,0.055708982,0.080624309,0.223878786
0.353170003,0.055755587,0.080636001,0.223886681
0.353352663,0.05580221,0.080647689,0.223894673
0.353535475,0.055848849,0.080659373,0.223902764
0.353718432,0.055895504,0.080671055,0.223910951
0.353901525,0.055942171,0.080682734,0.223919236
0.354084748,0.055988849,0.080694412,0.223927618
0.354268092,0.056035537,0.080706087,0.223936096
0.354451552,0.056082231,0.080717763,0.223944671
0.35463512,0.05612893,0.080729439,0.223953343
0.35481879,0.056175633,0.080741116,0.223962111
0.355002555,0.056222336,0.080752794,0.223970977
0.355186409,0.056269039,0.080764475,0.223979939
0.355370346,0.056315737,0.080776158,0.223988999
0.355554356,0.05636243,0.080787845,0.223998155
0.355738434,0.056409116,0.080799534,0.224007409
0.355922571,0.056455791,0.080811227,0.224016761
0.356106759,0.056502454,0.080822924,0.22402621
0.35629099,0.056549103,0.080834625,0.224035757
0.356475257,0.056595737,0.08084633,0.224045401
0.356659553,0.056642353,0.080858039,0.224055142
0.356843871,0.056688951,0.080869752,0.22406498
0.357028204,0.056735528,0.080881471,0.224074913
0.357212546,0.056782084,0.080893194,0.224084942
0.357396889,0.056828617,0.080904923,0.224095066
0.357581227,0.056875125,0.080916658,0.224105286
0.357765554,0.056921607,0.0809284,0.224115601
0.357949863,0.056968063,0.080940149,0.224126011
0.358134147,0.057014491,0.080951906,0.224136517
0.358318402,0.057060889,0.080963671,0.224147118
0.358502622,0.057107258,0.080975444,0.224157814
0.358686802,0.057153595,0.080987226,0.224168606
0.358870936,0.057199901,0.080999016,0.224179495
0.359055019,0.057246175,0.081010816,0.224190479
0.359239044,0.057292415,0.081022623,0.224201561
0.359423005,0.05733862,0.08103444,0.224212739
0.359606896,0.057384789,0.081046265,0.224224014
0.359790709,0.057430922,0.081058099,0.224235385
0.359974438,0.057477017,0.081069942,0.224246853
0.360158079,0.057523073,0.081081792,0.224258418
0.360341624,0.057569089,0.081093651,0.224270078
0.36052507,0.057615063,0.081105519,0.224281835
0.360708411,0.057660996,0.081117395,0.224293688
0.360891642,0.057706884,0.08112928,0.224305639
0.361074757,0.057752728,0.081141174,0.224317687
0.361257753,0.057798525,0.081153076,0.224329832
0.361440623,0.057844276,0.081164988,0.224342074
0.361623364,0.057889978,0.081176909,0.224354413
0.361805968,0.05793563,0.08118884,0.224366849
0.361988429,0.057981232,0.08120078,0.224379383
0.362170743,0.058026781,0.081212731,0.224392014
0.362352904,0.058072275,0.081224691,0.224404742
0.362534905,0.058117715,0.081236662,0.224417566
0.362716743,0.058163097,0.081248643,0.224430485
0.362898413,0.058208422,0.081260635,0.224443499
0.363079912,0.058253686,0.081272637,0.224456606
0.363261238,0.05829889,0.081284649,0.224469807
0.363442389,0.058344031,0.081296673,0.224483101
0.363623365,0.058389109,0.081308708,0.224496487
0.363804163,0.058434122,0.081320754,0.224509966
0.363984784,0.058479069,0.081332813,0.224523537
0.364165227,0.058523949,0.081344882,0.224537199
0.36434549,0.05856876,0.081356964,0.224550952
0.364525571,0.058613502,0.081369058,0.224564797
0.36470547,0.058658173,0.081381164,0.224578731
0.364885183,0.058702773,0.081393282,0.224592756
0.365064708,0.058747298,0.081405411,0.224606871
0.36524404,0.058791749,0.081417553,0.224621076
0.365423177,0.058836123,0.081429706,0.22463537
0.365602115,0.058880419,0.081441871,0.224649754
0.36578085,0.058924636,0.081454049,0.224664225
0.365959378,0.058968772,0.081466238,0.224678784
0.366137695,0.059012825,0.08147844,0.224693428
0.3663158,0.059056793,0.081490656,0.224708159
0.366493689,0.059100676,0.081502884,0.224722976
0.366671361,0.05914447,0.081515127,0.224737878
0.366848814,0.059188175,0.081527386,0.224752864
0.367026044,0.05923179,0.08153966,0.224767935
0.367203048,0.059275312,0.08155195,0.22478309
0.367379825,0.059318739,0.081564258,0.224798327
0.367556371,0.059362071,0.081576584,0.224813648
0.367732683,0.059405306,0.081588928,0.22482905
0.367908758,0.059448442,0.081601291,0.224844535
0.36808459,0.059491476,0.081613673,0.224860101
0.368260177,0.059534409,0.081626076,0.224875748
0.368435513,0.059577237,0.081638498,0.224891477
0.368610595,0.05961996,0.081650941,0.224907285
0.368785416,0.059662576,0.081663404,0.224923172
0.368959974,0.059705083,0.081675888,0.224939138
0.369134263,0.059747479,0.081688392,0.22495518
0.369308279,0.059789764,0.081700917,0.224971299
0.369482019,0.059831934,0.081713462,0.224987494
0.369655476,0.05987399,0.081726028,0.225003764
0.369828648,0.059915929,0.081738614,0.22502011
0.370001528,0.05995775,0.081751221,0.22503653
0.370174112,0.059999452,0.081763849,0.225053024
0.370346397,0.060041033,0.081776497,0.225069592
0.370518377,0.060082492,0.081789165,0.225086232
0.370690048,0.060123828,0.081801854,0.225102945
0.370861403,0.060165039,0.081814563,0.225119729
0.371032438,0.060206124,0.081827292,0.225136585
0.371203146,0.060247082,0.081840041,0.225153512
0.371373521,0.060287911,0.081852811,0.225170507
0.371543559,0.060328611,0.081865602,0.225187571
0.371713253,0.06036918,0.081878413,0.225204701
0.371882597,0.060409618,0.081891244,0.225221897
0.372051588,0.060449923,0.081904096,0.225239156
0.37222022,0.060490095,0.081916969,0.225256478
0.372388489,0.060530132,0.081929863,0.225273863
0.372556393,0.060570034,0.081942779,0.225291309
0.372723926,0.060609799,0.081955717,0.225308815
0.372891085,0.060649427,0.081968677,0.225326381
0.373057868,0.060688917,0.08198166,0.225344006
0.373224269,0.060728269,0.081994666,0.225361689
0.373390285,0.060767482,0.082007695,0.225379429
0.37355591,0.060806555,0.082020749,0.225397225
0.373721139,0.060845487,0.082033827,0.225415078
0.373885966,0.060884279,0.08204693,0.225432987
0.374050387,0.060922928,0.082060058,0.22545095
0.374214396,0.060961434,0.082073212,0.225468967
0.374377986,0.060999797,0.08208639,0.225487036
0.374541154,0.061038016,0.082099595,0.225505157
0.374703895,0.061076091,0.082112826,0.225523327
0.374866205,0.06111402,0.082126083,0.225541547
0.375028084,0.061151803,0.082139366,0.225559815
0.375189527,0.06118944,0.082152678,0.22557813
0.375350534,0.06122693,0.082166017,0.225596491
0.375511102,0.061264272,0.082179385,0.225614899
0.375671229,0.061301467,0.082192782,0.225633351
0.375830915,0.061338514,0.082206209,0.225651847
0.375990158,0.061375412,0.082219666,0.225670387
0.376148955,0.061412163,0.082233154,0.225688969
0.376307304,0.061448765,0.082246673,0.225707593
0.376465204,0.061485218,0.082260224,0.225726259
0.376622652,0.061521521,0.082273807,0.225744965
0.376779647,0.061557675,0.082287423,0.225763711
0.376936189,0.061593678,0.082301072,0.225782496
0.377092278,0.061629531,0.082314755,0.225801319
0.377247914,0.061665232,0.08232847,0.225820178
0.377403098,0.061700781,0.08234222,0.225839073
0.37755783,0.061736178,0.082356005,0.225858002
0.377712113,0.061771423,0.082369825,0.225876965
0.377865948,0.061806514,0.08238368,0.225895962
0.378019336,0.061841452,0.082397573,0.225914991
0.378172279,0.061876236,0.082411503,0.225934052
0.378324777,0.061910866,0.08242547,0.225953145
0.378476833,0.061945342,0.082439477,0.225972268
0.378628446,0.061979665,0.082453522,0.225991421
0.378779616,0.062013832,0.082467608,0.226010604
0.378930342,0.062047846,0.082481734,0.226029816
0.379080624,0.062081704,0.082495901,0.226049056
0.37923046,0.062115407,0.08251011,0.226068324
0.379379848,0.062148955,0.082524362,0.226087618
0.379528787,0.062182348,0.082538657,0.226106936
0.379677276,0.062215585,0.082552996,0.226126279
0.379825313,0.062248668,0.082567379,0.226145643
0.379972897,0.062281595,0.082581807,0.226165028
0.380120027,0.062314368,0.082596281,0.226184432
0.380266703,0.062346985,0.082610801,0.226203854
0.380412923,0.062379447,0.082625368,0.226223295
0.380558687,0.062411754,0.082639983,0.226242751
0.380703995,0.062443905,0.082654645,0.226262223
0.380848846,0.062475902,0.082669356,0.226281709
0.380993241,0.062507744,0.082684116,0.226301209
0.381137178,0.062539432,0.082698925,0.22632072
0.381280658,0.062570965,0.082713784,0.226340244
0.381423678,0.062602344,0.082728692,0.226359778
0.381566239,0.062633569,0.08274365,0.226379322
0.381708339,0.062664639,0.082758658,0.226398874
0.381849977,0.062695554,0.082773717,0.226418434
0.381991154,0.062726315,0.082788826,0.226438
0.382131869,0.062756921,0.082803985,0.22645757
0.382272124,0.062787373,0.082819195,0.226477143
0.382411923,0.06281767,0.082834456,0.226496717
0.382551267,0.062847811,0.082849767,0.226516292
0.382690163,0.062877798,0.08286513,0.226535866
0.382828612,0.062907629,0.082880544,0.226555438
0.382966619,0.062937305,0.082896009,0.226575008
0.383104186,0.062966825,0.082911527,0.226594574
0.383241318,0.062996189,0.082927096,0.226614135
0.383378015,0.063025398,0.082942718,0.22663369
0.383514282,0.063054451,0.082958392,0.226653239
0.383650118,0.063083348,0.082974119,0.22667278
0.383785525,0.063112089,0.082989897,0.226692314
0.383920505,0.063140674,0.083005727,0.226711838
0.384055057,0.063169103,0.083021609,0.226731354
0.38418918,0.063197374,0.083037542,0.226750858
0.384322875,0.063225488,0.083053526,0.22677035
0.384456141,0.063253444,0.083069562,0.226789829
0.384588978,0.063281242,0.083085647,0.226809294
0.384721384,0.063308881,0.083101783,0.226828743
0.38485336,0.06333636,0.08311797,0.226848177
0.384984906,0.06336368,0.083134207,0.226867593
0.38511602,0.06339084,0.083150495,0.226886993
0.385246704,0.063417839,0.083166834,0.226906374
0.385376956,0.063444677,0.083183222,0.226925736
0.385506776,0.063471353,0.083199662,0.226945078
0.385636164,0.063497868,0.083216151,0.2269644
0.385765117,0.063524221,0.08323269,0.226983701
0.385893635,0.063550411,0.083249279,0.227002981
0.386021714,0.063576438,0.083265918,0.227022238
0.386149354,0.063602301,0.083282606,0.227041472
0.386276551,0.063627999,0.083299344,0.227060682
0.386403301,0.063653533,0.083316132,0.227079866
0.386529603,0.063678903,0.083332969,0.227099022
0.386655452,0.063704106,0.083349857,0.227118151
0.386780846,0.063729144,0.083366794,0.227137249
0.386905781,0.063754016,0.083383781,0.227156316
0.387030257,0.063778721,0.08340082,0.227175352
0.38715427,0.06380326,0.083417909,0.227194355
0.387277818,0.063827631,0.08343505,0.227213325
0.3874009,0.063851834,0.083452242,0.22723226
0.387523512,0.063875868,0.083469486,0.22725116
0.387645651,0.063899734,0.083486783,0.227270023
0.387767316,0.063923432,0.083504132,0.22728885
0.387888501,0.063946959,0.083521533,0.22730764
0.388009203,0.063970317,0.083538988,0.227326391
0.388129419,0.063993505,0.083556496,0.227345103
0.388249143,0.064016523,0.083574057,0.227363775
0.388368371,0.064039369,0.083591673,0.227382407
0.388487098,0.064062043,0.083609343,0.227400996
0.388605318,0.064084545,0.083627069,0.227419541
0.388723027,0.064106875,0.083644849,0.227438042
0.38884022,0.06412903,0.083662685,0.227456497
0.388956895,0.064151011,0.083680578,0.227474905
0.389073048,0.064172816,0.083698527,0.227493267
0.389188676,0.064194446,0.083716533,0.22751158
0.389303775,0.0642159,0.083734598,0.227529845
0.389418342,0.064237175,0.08375272,0.22754806
0.389532373,0.064258273,0.083770901,0.227566225
0.389645865,0.064279193,0.08378914,0.22758434
0.389758813,0.064299932,0.083807438,0.227602403
0.389871214,0.064320492,0.083825795,0.227620414
0.389983061,0.06434087,0.08384421,0.227638373
0.390094351,0.064361067,0.083862685,0.22765628
0.390205077,0.064381081,0.083881218,0.227674134
0.390315233,0.064400911,0.083899809,0.227691934
0.390424814,0.064420557,0.083918459,0.22770968
0.390533815,0.064440018,0.083937166,0.22772737
0.39064223,0.064459292,0.083955931,0.227745004
0.390750057,0.064478379,0.083974752,0.227762581
0.390857291,0.064497278,0.083993631,0.227780102
0.390963928,0.064515988,0.084012567,0.227797566
0.391069965,0.064534508,0.084031559,0.227814973
0.391175398,0.064552838,0.084050607,0.227832323
0.391280226,0.064570976,0.08406971,0.227849615
0.391384446,0.064588922,0.084088869,0.227866851
0.391488054,0.064606677,0.084108082,0.227884029
0.391591049,0.064624239,0.084127349,0.227901151
0.391693426,0.064641608,0.08414667,0.227918215
0.391795181,0.064658783,0.084166044,0.227935222
0.391896312,0.064675764,0.084185472,0.227952172
0.391996814,0.064692551,0.084204952,0.227969064
0.392096683,0.064709142,0.084224484,0.227985897
0.392195915,0.064725538,0.084244069,0.228002671
0.392294505,0.064741738,0.084263705,0.228019384
0.392392452,0.064757741,0.084283393,0.228036036
0.392489752,0.064773547,0.084303132,0.228052626
0.392586403,0.064789156,0.084322923,0.228069154
0.392682401,0.064804566,0.084342764,0.228085621
0.392777743,0.064819777,0.084362656,0.228102025
0.392872427,0.064834788,0.084382598,0.228118365
0.39296645,0.0648496,0.084402589,0.228134643
0.393059807,0.064864211,0.08442263,0.228150858
0.393152495,0.064878622,0.08444272,0.228167009
0.393244511,0.064892833,0.084462857,0.228183097
0.39333585,0.064906841,0.084483043,0.228199122
0.393426509,0.064920648,0.084503275,0.228215084
0.393516484,0.064934253,0.084523555,0.228230981
0.393605772,0.064947656,0.084543881,0.228246815
0.393694368,0.064960858,0.084564254,0.228262584
0.393782269,0.064973857,0.084584672,0.228278287
0.393869474,0.064986654,0.084605136,0.228293924
0.393955979,0.06499925,0.084625645,0.228309494
0.394041785,0.065011645,0.084646198,0.228324997
0.394126888,0.065023839,0.084666796,0.228340433
0.39421129,0.065035833,0.084687439,0.228355802
0.394294988,0.065047626,0.084708126,0.228371104
0.394377983,0.065059219,0.084728858,0.228386337
0.394460275,0.065070614,0.084749634,0.228401503
0.394541864,0.06508181,0.084770454,0.228416601
0.39462275,0.065092808,0.084791318,0.228431631
0.394702934,0.06510361,0.084812225,0.228446593
0.394782414,0.065114215,0.084833175,0.228461488
0.39486119,0.065124624,0.084854167,0.228476315
0.394939263,0.065134837,0.084875202,0.228491074
0.395016632,0.065144856,0.084896278,0.228505765
0.395093299,0.065154681,0.084917396,0.228520387
0.395169264,0.065164313,0.084938554,0.228534941
0.39524453,0.065173752,0.084959752,0.228549425
0.395319101,0.065182998,0.084980989,0.228563839
0.39539298,0.065192054,0.085002266,0.228578184
0.395466171,0.065200918,0.085023581,0.228592459
0.395538676,0.065209593,0.085044934,0.228606665
0.395610499,0.065218078,0.085066325,0.228620801
0.395681644,0.065226374,0.085087753,0.228634869
0.395752114,0.065234484,0.085109217,0.228648868
0.395821912,0.065242406,0.085130717,0.228662798
0.395891043,0.065250143,0.085152252,0.22867666
0.395959508,0.065257696,0.085173821,0.228690453
0.39602731,0.065265064,0.085195424,0.22870418
0.396094452,0.06527225,0.085217059,0.228717839
0.396160936,0.065279253,0.085238726,0.22873143
0.396226764,0.065286075,0.085260424,0.228744953
0.39629194,0.065292718,0.085282152,0.228758407
0.396356463,0.065299181,0.085303909,0.228771792
0.396420339,0.065305466,0.085325694,0.228785107
0.396483569,0.065311574,0.085347507,0.228798352
0.396546156,0.065317506,0.085369346,0.228811527
0.396608104,0.065323261,0.085391212,0.228824631
0.396669415,0.065328842,0.085413102,0.228837666
0.396730092,0.06533425,0.085435018,0.22885063
0.396790139,0.065339485,0.085456957,0.228863523
0.396849559,0.065344548,0.08547892,0.228876345
0.396908354,0.06534944,0.085500905,0.228889097
0.396966527,0.065354163,0.085522911,0.228901777
0.39702408,0.065358716,0.085544939,0.228914386
0.397081014,0.065363101,0.085566986,0.228926925
0.397137332,0.065367319,0.085589052,0.228939391
0.397193034,0.06537137,0.085611136,0.228951786
0.397248121,0.065375254,0.085633236,0.228964109
0.397302593,0.065378973,0.085655353,0.228976358
0.397356451,0.065382526,0.085677484,0.228988534
0.397409698,0.065385916,0.08569963,0.229000635
0.397462335,0.06538914,0.085721789,0.229012663
0.397514366,0.065392202,0.085743961,0.229024616
0.397565791,0.065395099,0.085766145,0.229036494
0.397616614,0.065397833,0.08578834,0.229048299
0.397666836,0.065400405,0.085810546,0.229060029
0.397716459,0.065402814,0.085832762,0.229071685
0.397765486,0.065405062,0.085854985,0.229083267
0.397813917,0.065407148,0.085877217,0.229094775
0.397861754,0.065409073,0.085899455,0.229106209
0.397908999,0.065410838,0.085921698,0.22911757
0.397955652,0.065412443,0.085943946,0.229128859
0.398001715,0.065413888,0.085966197,0.229140074
0.398047191,0.065415174,0.08598845,0.229151217
0.398092082,0.065416302,0.086010704,0.229162286
0.398136393,0.065417271,0.086032957,0.229173283
0.398180129,0.065418083,0.086055209,0.229184207
0.398223295,0.065418738,0.086077459,0.229195057
0.398265896,0.065419236,0.086099706,0.229205835
0.398307938,0.065419579,0.086121949,0.229216539
0.398349425,0.065419768,0.086144188,0.229227172
0.398390365,0.065419802,0.086166421,0.229237732
0.398430761,0.065419684,0.086188649,0.22924822
0.398470619,0.065419413,0.08621087,0.229258636
0.398509943,0.06541899,0.086233083,0.22926898
0.398548738,0.065418416,0.086255288,0.229279252
0.398587009,0.065417692,0.086277483,0.229289453
0.398624759,0.065416818,0.086299668,0.229299582
0.398661993,0.065415795,0.086321843,0.22930964
0.398698715,0.065414623,0.086344005,0.229319627
0.39873493,0.065413303,0.086366154,0.229329542
0.39877064,0.065411835,0.086388288,0.229339383
0.398805851,0.065410221,0.086410407,0.229349151
0.398840567,0.065408459,0.086432509,0.229358845
0.398874793,0.065406552,0.086454595,0.229368465
0.398908535,0.0654045,0.086476662,0.22937801
0.398941798,0.065402303,0.08649871,0.22938748
0.398974589,0.065399962,0.086520738,0.229396876
0.399006915,0.065397478,0.086542747,0.229406196
0.399038782,0.065394851,0.086564734,0.229415441
0.399070198,0.065392082,0.086586699,0.229424609
0.399101167,0.065389172,0.086608641,0.229433702
0.399131695,0.06538612,0.08663056,0.229442719
0.399161787,0.065382927,0.086652456,0.22945166
0.399191448,0.065379593,0.086674326,0.229460525
0.399220682,0.065376119,0.086696172,0.229469313
0.399249493,0.065372505,0.086717992,0.229478025
0.399277884,0.065368751,0.086739787,0.229486659
0.399305859,0.065364857,0.086761555,0.229495214
0.399333421,0.065360823,0.086783296,0.229503691
0.399360575,0.06535665,0.08680501,0.229512089
0.399387326,0.065352338,0.086826698,0.229520407
0.399413678,0.065347886,0.086848359,0.229528646
0.399439636,0.065343296,0.086869993,0.229536805
0.399465207,0.065338568,0.086891601,0.229544885
0.399490393,0.065333702,0.086913183,0.229552885
0.3995152,0.065328698,0.08693474,0.229560804
0.39953963,0.065323557,0.08695627,0.229568643
0.399563688,0.06531828,0.086977776,0.229576402
0.399587377,0.065312865,0.086999256,0.229584081
0.399610698,0.065307315,0.087020711,0.229591679
0.399633656,0.065301628,0.08704214,0.229599197
0.399656254,0.065295807,0.087063545,0.229606634
0.399678493,0.065289849,0.087084924,0.22961399
0.399700378,0.065283758,0.087106278,0.229621262
0.399721909,0.065277532,0.087127607,0.229628451
0.399743092,0.065271172,0.087148911,0.229635556
0.399763927,0.065264679,0.08717019,0.229642575
0.399784419,0.065258052,0.087191445,0.229649509
0.399804571,0.065251294,0.087212675,0.229656357
0.399824385,0.065244403,0.087233881,0.229663118
0.399843864,0.06523738,0.087255063,0.229669793
0.399863012,0.065230227,0.087276221,0.229676379
0.399881831,0.065222943,0.087297356,0.229682878
0.399900325,0.065215529,0.087318467,0.229689289
0.399918497,0.065207986,0.087339554,0.229695612
0.399936349,0.065200314,0.087360618,0.229701846
0.399953883,0.065192514,0.087381657,0.229707992
0.399971102,0.065184585,0.087402672,0.229714048
0.399988006,0.065176529,0.087423663,0.229720016
0.400004597,0.065168346,0.087444628,0.229725893
0.400020876,0.065160036,0.087465568,0.22973168
0.400036845,0.065151601,0.087486481,0.229737376
0.400052508,0.065143039,0.087507369,0.229742979
0.400067865,0.065134353,0.087528229,0.22974849
0.400082922,0.065125542,0.087549063,0.229753909
0.400097679,0.065116607,0.08756987,0.229759235
0.400112141,0.065107549,0.087590649,0.229764468
0.400126309,0.065098367,0.087611401,0.229769608
0.400140186,0.065089064,0.087632124,0.229774654
0.400153775,0.065079639,0.087652819,0.229779607
0.400167078,0.065070094,0.087673486,0.229784465
0.400180096,0.065060428,0.087694123,0.22978923
0.400192832,0.065050642,0.08771473,0.2297939
0.400205288,0.065040737,0.087735308,0.229798475
0.400217464,0.065030713,0.087755854,0.229802956
0.400229364,0.06502057,0.087776369,0.229807341
0.400240989,0.06501031,0.087796853,0.22981163
0.400252341,0.064999933,0.087817304,0.229815822
0.400263422,0.06498944,0.087837721,0.229819916
0.400274237,0.06497883,0.087858106,0.229823912
0.400284789,0.064968106,0.087878456,0.229827809
0.400295081,0.064957267,0.087898772,0.229831607
0.400305118,0.064946315,0.087919053,0.229835306
0.400314902,0.06493525,0.087939299,0.229838906
0.400324438,0.064924072,0.087959509,0.229842407
0.400333731,0.064912785,0.087979683,0.229845807
0.400342783,0.064901387,0.08799982,0.229849108
0.400351599,0.064889881,0.088019919,0.229852309
0.400360181,0.064878267,0.088039979,0.229855411
0.400368533,0.064866546,0.08806,0.229858413
0.400376658,0.064854719,0.08807998,0.229861315
0.400384557,0.064842788,0.088099919,0.229864117
0.400392234,0.064830753,0.088119816,0.229866819
0.40039969,0.064818615,0.088139668,0.22986942
0.400406928,0.064806377,0.088159475,0.229871919
0.400413949,0.064794038,0.088179236,0.229874316
0.400420757,0.0647816,0.088198949,0.22987661
0.400427353,0.064769063,0.088218614,0.229878802
0.400433741,0.06475643,0.08823823,0.229880891
0.400439923,0.064743702,0.088257795,0.229882876
0.4004459,0.064730878,0.088277308,0.229884759
0.400451673,0.064717961,0.088296769,0.229886539
0.400457245,0.064704952,0.088316176,0.229888215
0.400462617,0.064691853,0.088335528,0.229889788
0.400467791,0.064678663,0.088354824,0.229891257
0.400472769,0.064665385,0.088374062,0.229892624
0.400477551,0.06465202,0.088393242,0.229893889
0.400482138,0.064638568,0.088412362,0.22989505
0.40048653,0.064625031,0.088431421,0.229896109
0.400490727,0.06461141,0.088450417,0.229897064
0.400494729,0.064597706,0.088469348,0.229897916
0.400498535,0.064583919,0.088488213,0.229898664
0.400502144,0.064570051,0.08850701,0.229899307
0.400505557,0.064556102,0.088525738,0.229899845
0.400508774,0.064542073,0.088544395,0.229900279
0.400511796,0.064527965,0.08856298,0.229900608
0.400514623,0.064513779,0.088581491,0.229900833
0.400517257,0.064499515,0.088599927,0.229900954
0.400519698,0.064485174,0.088618286,0.22990097
0.400521946,0.064470758,0.088636566,0.229900882
0.400524003,0.064456267,0.088654767,0.22990069
0.400525867,0.064441702,0.088672887,0.229900393
0.400527539,0.064427064,0.088690924,0.229899993
0.400529016,0.064412353,0.088708878,0.229899489
0.400530299,0.064397571,0.088726748,0.229898881
0.400531384,0.064382717,0.088744532,0.229898168
0.400532272,0.064367793,0.088762228,0.229897352
0.400532958,0.064352798,0.088779837,0.22989643
0.400533442,0.064337734,0.088797356,0.229895403
0.400533722,0.064322601,0.088814784,0.22989427
0.400533796,0.0643074,0.088832121,0.229893033
0.400533665,0.06429213,0.088849365,0.22989169
0.400533327,0.064276792,0.088866516,0.229890242
0.400532781,0.064261387,0.088883573,0.229888691
0.400532026,0.064245916,0.088900535,0.229887035
0.400531061,0.064230377,0.0889174,0.229885275
0.400529886,0.064214774,0.088934167,0.229883411
0.400528498,0.064199105,0.088950837,0.229881444
0.400526896,0.064183371,0.088967406,0.229879375
0.400525077,0.064167573,0.088983874,0.229877204
0.400523039,0.064151712,0.089000241,0.229874931
0.400520778,0.064135786,0.089016505,0.229872557
0.400518291,0.064119798,0.089032664,0.229870081
0.400515574,0.064103746,0.089048718,0.229867504
0.400512625,0.064087631,0.089064666,0.229864826
0.40050944,0.064071454,0.089080505,0.229862046
0.400506016,0.064055213,0.089096235,0.229859165
0.400502352,0.06403891,0.089111856,0.229856183
0.400498445,0.064022544,0.089127366,0.229853101
0.400494293,0.064006115,0.089142764,0.229849919
0.400489893,0.063989624,0.089158049,0.229846637
0.400485241,0.063973071,0.089173221,0.229843256
0.400480334,0.063956455,0.089188279,0.229839776
0.400475169,0.063939777,0.089203221,0.229836196
0.400469742,0.063923037,0.089218048,0.229832518
0.400464048,0.063906234,0.089232757,0.229828743
0.400458083,0.063889368,0.089247348,0.229824869
0.400451843,0.06387244,0.08926182,0.229820898
0.400445322,0.063855448,0.089276173,0.22981683
0.400438515,0.063838394,0.089290405,0.229812665
0.400431416,0.063821277,0.089304517,0.229808401
0.40042402,0.063804097,0.089318506,0.22980404
0.400416323,0.063786854,0.089332374,0.22979958
0.400408321,0.063769547,0.089346118,0.229795022
0.40040001,0.063752177,0.089359738,0.229790365
0.400391384,0.063734743,0.089373235,0.229785611
0.400382441,0.063717246,0.089386607,0.229780758
0.400373176,0.063699684,0.089399854,0.229775808
0.400363586,0.063682059,0.089412975,0.229770759
0.400353668,0.06366437,0.089425971,0.229765613
0.400343417,0.063646617,0.089438842,0.229760369
0.40033283,0.0636288,0.089451587,0.229755028
0.400321903,0.063610919,0.089464207,0.22974959
0.400310631,0.063592974,0.089476703,0.229744054
0.400299009,0.063574965,0.089489076,0.229738421
0.400287033,0.063556892,0.089501326,0.22973269
0.400274699,0.063538756,0.089513454,0.22972686
0.400262001,0.063520556,0.089525462,0.229720932
0.400248936,0.063502293,0.089537349,0.229714903
0.400235499,0.063483968,0.089549117,0.229708775
0.400221686,0.06346558,0.089560768,0.229702546
0.400207495,0.06344713,0.089572302,0.229696216
0.40019292,0.063428619,0.08958372,0.229689785
0.40017796,0.063410046,0.089595025,0.229683252
0.400162612,0.063391413,0.089606219,0.229676617
0.400146874,0.063372719,0.089617305,0.229669879
0.400130745,0.063353965,0.089628284,0.229663039
0.400114222,0.063335151,0.08963916,0.229656096
0.400097306,0.063316279,0.089649936,0.229649049
0.400079994,0.063297347,0.089660616,0.229641898
0.400062286,0.063278357,0.089671205,0.229634644
0.40004418,0.06325931,0.089681706,0.229627284
0.400025674,0.063240205,0.089692123,0.229619819
0.400006765,0.063221042,0.089702459,0.229612247
0.399987453,0.063201823,0.08971272,0.229604567
0.399967733,0.063182547,0.089722907,0.229596778
0.399947602,0.063163214,0.089733026,0.229588877
0.399927058,0.063143824,0.089743079,0.229580864
0.399906095,0.063124379,0.089753071,0.229572736
0.39988471,0.063104877,0.089763005,0.229564492
0.399862898,0.06308532,0.089772885,0.229556129
0.399840654,0.063065708,0.089782714,0.229547647
0.399817975,0.063046041,0.089792495,0.229539042
0.399794853,0.063026319,0.089802232,0.229530314
0.399771285,0.063006543,0.089811928,0.229521461
0.399747263,0.062986712,0.089821586,0.229512479
0.399722782,0.062966826,0.089831209,0.229503368
0.399697834,0.062946886,0.089840799,0.229494123
0.399672414,0.062926891,0.08985036,0.229484744
0.399646513,0.062906842,0.089859894,0.229475228
0.399620123,0.062886737,0.089869403,0.22946557
0.399593238,0.062866578,0.089878892,0.22945577
0.399565848,0.062846364,0.089888361,0.229445824
0.399537944,0.062826095,0.089897814,0.229435728
0.399509519,0.06280577,0.089907252,0.22942548
0.399480564,0.06278539,0.089916679,0.229415076
0.399451068,0.062764955,0.089926096,0.229404513
0.399421024,0.062744466,0.089935505,0.22939379
0.399390421,0.062723921,0.089944907,0.229382903
0.399359251,0.062703321,0.089954305,0.229371849
0.399327506,0.062682666,0.089963701,0.229360625
0.399295175,0.062661957,0.089973094,0.229349228
0.399262251,0.062641194,0.089982488,0.229337655
0.399228724,0.062620375,0.089991883,0.229325903
0.399194585,0.062599503,0.09000128,0.229313969
0.399159826,0.062578576,0.090010682,0.22930185
0.399124438,0.062557595,0.090020089,0.229289543
0.399088411,0.06253656,0.090029503,0.229277045
0.399051737,0.06251547,0.090038925,0.229264351
0.399014408,0.062494327,0.090048357,0.22925146
0.398976413,0.06247313,0.090057798,0.229238366
0.398937745,0.062451879,0.090067252,0.229225067
0.398898393,0.062430575,0.090076719,0.22921156
0.398858348,0.062409217,0.090086201,0.229197839
0.398817601,0.062387805,0.0900957,0.229183902
0.398776142,0.062366339,0.090105218,0.229169746
0.398733961,0.06234482,0.090114757,0.229155365
0.398691048,0.062323246,0.090124319,0.229140758
0.398647395,0.062301619,0.090133905,0.229125919
0.398602991,0.062279937,0.090143517,0.229110845
0.398557828,0.062258201,0.090153157,0.229095532
0.398511897,0.062236411,0.090162826,0.229079978
0.398465188,0.062214566,0.090172527,0.229064178
0.398417692,0.062192666,0.09018226,0.229048129
0.3983694,0.062170712,0.090192027,0.229031826
0.398320303,0.062148703,0.09020183,0.229015267
0.398270392,0.062126638,0.090211668,0.228998446
0.398219656,0.062104518,0.090221545,0.22898136
0.398168086,0.062082343,0.09023146,0.228964006
0.398115672,0.062060113,0.090241415,0.228946379
0.398062403,0.062037826,0.090251412,0.228928476
0.398008271,0.062015484,0.090261453,0.228910292
0.397953266,0.061993084,0.090271538,0.228891824
0.397897379,0.061970628,0.09028167,0.228873068
0.397840603,0.061948115,0.090291849,0.22885402
0.397782931,0.061925544,0.090302077,0.228834675
0.397724358,0.061902916,0.090312355,0.228815032
0.397664878,0.061880229,0.090322684,0.228795085
0.397604487,0.061857483,0.090333066,0.228774832
0.397543179,0.061834679,0.090343501,0.228754268
0.39748095,0.061811815,0.09035399,0.228733391
0.397417796,0.061788892,0.090364534,0.228712197
0.397353713,0.061765911,0.090375134,0.228690681
0.397288698,0.06174287,0.090385792,0.228668841
0.397222746,0.061719771,0.090396508,0.228646673
0.397155853,0.061696613,0.090407284,0.228624174
0.397088015,0.061673396,0.090418121,0.22860134
0.397019226,0.061650121,0.090429022,0.228578169
0.396949483,0.061626787,0.090439989,0.228554658
0.396878781,0.061603394,0.090451022,0.228530802
0.396807113,0.061579943,0.090462125,0.2285066
0.396734477,0.061556434,0.090473298,0.228482048
0.396660869,0.061532865,0.090484543,0.228457144
0.396586286,0.061509238,0.090495862,0.228431884
0.396510724,0.061485552,0.090507256,0.228406266
0.396434179,0.061461807,0.090518727,0.228380288
0.396356651,0.061438002,0.090530276,0.228353947
0.396278134,0.061414139,0.090541905,0.22832724
0.396198626,0.061390216,0.090553614,0.228300164
0.396118124,0.061366233,0.090565405,0.228272716
0.396036626,0.061342191,0.090577279,0.228244894
0.395954127,0.06131809,0.090589237,0.228216695
0.395870624,0.061293928,0.090601279,0.228188116
0.395786113,0.061269708,0.090613408,0.228159156
0.395700592,0.061245427,0.090625625,0.22812981
0.395614055,0.061221087,0.09063793,0.228100078
0.395526501,0.061196688,0.090650327,0.228069956
0.395437925,0.061172228,0.090662815,0.228039442
0.395348325,0.061147709,0.090675396,0.228008533
0.395257699,0.06112313,0.090688072,0.227977228
0.395166044,0.06109849,0.090700843,0.227945524
0.395073359,0.06107379,0.09071371,0.227913419
0.394979643,0.06104903,0.090726675,0.227880911
0.394884892,0.061024208,0.090739737,0.227847998
0.394789107,0.060999326,0.090752899,0.227814678
0.394692283,0.060974383,0.090766159,0.227780947
0.394594421,0.060949379,0.09077952,0.227746805
0.394495516,0.060924313,0.090792981,0.227712248
0.394395568,0.060899187,0.090806544,0.227677276
0.394294573,0.060873999,0.090820209,0.227641885
0.394192529,0.06084875,0.090833977,0.227606075
0.394089434,0.06082344,0.090847849,0.227569843
0.393985285,0.060798068,0.090861825,0.227533187
0.393880082,0.060772634,0.090875907,0.227496106
0.393773824,0.060747139,0.090890096,0.227458599
0.393666511,0.060721582,0.090904392,0.227420663
0.393558141,0.060695963,0.090918796,0.227382299
0.393448716,0.060670283,0.090933309,0.227343504
0.393338236,0.06064454,0.090947931,0.227304276
0.393226701,0.060618735,0.090962662,0.227264614
0.393114114,0.060592869,0.090977503,0.227224516
0.393000475,0.060566941,0.090992453,0.227183981
0.392885786,0.060540952,0.091007513,0.227143005
0.392770047,0.0605149,0.091022682,0.227101589
0.39265326,0.060488788,0.09103796,0.22705973
0.392535423,0.060462613,0.091053349,0.227017427
0.392416538,0.060436376,0.091068847,0.226974678
0.392296604,0.060410077,0.091084458,0.226931482
0.392175622,0.060383716,0.091100182,0.226887838
0.39205359,0.060357293,0.091116019,0.226843742
0.391930509,0.060330807,0.091131972,0.226799195
0.391806378,0.060304259,0.091148041,0.226754193
0.391681199,0.060277648,0.091164227,0.226708737
0.391554972,0.060250974,0.091180531,0.226662823
0.391427698,0.060224238,0.091196955,0.226616453
0.391299377,0.060197438,0.091213498,0.226569623
0.39117001,0.060170575,0.091230162,0.226522333
0.391039598,0.060143648,0.091246947,0.22647458
0.390908142,0.060116658,0.091263855,0.226426365
0.390775642,0.060089604,0.091280884,0.226377685
0.3906421,0.060062485,0.091298036,0.226328538
0.390507514,0.060035302,0.091315311,0.226278925
0.390371886,0.060008053,0.091332709,0.226228844
0.390235214,0.05998074,0.091350232,0.226178293
0.3900975,0.059953361,0.091367879,0.226127273
0.389958744,0.059925916,0.091385652,0.226075781
0.389818946,0.059898406,0.091403553,0.226023818
0.389678107,0.059870831,0.091421581,0.225971381
0.389536228,0.059843189,0.091439738,0.22591847
0.389393309,0.059815482,0.091458025,0.225865084
0.389249351,0.059787709,0.091476442,0.225811223
0.389104355,0.059759869,0.091494991,0.225756886
0.388958321,0.059731964,0.091513673,0.225702071
0.388811249,0.059703993,0.091532487,0.22564678
0.388663141,0.059675956,0.091551436,0.225591009
0.388513995,0.059647852,0.091570521,0.22553476
0.388363814,0.059619683,0.091589741,0.225478031
0.388212596,0.059591447,0.091609098,0.225420821
0.388060344,0.059563146,0.091628592,0.22536313
0.387907056,0.059534779,0.091648224,0.225304958
0.387752734,0.059506345,0.091667996,0.225246305
0.387597378,0.059477847,0.091687908,0.225187171
0.387440989,0.059449282,0.09170796,0.225127554
0.387283569,0.059420652,0.091728155,0.225067456
0.387125119,0.059391957,0.091748492,0.225006874
0.386965641,0.059363198,0.091768973,0.22494581
0.386805136,0.059334373,0.091789599,0.224884263
0.386643607,0.059305485,0.091810369,0.224822234
0.386481055,0.059276533,0.091831286,0.224759723
0.386317485,0.059247517,0.09185235,0.224696729
0.386152898,0.059218438,0.091873562,0.224633252
0.385987299,0.059189297,0.091894923,0.224569292
0.385820692,0.059160094,0.091916433,0.22450485
0.385653081,0.059130831,0.091938092,0.224439925
0.385484471,0.059101507,0.091959902,0.224374518
0.385314863,0.059072123,0.091981864,0.224308629
0.385144262,0.059042681,0.092003979,0.224242257
0.38497267,0.05901318,0.092026248,0.224175405
0.38480009,0.058983621,0.092048673,0.224108071
0.384626523,0.058954005,0.092071256,0.224040257
0.384451974,0.058924331,0.092093998,0.223971961
0.384276445,0.058894602,0.092116899,0.223903186
0.384099939,0.058864816,0.092139962,0.22383393
0.383922461,0.058834975,0.092163188,0.223764196
0.383744014,0.058805078,0.092186577,0.223693983
0.383564602,0.058775127,0.092210132,0.223623292
0.38338423,0.058745122,0.092233853,0.223552124
0.383202902,0.058715064,0.092257741,0.223480479
0.383020621,0.058684951,0.092281797,0.223408357
0.382837393,0.058654786,0.092306021,0.223335759
0.382653221,0.058624569,0.092330416,0.223262685
0.382468108,0.058594299,0.09235498,0.223189136
0.382282057,0.058563976,0.092379715,0.223115114
0.382095072,0.058533602,0.092404623,0.223040618
0.381907155,0.058503177,0.092429705,0.222965651
0.38171831,0.058472701,0.092454962,0.222890212
0.381528539,0.058442174,0.092480396,0.222814303
0.381337846,0.058411598,0.092506008,0.222737924
0.381146235,0.058380972,0.092531799,0.222661077
0.38095371,0.058350298,0.09255777,0.222583762
0.380760274,0.058319575,0.092583923,0.222505981
0.380565933,0.058288805,0.092610259,0.222427735
0.380370689,0.058257987,0.092636778,0.222349026
0.380174548,0.058227122,0.092663483,0.222269854
0.379977514,0.058196212,0.092690372,0.22219022
0.379779592,0.058165255,0.092717448,0.222110127
0.379580787,0.058134254,0.092744711,0.222029574
0.379381104,0.058103208,0.092772162,0.221948564
0.379180546,0.058072119,0.092799801,0.221867098
0.378979118,0.058040986,0.092827629,0.221785178
0.378776825,0.058009812,0.092855648,0.221702805
0.378573671,0.057978596,0.092883857,0.221619982
0.37836966,0.057947339,0.092912257,0.221536708
0.378164795,0.057916042,0.092940851,0.221452987
0.37795908,0.057884705,0.092969639,0.221368819
0.37775252,0.05785333,0.092998622,0.221284206
0.377545119,0.057821917,0.0930278,0.22119915
0.377336881,0.057790466,0.093057175,0.221113654
0.377127811,0.057758979,0.093086748,0.221027719
0.376917912,0.057727456,0.093116519,0.220941347
0.376707188,0.057695898,0.093146489,0.220854539
0.376495643,0.057664306,0.093176657,0.220767298
0.376283281,0.057632681,0.093207026,0.220679625
0.376070106,0.057601022,0.093237593,0.220591523
0.375856123,0.057569331,0.093268361,0.220502993
0.375641336,0.057537609,0.093299329,0.220414037
0.375425748,0.057505855,0.093330498,0.220324659
0.375209362,0.057474072,0.093361869,0.22023486
0.374992184,0.057442259,0.093393444,0.220144642
0.374774215,0.057410418,0.093425222,0.220054007
0.374555459,0.057378549,0.093457205,0.219962958
0.374335919,0.057346653,0.093489394,0.219871497
0.374115601,0.05731473,0.093521789,0.219779626
0.373894507,0.057282782,0.093554391,0.219687347
0.373672643,0.057250809,0.093587199,0.219594664
0.373450012,0.057218812,0.093620216,0.219501579
0.37322662,0.057186791,0.09365344,0.219408095
0.373002471,0.057154748,0.093686873,0.219314212
0.37277757,0.057122683,0.093720513,0.219219935
0.372551921,0.057090597,0.093754361,0.219125266
0.37232553,0.057058491,0.093788417,0.219030206
0.372098399,0.057026366,0.09382268,0.21893476
0.371870534,0.056994222,0.093857152,0.21883893
0.371641938,0.056962061,0.093891833,0.218742718
0.371412614,0.056929883,0.093926723,0.218646129
0.371182566,0.056897689,0.093961825,0.218549164
0.370951798,0.056865479,0.093997138,0.218451825
0.370720312,0.056833255,0.094032664,0.218354117
0.370488113,0.056801017,0.094068403,0.218256041
0.370255205,0.056768766,0.094104357,0.2181576
0.370021592,0.056736502,0.094140525,0.218058798
0.369787278,0.056704227,0.094176909,0.217959637
0.369552269,0.056671941,0.094213509,0.217860121
0.369316568,0.056639646,0.094250326,0.217760251
0.369080181,0.056607343,0.094287359,0.217660032
0.368843114,0.056575032,0.094324609,0.217559464
0.368605371,0.056542714,0.094362076,0.217458552
0.368366956,0.05651039,0.09439976,0.217357298
0.368127876,0.056478062,0.094437661,0.217255706
0.367888134,0.05644573,0.094475779,0.217153778
0.367647735,0.056413394,0.094514114,0.217051518
0.367406684,0.056381057,0.094552667,0.216948929
0.367164986,0.056348718,0.094591437,0.216846012
0.366922645,0.056316378,0.094630426,0.216742773
0.366679667,0.05628404,0.094669634,0.216639212
0.366436057,0.056251702,0.094709061,0.216535334
0.366191821,0.056219367,0.094748707,0.216431143
0.365946965,0.056187035,0.094788573,0.21632664
0.365701495,0.056154707,0.094828658,0.21622183
0.365455419,0.056122383,0.094868965,0.216116715
0.365208744,0.056090066,0.094909491,0.216011299
0.364961475,0.056057756,0.094950238,0.215905585
0.36471362,0.056025453,0.094991205,0.215799575
0.364465186,0.05599316,0.095032393,0.215693273
0.364216177,0.055960876,0.095073801,0.215586682
0.363966601,0.055928602,0.095115429,0.215479805
0.363716462,0.05589634,0.095157279,0.215372646
0.363465768,0.055864089,0.09519935,0.215265209
0.363214524,0.055831851,0.095241644,0.215157496
0.362962735,0.055799625,0.095284161,0.21504951
0.362710409,0.055767413,0.095326902,0.214941255
0.362457551,0.055735214,0.095369868,0.214832735
0.362204168,0.05570303,0.095413059,0.214723951
0.361950269,0.05567086,0.095456475,0.214614909
0.361695859,0.055638705,0.095500118,0.214505612
0.361440946,0.055606566,0.095543987,0.214396063
0.361185537,0.055574442,0.095588082,0.214286265
0.360929639,0.055542335,0.095632403,0.214176222
0.360673259,0.055510244,0.09567695,0.214065937
0.360416404,0.05547817,0.095721723,0.213955413
0.36015908,0.055446112,0.095766721,0.213844654
0.359901292,0.055414072,0.095811944,0.213733664
0.359643048,0.055382049,0.095857392,0.213622446
0.359384353,0.055350044,0.095903065,0.213511004
0.359125213,0.055318056,0.095948964,0.213399342
0.358865633,0.055286087,0.095995089,0.213287463
0.35860562,0.055254135,0.09604144,0.213175371
0.358345182,0.055222202,0.096088018,0.213063069
0.358084325,0.055190287,0.096134823,0.21295056
0.357823058,0.055158391,0.096181855,0.21283785
0.357561388,0.055126513,0.096229114,0.212724941
0.357299324,0.055094654,0.096276599,0.212611838
0.357036873,0.055062814,0.09632431,0.212498544
0.356774044,0.055030992,0.096372247,0.212385063
0.356510844,0.054999189,0.09642041,0.212271399
0.356247282,0.054967405,0.096468796,0.212157556
0.355983366,0.054935639,0.096517407,0.212043536
0.355719104,0.054903892,0.09656624,0.211929345
0.355454504,0.054872164,0.096615295,0.211814986
0.355189575,0.054840455,0.096664571,0.211700464
0.354924325,0.054808765,0.096714066,0.211585783
0.35465876,0.054777094,0.096763782,0.211470946
0.35439289,0.054745442,0.096813715,0.211355958
0.354126723,0.054713809,0.096863867,0.211240822
0.353860267,0.054682195,0.096914236,0.211125543
0.353593532,0.0546506,0.09696482,0.211010125
0.353326529,0.054619023,0.09701562,0.210894572
0.353059267,0.054587465,0.097066635,0.210778889
0.352791755,0.054555925,0.097117862,0.210663079
0.352524004,0.054524404,0.097169301,0.210547146
0.352256023,0.054492901,0.097220952,0.210431095
0.351987821,0.054461416,0.097272811,0.21031493
0.351719407,0.05442995,0.097324878,0.210198654
0.351450792,0.054398501,0.097377151,0.210082271
0.351181983,0.054367071,0.097429629,0.209965786
0.350912991,0.054335659,0.09748231,0.209849203
0.350643822,0.054304264,0.097535193,0.209732526
0.350374485,0.054272888,0.097588278,0.209615759
0.350104989,0.054241529,0.097641564,0.209498907
0.349835339,0.054210188,0.09769505,0.209381972
0.349565546,0.054178864,0.097748736,0.209264961
0.349295616,0.054147559,0.09780262,0.209147875
0.349025559,0.054116272,0.097856702,0.20903072
0.348755384,0.054085004,0.097910981,0.208913499
0.3484851,0.054053753,0.097965456,0.208796218
0.348214716,0.054022521,0.098020125,0.208678879
0.347944241,0.053991308,0.098074988,0.208561487
0.347673686,0.053960114,0.098130043,0.208444046
0.34740306,0.05392894,0.098185288,0.208326559
0.347132372,0.053897786,0.098240723,0.20820903
0.346861633,0.053866652,0.098296346,0.208091464
0.346590849,0.053835539,0.098352155,0.207973865
0.346320031,0.053804447,0.098408149,0.207856235
0.346049187,0.053773376,0.098464328,0.207738581
0.345778324,0.053742327,0.098520691,0.207620905
0.345507451,0.0537113,0.098577237,0.207503211
0.345236576,0.053680295,0.098633966,0.207385503
0.344965706,0.053649313,0.098690876,0.207267784
0.34469485,0.053618354,0.098747967,0.207150058
0.344424016,0.053587418,0.098805238,0.20703233
0.344153212,0.053556505,0.098862688,0.206914602
0.343882448,0.053525617,0.098920316,0.20679688
0.343611732,0.053494753,0.098978119,0.206679166
0.343341071,0.053463912,0.099036099,0.206561464
0.343070475,0.053433097,0.099094251,0.206443778
0.342799951,0.053402306,0.099152576,0.206326112
0.342529509,0.053371541,0.099211071,0.206208469
0.342259156,0.053340801,0.099269735,0.206090853
0.3419889,0.053310088,0.099328565,0.205973269
0.341718748,0.0532794,0.099387561,0.205855721
0.341448708,0.053248739,0.09944672,0.205738212
0.341178785,0.053218105,0.099506041,0.205620746
0.340908987,0.053187498,0.099565523,0.205503327
0.340639321,0.053156919,0.099625163,0.205385958
0.340369792,0.053126366,0.09968496,0.205268644
0.340100408,0.053095842,0.099744912,0.205151388
0.339831176,0.053065345,0.099805018,0.205034195
0.339562104,0.053034875,0.099865274,0.204917068
0.3392932,0.053004434,0.09992568,0.204800011
0.339024471,0.05297402,0.099986232,0.204683028
0.338755926,0.052943635,0.10004693,0.204566123
0.338487573,0.052913277,0.100107769,0.2044493
0.338219419,0.052882948,0.100168748,0.204332561
0.337951473,0.052852648,0.100229865,0.204215911
0.337683742,0.052822377,0.100291116,0.204099353
0.337416234,0.052792134,0.100352499,0.203982892
0.337148955,0.052761921,0.100414013,0.203866531
0.336881911,0.052731737,0.100475656,0.203750274
0.336615109,0.052701582,0.100537425,0.203634126
0.336348554,0.052671457,0.100599319,0.203518088
0.336082252,0.052641363,0.100661335,0.203402165
0.335816209,0.052611298,0.100723472,0.203286361
0.335550433,0.052581264,0.100785727,0.203170679
0.33528493,0.05255126,0.100848098,0.203055123
0.335019708,0.052521288,0.100910582,0.202939697
0.334754773,0.052491345,0.100973178,0.202824405
0.334490135,0.052461434,0.101035883,0.202709249
0.334225799,0.052431554,0.101098694,0.202594235
0.333961774,0.052401705,0.101161609,0.202479364
0.333698068,0.052371887,0.101224626,0.20236464
0.333434686,0.052342101,0.10128774,0.202250068
0.333171638,0.052312347,0.101350951,0.20213565
0.332908928,0.052282625,0.101414255,0.202021391
0.332646563,0.052252935,0.101477652,0.201907294
0.332384549,0.052223278,0.10154114,0.201793363
0.332122891,0.052193654,0.101604717,0.201679602
0.331861596,0.052164062,0.101668381,0.201566013
0.331600668,0.052134503,0.101732132,0.201452601
0.331340112,0.052104977,0.101795966,0.201339368
0.331079935,0.052075485,0.101859883,0.201226319
0.330820144,0.052046025,0.101923879,0.201113458
0.330560746,0.052016599,0.101987954,0.201000788
0.330301749,0.051987205,0.102052106,0.200888312
0.330043162,0.051957846,0.102116331,0.200776035
0.329784994,0.051928519,0.102180627,0.20066396
0.329527253,0.051899226,0.102244993,0.20055209
0.329269947,0.051869966,0.102309426,0.200440429
0.329013084,0.05184074,0.102373923,0.20032898
0.328756674,0.051811548,0.102438483,0.200217748
0.328500721,0.051782389,0.102503102,0.200106735
0.328245236,0.051753265,0.102567778,0.199995947
0.327990223,0.051724174,0.102632509,0.199885385
0.327735692,0.051695118,0.102697294,0.199775055
0.32748165,0.051666095,0.10276213,0.199664959
0.327228106,0.051637106,0.102827015,0.1995551
0.326975068,0.051608152,0.102891946,0.199445483
0.326722547,0.051579231,0.102956922,0.199336111
0.326470552,0.051550344,0.10302194,0.199226988
0.326219092,0.05152149,0.103086997,0.199118117
0.325968177,0.05149267,0.103152092,0.199009502
0.325717817,0.051463885,0.103217222,0.198901146
0.325468023,0.051435133,0.103282384,0.198793052
0.325218805,0.051406415,0.103347575,0.198685223
0.324970173,0.051377732,0.103412794,0.198577663
0.324722137,0.051349083,0.103478036,0.198470375
0.324474706,0.051320468,0.103543301,0.198363363
0.324227888,0.051291888,0.103608585,0.198256631
0.32398169,0.051263342,0.103673888,0.198150181
0.323736122,0.051234831,0.103739207,0.198044017
0.323491189,0.051206356,0.10380454,0.197938142
0.3232469,0.051177915,0.103869886,0.19783256
0.323003263,0.051149509,0.103935242,0.197727273
0.322760285,0.05112114,0.104000607,0.197622285
0.322517975,0.051092806,0.104065979,0.1975176
0.322276341,0.051064507,0.104131356,0.19741322
0.322035389,0.051036246,0.104196735,0.197309149
0.321795128,0.05100802,0.104262115,0.197205391
0.321555566,0.050979832,0.104327493,0.197101947
0.321316708,0.050951681,0.104392866,0.19699882
0.321078563,0.050923566,0.104458232,0.196896014
0.320841137,0.05089549,0.104523589,0.196793532
0.320604436,0.050867451,0.104588934,0.196691376
0.320368466,0.05083945,0.104654265,0.19658955
0.320133232,0.050811487,0.104719582,0.196488057
0.31989874,0.050783563,0.104784882,0.196386899
0.319664995,0.050755678,0.104850166,0.19628608
0.319432,0.050727832,0.104915431,0.196185601
0.319199759,0.050700027,0.104980678,0.196085466
0.318968278,0.050672261,0.105045904,0.195985678
0.31873756,0.050644536,0.105111109,0.195886238
0.31850761,0.050616852,0.10517629,0.195787151
0.318278432,0.05058921,0.105241448,0.19568842
0.318050032,0.050561609,0.10530658,0.195590046
0.317822413,0.05053405,0.105371686,0.195492032
0.31759558,0.050506533,0.105436762,0.195394381
0.317369538,0.05047906,0.105501809,0.195297096
0.317144291,0.050451631,0.105566824,0.195200178
0.316919843,0.050424246,0.105631805,0.195103631
0.316696199,0.050396906,0.10569675,0.195007458
0.316473361,0.050369612,0.105761659,0.194911661
0.316251333,0.050342363,0.10582653,0.194816243
0.316030117,0.050315162,0.105891361,0.194721207
0.315809715,0.050288007,0.105956152,0.194626556
0.31559013,0.0502609,0.106020903,0.19453229
0.315371364,0.050233842,0.10608561,0.194438414
0.315153419,0.050206833,0.106150275,0.19434493
0.314936298,0.050179873,0.106214895,0.194251839
0.314720004,0.050152963,0.106279469,0.194159146
0.314504538,0.050126103,0.106343997,0.194066853
0.314289903,0.050099295,0.106408477,0.193974961
0.314076099,0.050072539,0.106472908,0.193883473
0.313863129,0.050045835,0.106537287,0.193792392
0.313650994,0.050019184,0.106601615,0.193701719
0.313439696,0.049992586,0.106665888,0.193611456
0.313229234,0.049966042,0.106730106,0.193521607
0.313019611,0.049939552,0.106794266,0.193432174
0.312810827,0.049913118,0.106858369,0.193343159
0.312602882,0.049886739,0.106922413,0.193254564
0.312395778,0.049860417,0.106986396,0.193166391
0.312189516,0.049834151,0.107050318,0.193078643
0.311984097,0.049807944,0.107114178,0.192991321
0.311779522,0.049781796,0.107177975,0.192904428
0.311575792,0.049755707,0.107241707,0.192817965
0.311372908,0.049729679,0.107305373,0.192731934
0.311170872,0.049703712,0.107368973,0.192646338
0.310969685,0.049677808,0.107432505,0.192561179
0.310769346,0.049651967,0.107495967,0.192476459
0.310569858,0.049626191,0.107559358,0.192392178
0.310371221,0.04960048,0.107622677,0.192308339
0.310173439,0.049574835,0.107685922,0.192224944
0.309976511,0.049549258,0.107749091,0.192141994
0.30978044,0.04952375,0.107812184,0.19205949
0.309585226,0.04949831,0.107875198,0.191977436
0.30939087,0.049472942,0.107938134,0.191895833
0.309197373,0.049447644,0.108000991,0.191814683
0.309004735,0.04942242,0.10806377,0.191733986
0.308812959,0.04939727,0.108126471,0.191653746
0.308622046,0.049372194,0.108189093,0.191573962
0.308432001,0.049347196,0.108251638,0.191494638
0.308242827,0.049322275,0.108314104,0.191415774
0.308054527,0.049297434,0.108376492,0.191337374
0.307867103,0.049272673,0.108438801,0.191259438
0.30768056,0.049247994,0.108501033,0.191181967
0.3074949,0.049223398,0.108563186,0.191104965
0.307310127,0.049198887,0.10862526,0.191028431
0.307126244,0.049174462,0.108687255,0.190952367
0.306943255,0.049150126,0.108749171,0.190876775
0.306761165,0.049125878,0.108811005,0.190801657
0.306579976,0.049101723,0.108872759,0.190727014
0.306399694,0.04907766,0.10893443,0.190652847
0.30622032,0.049053691,0.10899602,0.19057916
0.306041859,0.049029818,0.109057528,0.190505952
0.305864312,0.049006042,0.109118954,0.190433226
0.305687684,0.048982365,0.109180298,0.190360982
0.305511977,0.048958789,0.10924156,0.190289223
0.305337195,0.048935314,0.10930274,0.190217949
0.305163341,0.048911943,0.109363837,0.190147163
0.304990418,0.048888676,0.109424851,0.190076866
0.30481843,0.048865514,0.109485783,0.190007061
0.30464738,0.04884246,0.10954663,0.189937747
0.304477273,0.048819514,0.109607394,0.189868927
0.304308112,0.048796678,0.109668073,0.189800602
0.304139901,0.048773953,0.109728665,0.189732774
0.303972644,0.048751341,0.109789171,0.189665443
0.303806345,0.048728842,0.109849589,0.189598612
0.303641006,0.048706459,0.109909919,0.189532281
0.303476632,0.048684193,0.10997016,0.189466454
0.303313223,0.048662045,0.110030312,0.189401131
0.303150784,0.048640016,0.110090374,0.189336314
0.302989316,0.048618109,0.110150346,0.189272005
0.302828821,0.048596323,0.110210228,0.189208203
0.302669302,0.048574662,0.110270019,0.189144912
0.302510761,0.048553125,0.110329719,0.189082132
0.3023532,0.048531715,0.110389328,0.189019865
0.302196622,0.048510433,0.110448845,0.188958112
0.302041027,0.04848928,0.110508269,0.188896875
0.301886418,0.048468258,0.1105676,0.188836154
0.301732795,0.048447368,0.110626836,0.188775951
0.30158016,0.048426611,0.110685978,0.188716267
0.301428514,0.048405989,0.110745023,0.188657103
0.301277858,0.048385502,0.110803971,0.188598459
0.301128192,0.048365152,0.110862821,0.188540337
0.300979518,0.04834494,0.110921572,0.188482738
0.300831835,0.048324867,0.110980225,0.188425664
0.300685144,0.048304935,0.111038778,0.188369115
0.300539445,0.048285144,0.111097232,0.188313093
0.30039474,0.048265495,0.111155587,0.188257599
0.300251029,0.048245989,0.111213841,0.188202633
0.300108314,0.048226628,0.111271996,0.188148197
0.299966597,0.048207412,0.111330049,0.188094292
0.29982588,0.048188342,0.111388001,0.188040919
0.299686165,0.048169419,0.111445851,0.187988079
0.299547453,0.048150644,0.111503597,0.187935774
0.299409746,0.048132017,0.11156124,0.187884004
0.299273045,0.048113539,0.111618779,0.18783277
0.299137351,0.048095212,0.111676211,0.187782072
0.299002666,0.048077036,0.111733536,0.187731912
0.29886899,0.048059013,0.111790753,0.18768229
0.298736324,0.048041142,0.111847861,0.187633207
0.298604669,0.048023425,0.111904859,0.187584664
0.298474025,0.048005863,0.111961745,0.187536662
0.298344391,0.047988457,0.11201852,0.187489202
0.298215768,0.047971207,0.112075183,0.187442283
0.298088155,0.047954115,0.112131733,0.187395908
0.297961553,0.047937182,0.11218817,0.187350075
0.297835963,0.047920407,0.112244494,0.187304786
0.297711385,0.047903792,0.112300703,0.187260042
0.297587822,0.047887338,0.112356797,0.187215843
0.297465276,0.047871044,0.112412776,0.18717219
0.297343747,0.047854913,0.112468638,0.187129084
0.297223239,0.047838944,0.112524383,0.187086524
0.297103754,0.047823139,0.11258001,0.18704451
0.296985294,0.047807497,0.112635517,0.187003044
0.296867864,0.047792021,0.112690904,0.186962125
0.296751463,0.047776711,0.112746169,0.186921754
0.296636095,0.047761568,0.112801311,0.186881931
0.296521761,0.047746591,0.11285633,0.186842658
0.296408462,0.047731784,0.112911223,0.186803934
0.296296198,0.047717145,0.112965992,0.186765759
0.296184969,0.047702676,0.113020634,0.186728135
0.296074778,0.047688377,0.113075148,0.186691061
0.295965625,0.04767425,0.113129535,0.186654537
0.295857511,0.047660296,0.113183792,0.186618565
0.295750439,0.047646514,0.113237919,0.186583143
0.29564441,0.047632905,0.113291915,0.186548274
0.295539426,0.047619471,0.113345779,0.186513957
0.29543549,0.047606212,0.113399509,0.186480191
0.295332602,0.047593129,0.113453105,0.186446978
0.295230767,0.047580223,0.113506565,0.186414316
0.295129986,0.047567494,0.113559887,0.186382206
0.295030261,0.047554944,0.11361307,0.186350648
0.294931595,0.047542573,0.113666112,0.186319641
0.294833988,0.047530381,0.113719014,0.186289186
0.29473744,0.047518371,0.113771774,0.186259284
0.294641954,0.047506541,0.113824392,0.186229933
0.294547528,0.047494894,0.113876869,0.186201133
0.294454163,0.04748343,0.113929204,0.186172885
0.294361858,0.047472148,0.113981396,0.186145188
0.294270616,0.047461051,0.114033446,0.186118042
0.294180436,0.047450139,0.114085353,0.186091446
0.294091318,0.047439412,0.114137117,0.1860654
0.294003265,0.047428871,0.114188737,0.186039905
0.293916276,0.047418516,0.114240213,0.18601496
0.293830352,0.047408349,0.114291545,0.185990564
0.293745495,0.04739837,0.114342732,0.185966717
0.293661704,0.047388579,0.114393773,0.185943418
0.293578978,0.047378977,0.114444668,0.185920666
0.293497319,0.047369565,0.114495414,0.185898461
0.293416723,0.047360343,0.114546013,0.185876803
0.293337191,0.047351312,0.114596463,0.185855692
0.29325872,0.047342471,0.114646763,0.185835126
0.293181308,0.047333823,0.114696913,0.185815105
0.293104955,0.047325366,0.114746914,0.185795629
0.293029657,0.047317102,0.114796764,0.185776696
0.292955413,0.047309031,0.114846463,0.185758305
0.292882222,0.047301153,0.114896011,0.185740457
0.292810082,0.047293469,0.114945407,0.18572315
0.292738992,0.047285979,0.11499465,0.185706384
0.29266895,0.047278684,0.11504374,0.185690158
0.292599955,0.047271583,0.115092677,0.185674472
0.292532006,0.047264677,0.115141458,0.185659323
0.292465101,0.047257967,0.115190084,0.185644713
0.29239924,0.047251453,0.115238554,0.185630638
0.29233442,0.047245135,0.115286866,0.185617099
0.292270641,0.047239014,0.115335018,0.185604095
0.2922079,0.04723309,0.115383012,0.185591625
0.292146196,0.047227362,0.115430844,0.185579689
0.292085525,0.047221832,0.115478515,0.185568285
0.292025886,0.0472165,0.115526024,0.185557413
0.291967277,0.047211366,0.115573371,0.185547071
0.291909696,0.047206429,0.115620553,0.18553726
0.291853144,0.047201691,0.115667572,0.185527978
0.29179762,0.04719715,0.115714425,0.185519223
0.291743125,0.047192808,0.115761112,0.185510997
0.29168966,0.047188664,0.115807633,0.185503296
0.291637224,0.047184718,0.115853986,0.185496122
0.291585818,0.047180971,0.11590017,0.185489472
0.291535443,0.047177422,0.115946184,0.185483346
0.291486099,0.047174072,0.115992027,0.185477742
0.291437786,0.047170921,0.116037697,0.185472658
0.291390503,0.047167968,0.116083194,0.185468095
0.291344251,0.047165213,0.116128516,0.185464049
0.291299028,0.047162657,0.116173662,0.185460522
0.291254833,0.047160299,0.116218633,0.18545751
0.291211666,0.047158139,0.116263427,0.185455014
0.291169523,0.047156176,0.116308045,0.185453032
0.291128402,0.047154411,0.116352486,0.185451563
0.291088302,0.047152843,0.11639675,0.185450605
0.291049221,0.047151471,0.116440837,0.185450158
0.291011158,0.047150296,0.116484746,0.185450219
0.290974112,0.047149316,0.116528476,0.185450789
0.290938083,0.047148531,0.116572027,0.185451865
0.290903069,0.04714794,0.116615398,0.185453447
0.290869071,0.047147543,0.116658588,0.185455534
0.290836088,0.047147339,0.116701595,0.185458124
0.290804119,0.047147328,0.11674442,0.185461215
0.290773164,0.047147508,0.116787061,0.185464806
0.290743222,0.047147879,0.116829516,0.185468896
0.290714293,0.04714844,0.116871785,0.185473483
0.290686375,0.047149191,0.116913867,0.185478566
0.290659468,0.04715013,0.116955762,0.185484145
0.290633568,0.047151258,0.11699747,0.185490217
0.290608675,0.047152574,0.117038989,0.185496781
0.290584786,0.047154076,0.11708032,0.185503836
0.2905619,0.047155765,0.117121463,0.185511379
0.290540016,0.047157639,0.117162417,0.18551941
0.290519133,0.047159697,0.117203182,0.185527927
0.290499251,0.047161939,0.117243756,0.185536928
0.290480369,0.047164364,0.117284141,0.185546413
0.290462487,0.047166971,0.117324335,0.18555638
0.290445605,0.047169759,0.117364337,0.185566826
0.290429722,0.047172727,0.117404146,0.18557775
0.290414837,0.047175875,0.117443762,0.185589151
0.29040095,0.047179202,0.117483184,0.185601027
0.290388061,0.047182706,0.117522411,0.185613375
0.290376166,0.047186388,0.117561441,0.185626195
0.290365267,0.047190245,0.117600275,0.185639486
0.29035536,0.047194278,0.117638911,0.185653246
0.290346445,0.047198484,0.117677349,0.185667472
0.290338519,0.047202864,0.117715589,0.185682165
0.290331582,0.047207416,0.11775363,0.185697321
0.290325634,0.047212139,0.11779147,0.185712939
0.290320675,0.047217033,0.117829111,0.185729019
0.290316705,0.047222096,0.11786655,0.185745558
0.290313724,0.047227327,0.117903786,0.185762556
0.290311733,0.047232726,0.11794082,0.18578001
0.290310731,0.047238292,0.11797765,0.18579792
0.290310718,0.047244023,0.118014276,0.185816283
0.290311695,0.047249919,0.118050695,0.185835097
0.290313661,0.047255978,0.118086907,0.185854361
0.290316616,0.047262201,0.11812291,0.185874073
0.29032056,0.047268585,0.118158704,0.185894232
0.290325491,0.047275131,0.118194288,0.185914835
0.290331409,0.047281837,0.118229663,0.185935882
0.290338312,0.047288703,0.118264827,0.185957371
0.290346198,0.047295726,0.118299782,0.1859793
0.290355067,0.047302907,0.118334527,0.186001668
0.290364916,0.047310244,0.118369063,0.186024472
0.290375746,0.047317736,0.11840339,0.186047711
0.290387556,0.047325382,0.118437508,0.186071383
0.290400347,0.04733318,0.118471416,0.186095487
0.290414119,0.047341129,0.118505116,0.186120021
0.290428875,0.047349229,0.118538607,0.186144984
0.290444615,0.047357479,0.118571889,0.186170373
0.290461343,0.047365877,0.118604963,0.186196187
0.290479061,0.047374422,0.118637827,0.186222422
0.29049777,0.047383114,0.118670483,0.186249078
0.290517473,0.047391951,0.118702929,0.186276152
0.290538171,0.047400933,0.118735166,0.186303643
0.290559864,0.047410059,0.118767194,0.186331548
0.290582555,0.047419327,0.118799013,0.186359866
0.290606242,0.047428736,0.118830624,0.186388595
0.290630927,0.047438286,0.118862027,0.186417733
0.290656609,0.047447975,0.118893222,0.186447276
0.290683288,0.047457803,0.118924211,0.186477225
0.290710966,0.047467767,0.118954994,0.186507575
0.290739642,0.047477867,0.11898557,0.186538326
0.290769317,0.047488102,0.11901594,0.186569475
0.290799991,0.047498471,0.119046105,0.186601021
0.290831664,0.047508972,0.119076064,0.186632962
0.290864336,0.047519605,0.119105817,0.186665294
0.290898007,0.047530368,0.119135365,0.186698016
0.290932676,0.047541261,0.119164706,0.186731126
0.290968342,0.047552282,0.119193842,0.186764621
0.291005006,0.047563431,0.11922277,0.186798499
0.291042664,0.047574705,0.119251493,0.186832758
0.291081315,0.047586105,0.119280009,0.186867396
0.291120957,0.047597629,0.119308319,0.186902411
0.291161587,0.047609275,0.119336423,0.186937801
0.291203203,0.047621043,0.119364322,0.186973564
0.291245802,0.047632932,0.119392015,0.187009696
0.291289383,0.04764494,0.119419504,0.187046197
0.291333944,0.047657067,0.119446788,0.187083064
0.291379485,0.047669311,0.119473868,0.187120294
0.291426003,0.047681671,0.119500744,0.187157887
0.291473498,0.047694146,0.119527415,0.187195839
0.291521968,0.047706735,0.119553882,0.187234149
0.291571411,0.047719437,0.119580145,0.187272813
0.291621825,0.047732251,0.119606204,0.18731183
0.29167321,0.047745176,0.119632058,0.187351196
0.291725561,0.04775821,0.119657706,0.187390911
0.291778877,0.047771353,0.119683149,0.18743097
0.291833154,0.047784604,0.119708388,0.187471373
0.29188839,0.047797962,0.119733422,0.187512117
0.291944578,0.047811425,0.119758254,0.1875532
0.292001717,0.047824992,0.119782884,0.187594619
0.292059801,0.047838663,0.119807313,0.187636373
0.292118826,0.047852436,0.119831543,0.187678457
0.292178788,0.04786631,0.119855575,0.187720871
0.292239684,0.047880283,0.119879408,0.187763612
0.292301511,0.047894355,0.119903045,0.187806678
0.292364264,0.047908525,0.119926487,0.187850067
0.29242794,0.047922791,0.119949733,0.187893776
0.292492534,0.047937151,0.119972785,0.187937803
0.292558043,0.047951605,0.119995643,0.187982145
0.292624462,0.047966152,0.120018307,0.188026799
0.292691788,0.04798079,0.120040779,0.188071765
0.292760016,0.047995518,0.120063059,0.188117038
0.292829141,0.048010335,0.120085147,0.188162617
0.29289916,0.04802524,0.120107045,0.1882085
0.292970065,0.048040231,0.120128753,0.188254684
0.293041852,0.048055308,0.120150272,0.188301168
0.293114515,0.048070469,0.120171604,0.188347948
0.293188047,0.048085714,0.120192749,0.188395022
0.293262442,0.04810104,0.12021371,0.188442387
0.293337696,0.048116448,0.120234486,0.188490042
0.293413801,0.048131935,0.120255079,0.188537983
0.293490754,0.048147501,0.120275491,0.188586208
0.293568547,0.048163144,0.12029572,0.188634716
0.293647174,0.048178863,0.12031577,0.188683504
0.29372663,0.048194656,0.120335639,0.188732568
0.293806907,0.048210523,0.120355329,0.188781908
0.293888,0.048226461,0.120374839,0.188831519
0.293969901,0.04824247,0.120394171,0.188881399
0.294052604,0.048258548,0.120413324,0.188931547
0.294136102,0.048274694,0.120432298,0.18898196
0.294220386,0.048290906,0.120451095,0.189032635
0.29430545,0.048307184,0.120469715,0.189083572
0.294391284,0.048323526,0.120488158,0.189134767
0.294477881,0.04833993,0.120506426,0.189186218
0.294565233,0.048356396,0.120524518,0.189237922
0.294653333,0.048372921,0.120542436,0.189289878
0.294742173,0.048389505,0.120560179,0.189342082
0.294831748,0.048406146,0.120577749,0.189394534
0.294922052,0.048422842,0.120595146,0.18944723
0.29501308,0.048439593,0.120612371,0.18950017
0.295104824,0.048456397,0.120629422,0.189553349
0.29519728,0.048473252,0.120646302,0.189606766
0.295290443,0.048490157,0.120663009,0.189660418
0.295384306,0.048507111,0.120679543,0.189714303
0.295478863,0.048524113,0.120695906,0.189768418
0.295574109,0.048541162,0.120712096,0.189822761
0.295670037,0.048558255,0.120728114,0.18987733
0.295766641,0.048575392,0.120743961,0.189932123
0.295863913,0.048592572,0.120759639,0.189987136
0.295961847,0.048609793,0.120775148,0.190042369
0.296060437,0.048627054,0.12079049,0.190097817
0.296159675,0.048644354,0.120805666,0.190153479
0.296259556,0.048661691,0.120820677,0.190209352
0.296360073,0.048679064,0.120835524,0.190265433
0.296461219,0.048696472,0.120850208,0.190321721
0.296562989,0.048713914,0.12086473,0.190378213
0.296665375,0.048731387,0.120879092,0.190434907
0.29676837,0.048748892,0.120893293,0.1904918
0.296871969,0.048766426,0.120907334,0.190548889
0.296976163,0.048783989,0.120921217,0.190606172
0.297080947,0.048801578,0.120934941,0.190663646
0.297186313,0.048819194,0.120948507,0.190721309
0.297292253,0.048836834,0.120961916,0.190779158
0.297398761,0.048854497,0.120975168,0.190837192
0.297505828,0.048872183,0.120988264,0.190895407
0.297613446,0.048889889,0.121001207,0.190953802
0.297721607,0.048907615,0.121013997,0.191012375
0.297830302,0.048925359,0.121026635,0.191071122
0.297939524,0.048943121,0.121039124,0.191130041
0.298049265,0.048960899,0.121051464,0.191189129
0.298159516,0.048978693,0.121063657,0.191248386
0.29827027,0.048996499,0.121075704,0.191307808
0.298381517,0.049014319,0.121087606,0.191367394
0.298493251,0.049032149,0.121099365,0.191427141
0.298605463,0.04904999,0.12111098,0.191487046
0.298718145,0.049067839,0.121122454,0.191547107
0.29883129,0.049085695,0.121133786,0.191607322
0.29894489,0.049103558,0.121144977,0.191667688
0.299058938,0.049121426,0.121156028,0.191728204
0.299173426,0.049139298,0.121166939,0.191788866
0.299288347,0.049157172,0.121177711,0.191849674
0.299403692,0.049175049,0.121188344,0.191910624
0.299519454,0.049192925,0.12119884,0.191971716
0.299635623,0.049210801,0.121209199,0.192032946
0.299752192,0.049228675,0.121219422,0.192094312
0.299869153,0.049246546,0.12122951,0.192155813
0.299986497,0.049264412,0.121239463,0.192217446
0.300104218,0.049282274,0.121249282,0.192279209
0.300222308,0.049300128,0.121258968,0.192341101
0.300340757,0.049317976,0.121268522,0.192403119
0.30045956,0.049335815,0.121277943,0.192465262
0.300578708,0.049353645,0.121287233,0.192527526
0.300698193,0.049371464,0.121296391,0.19258991
0.300818008,0.049389273,0.121305419,0.192652411
0.300938145,0.049407069,0.121314315,0.192715027
0.301058597,0.049424852,0.12132308,0.192777755
0.301179355,0.049442622,0.121331715,0.192840594
0.30130041,0.049460376,0.121340222,0.192903542
0.301421753,0.049478114,0.121348602,0.192966597
0.301543376,0.049495835,0.121356855,0.193029757
0.301665269,0.049513538,0.121364985,0.193093019
0.301787423,0.049531222,0.121372991,0.193156381
0.301909829,0.049548886,0.121380876,0.19321984
0.302032477,0.049566529,0.121388641,0.193283396
0.302155361,0.049584149,0.121396287,0.193347046
0.30227847,0.049601745,0.121403815,0.193410788
0.302401796,0.049619317,0.121411227,0.19347462
0.30252533,0.049636863,0.121418523,0.193538539
0.302649064,0.049654383,0.121425704,0.193602544
0.302772988,0.049671874,0.121432771,0.193666631
0.302897095,0.049689335,0.121439726,0.1937308
0.303021375,0.049706767,0.121446569,0.193795046
0.30314582,0.049724166,0.1214533,0.193859369
0.30327042,0.049741533,0.121459922,0.193923766
0.303395166,0.049758865,0.121466435,0.193988236
0.30352005,0.049776163,0.121472841,0.194052776
0.30364506,0.049793424,0.121479143,0.194117383
0.303770187,0.049810647,0.121485341,0.194182055
0.303895423,0.049827832,0.121491437,0.19424679
0.304020757,0.049844978,0.121497432,0.194311586
0.304146182,0.049862083,0.121503329,0.194376441
0.304271688,0.049879146,0.121509128,0.194441352
0.304397267,0.049896166,0.121514831,0.194506318
0.304522911,0.049913142,0.121520438,0.194571336
0.304648609,0.049930073,0.121525951,0.194636404
0.304774355,0.049946958,0.121531371,0.19470152
0.304900139,0.049963795,0.121536698,0.194766681
0.305025954,0.049980584,0.121541933,0.194831884
0.30515179,0.049997324,0.121547077,0.194897128
0.305277639,0.050014012,0.12155213,0.194962412
0.305403492,0.05003065,0.121557094,0.195027732
0.30552934,0.050047234,0.121561967,0.195093087
0.305655174,0.050063764,0.121566753,0.195158475
0.305780985,0.050080239,0.12157145,0.195223894
0.305906764,0.050096659,0.121576061,0.195289341
0.306032503,0.050113021,0.121580585,0.195354816
0.306158192,0.050129324,0.121585023,0.195420315
0.306283825,0.050145569,0.121589376,0.195485837
0.306409394,0.050161753,0.121593645,0.19555138
0.306534891,0.050177875,0.12159783,0.195616943
0.306660309,0.050193935,0.121601931,0.195682524
0.30678564,0.050209932,0.121605948,0.19574812
0.306910877,0.050225864,0.121609883,0.19581373
0.307036013,0.05024173,0.121613734,0.195879351
0.30716104,0.05025753,0.121617501,0.195944981
0.307285949,0.050273264,0.121621185,0.196010619
0.307410735,0.050288929,0.121624787,0.196076262
0.307535387,0.050304525,0.121628307,0.196141909
0.307659898,0.050320051,0.121631746,0.196207559
0.30778426,0.050335507,0.121635106,0.196273208
0.307908464,0.050350891,0.121638387,0.196338854
0.308032502,0.050366203,0.12164159,0.196404496
0.308156367,0.050381441,0.121644717,0.196470132
0.308280051,0.050396606,0.121647769,0.196535759
0.308403548,0.050411696,0.121650745,0.196601375
0.308526851,0.050426711,0.121653647,0.19666698
0.308649952,0.050441649,0.121656476,0.19673257
0.308772845,0.050456511,0.121659232,0.196798143
0.308895524,0.050471294,0.121661915,0.196863697
0.309017981,0.050486,0.121664527,0.19692923
0.309140211,0.050500626,0.121667067,0.196994739
0.309262206,0.050515173,0.121669535,0.197060223
0.309383958,0.050529638,0.121671933,0.197125678
0.309505462,0.050544023,0.12167426,0.197191104
0.309626709,0.050558325,0.121676518,0.197256498
0.309747692,0.050572545,0.121678708,0.197321858
0.309868403,0.050586681,0.121680831,0.197387182
0.309988835,0.050600732,0.121682888,0.197452469
0.310108981,0.050614698,0.121684881,0.197517715
0.310228834,0.050628578,0.12168681,0.197582919
0.310348389,0.050642371,0.121688677,0.19764808
0.310467638,0.050656076,0.121690482,0.197713195
0.310586577,0.050669693,0.121692228,0.197778263
0.310705198,0.050683221,0.121693913,0.197843282
0.310823497,0.050696659,0.12169554,0.197908249
0.310941466,0.050710007,0.12169711,0.197973163
0.311059101,0.050723263,0.121698621,0.198038021
0.311176394,0.050736428,0.121700076,0.198102821
0.311293339,0.0507495,0.121701475,0.198167562
0.311409929,0.050762479,0.121702817,0.198232241
0.311526158,0.050775363,0.121704104,0.198296858
0.311642018,0.050788151,0.121705337,0.198361409
0.311757504,0.050800844,0.121706515,0.198425894
0.311872609,0.050813439,0.121707641,0.198490309
0.311987326,0.050825936,0.121708714,0.198554654
0.312101651,0.050838334,0.121709735,0.198618926
0.312215578,0.050850632,0.121710705,0.198683124
0.312329104,0.050862829,0.121711624,0.198747245
0.312442226,0.050874925,0.121712493,0.198811288
0.312554937,0.050886918,0.121713313,0.198875253
0.312667236,0.050898807,0.121714083,0.198939135
0.312779118,0.050910591,0.121714805,0.199002934
0.31289058,0.05092227,0.121715478,0.199066648
0.313001617,0.050933843,0.121716103,0.199130274
0.313112226,0.050945308,0.121716678,0.19919381
0.313222402,0.050956664,0.121717206,0.199257255
0.313332142,0.050967912,0.121717685,0.199320608
0.313441439,0.050979049,0.121718118,0.199383865
0.313550289,0.050990074,0.121718505,0.199447026
0.313658686,0.051000988,0.121718849,0.199510089
0.313766627,0.051011788,0.121719149,0.199573051
0.313874105,0.051022473,0.121719408,0.199635911
0.313981117,0.051033043,0.121719627,0.199698666
0.31408766,0.051043497,0.121719806,0.199761316
0.314193728,0.051053833,0.121719947,0.199823858
0.314299318,0.05106405,0.121720052,0.199886291
0.314404426,0.051074149,0.12172012,0.199948614
0.314509048,0.051084127,0.121720154,0.200010823
0.314613181,0.051093983,0.121720153,0.200072917
0.31471682,0.051103718,0.121720119,0.200134895
0.314819962,0.051113329,0.121720052,0.200196753
0.314922603,0.051122817,0.121719952,0.200258492
0.31502474,0.05113218,0.121719821,0.200320108
0.315126367,0.051141416,0.12171966,0.2003816
0.315227482,0.051150527,0.12171947,0.200442967
0.315328079,0.051159509,0.121719252,0.200504208
0.315428155,0.051168364,0.121719008,0.20056532
0.315527706,0.051177088,0.12171874,0.200626301
0.31562673,0.051185683,0.121718449,0.20068715
0.315725222,0.051194146,0.121718136,0.200747865
0.315823182,0.051202478,0.121717803,0.200808445
0.315920605,0.051210676,0.121717451,0.200868889
0.316017491,0.05121874,0.121717081,0.200929194
0.316113837,0.05122667,0.121716695,0.20098936
0.316209639,0.051234464,0.121716293,0.201049384
0.316304896,0.051242121,0.121715876,0.201109266
0.316399605,0.051249641,0.121715445,0.201169002
0.316493762,0.051257023,0.121715,0.201228592
0.316587364,0.051264266,0.121714542,0.201288034
0.316680407,0.051271368,0.121714072,0.201347326
0.316772888,0.05127833,0.121713589,0.201406468
0.316864802,0.05128515,0.121713095,0.201465458
0.316956147,0.051291828,0.12171259,0.201524295
0.317046917,0.051298364,0.121712075,0.201582975
0.317137111,0.051304756,0.12171155,0.201641499
0.317226725,0.051311004,0.121711017,0.201699864
0.317315756,0.051317108,0.121710476,0.201758069
0.317404203,0.051323067,0.121709927,0.201816112
0.317492062,0.051328881,0.121709372,0.201873992
0.31757933,0.05133455,0.121708811,0.201931707
0.317666007,0.051340073,0.121708244,0.201989256
0.317752088,0.05134545,0.121707672,0.202046637
0.317837573,0.051350681,0.121707096,0.202103848
0.31792246,0.051355766,0.121706514,0.202160888
0.318006746,0.051360704,0.121705927,0.202217754
0.31809043,0.051365496,0.121705336,0.202274447
0.31817351,0.051370141,0.121704741,0.202330963
0.318255982,0.051374639,0.121704142,0.202387303
0.318337845,0.05137899,0.12170354,0.202443464
0.318419096,0.051383194,0.121702937,0.202499445
0.318499733,0.05138725,0.121702334,0.202555244
0.318579754,0.051391159,0.12170173,0.202610859
0.318659155,0.051394919,0.121701127,0.20266629
0.318737935,0.051398531,0.121700526,0.202721534
0.318816093,0.051401996,0.121699926,0.20277659
0.318893627,0.051405311,0.121699329,0.202831458
0.318970536,0.051408478,0.121698735,0.202886135
0.319046817,0.051411496,0.121698145,0.20294062
0.31912247,0.051414365,0.121697559,0.202994911
0.319197492,0.051417084,0.121696976,0.203049007
0.319271883,0.051419654,0.121696398,0.203102906
0.319345641,0.051422074,0.121695826,0.203156607
0.319418763,0.051424343,0.121695258,0.20321011
0.319491248,0.051426463,0.121694697,0.203263412
0.319563092,0.051428431,0.121694143,0.203316513
0.319634293,0.051430249,0.121693598,0.203369412
0.319704847,0.051431915,0.121693063,0.203422108
0.319774754,0.051433431,0.121692539,0.203474599
0.319844008,0.051434795,0.121692028,0.203526884
0.319912609,0.051436008,0.12169153,0.203578962
0.319980554,0.05143707,0.121691047,0.203630832
0.320047842,0.05143798,0.12169058,0.203682494
0.320114469,0.051438738,0.121690129,0.203733946
0.320180435,0.051439345,0.121689697,0.203785188
0.320245738,0.0514398,0.121689282,0.203836219
0.320310375,0.051440104,0.121688887,0.203887036
0.320374346,0.051440256,0.121688511,0.20393764
0.320437648,0.051440257,0.121688154,0.203988028
0.320500279,0.051440106,0.121687818,0.2040382
0.320562239,0.051439804,0.121687502,0.204088156
0.320623523,0.05143935,0.121687207,0.204137895
0.320684129,0.051438745,0.121686932,0.204187415
0.320744056,0.051437989,0.121686678,0.204236716
0.320803301,0.051437081,0.121686446,0.204285796
0.320861862,0.051436022,0.121686236,0.204334656
0.320919737,0.051434812,0.121686048,0.204383294
0.320976927,0.05143345,0.121685882,0.204431709
0.321033431,0.051431936,0.121685739,0.204479901
0.32108925,0.05143027,0.121685619,0.20452787
0.321144385,0.051428453,0.121685523,0.204575614
0.321198835,0.051426483,0.121685449,0.204623133
0.321252601,0.051424361,0.121685398,0.204670427
0.321305685,0.051422086,0.12168537,0.204717494
0.321358088,0.051419659,0.121685363,0.204764333
0.321409809,0.051417079,0.121685379,0.204810945
0.321460851,0.051414347,0.121685416,0.204857328
0.321511213,0.051411463,0.121685475,0.204903483
0.321560895,0.051408426,0.121685555,0.204949408
0.321609896,0.051405236,0.121685657,0.204995104
0.321658217,0.051401894,0.121685781,0.20504057
0.321705856,0.051398399,0.121685928,0.205085805
0.321752813,0.051394752,0.121686097,0.205130809
0.321799089,0.051390952,0.12168629,0.205175581
0.321844683,0.051387,0.121686505,0.20522012
0.321889596,0.051382895,0.121686744,0.205264426
0.321933828,0.051378638,0.121687007,0.205308499
0.321977379,0.051374228,0.121687293,0.205352339
0.322020249,0.051369666,0.121687603,0.205395944
0.322062438,0.051364952,0.121687936,0.205439315
0.322103947,0.051360085,0.121688293,0.20548245
0.322144776,0.051355067,0.121688673,0.205525348
0.322184925,0.051349896,0.121689077,0.20556801
0.322224395,0.051344574,0.121689504,0.205610436
0.322263184,0.0513391,0.121689956,0.205652625
0.322301291,0.051333475,0.121690432,0.205694576
0.322338717,0.051327698,0.121690934,0.205736291
0.32237546,0.051321769,0.121691463,0.205777767
0.322411518,0.05131569,0.121692019,0.205819005
0.322446892,0.051309459,0.121692603,0.205860004
0.322481581,0.051303078,0.121693215,0.205900763
0.322515583,0.051296545,0.121693857,0.205941284
0.322548899,0.051289862,0.121694527,0.205981565
0.322581529,0.051283028,0.121695226,0.206021607
0.322613472,0.051276043,0.121695955,0.206061409
0.322644729,0.051268908,0.121696714,0.206100972
0.3226753,0.051261623,0.121697502,0.206140293
0.322705185,0.051254188,0.121698319,0.206179373
0.322734385,0.051246603,0.121699166,0.206218213
0.322762898,0.051238869,0.121700041,0.20625681
0.322790725,0.051230985,0.121700945,0.206295167
0.322817865,0.051222951,0.121701877,0.206333283
0.322844317,0.051214769,0.121702837,0.206371157
0.322870082,0.051206437,0.121703825,0.20640879
0.322895157,0.051197957,0.121704841,0.206446183
0.322919544,0.051189329,0.121705886,0.206483333
0.322943242,0.051180553,0.121706958,0.206520243
0.322966252,0.051171629,0.121708059,0.206556911
0.322988577,0.051162557,0.121709187,0.206593338
0.323010218,0.051153338,0.121710343,0.206629525
0.323031176,0.051143972,0.121711528,0.206665471
0.323051452,0.051134459,0.121712739,0.206701178
0.32307105,0.051124799,0.121713978,0.206736644
0.323089969,0.051114993,0.121715243,0.206771869
0.323108213,0.05110504,0.121716534,0.206806854
0.323125783,0.051094943,0.12171785,0.2068416
0.323142681,0.051084699,0.121719191,0.206876105
0.323158907,0.051074311,0.121720556,0.206910371
0.323174463,0.051063779,0.121721945,0.206944398
0.323189349,0.051053102,0.121723357,0.206978187
0.323203566,0.05104228,0.121724795,0.207011736
0.323217114,0.051031316,0.121726256,0.207045047
0.323229994,0.051020207,0.121727741,0.207078119
0.323242208,0.051008955,0.121729251,0.207110953
0.323253756,0.050997561,0.121730784,0.207143549
0.323264641,0.050986023,0.121732342,0.207175907
0.323274864,0.050974343,0.121733923,0.207208027
0.323284427,0.050962521,0.121735528,0.207239911
0.323293333,0.050950556,0.121737156,0.207271557
0.323301582,0.05093845,0.121738806,0.207302966
0.323309178,0.050926201,0.121740479,0.207334138
0.323316121,0.050913812,0.121742173,0.207365073
0.323322415,0.050901281,0.121743888,0.207395771
0.323328061,0.050888609,0.121745624,0.207426233
0.323333059,0.050875797,0.12174738,0.207456459
0.323337413,0.050862844,0.121749158,0.20748645
0.32334112,0.050849752,0.121750956,0.207516206
0.323344184,0.050836519,0.121752777,0.207545727
0.323346603,0.050823147,0.121754619,0.207575013
0.323348379,0.050809635,0.121756483,0.207604065
0.323349514,0.050795984,0.12175837,0.207632882
0.323350008,0.050782195,0.121760278,0.207661466
0.323349863,0.050768267,0.121762208,0.207689817
0.323349082,0.050754201,0.12176416,0.207717935
0.323347667,0.050739996,0.121766133,0.20774582
0.32334562,0.050725654,0.121768127,0.207773474
0.323342944,0.050711174,0.121770142,0.207800896
0.323339642,0.050696557,0.121772176,0.207828086
0.323335717,0.050681803,0.12177423,0.207855044
0.323331171,0.050666912,0.121776301,0.207881772
0.323326007,0.050651885,0.121778389,0.207908269
0.323320227,0.050636721,0.121780493,0.207934536
0.323313832,0.050621422,0.121782613,0.207960574
0.323306824,0.050605986,0.121784747,0.207986383
0.323299205,0.050590415,0.121786896,0.208011963
0.323290978,0.050574708,0.121789057,0.208037315
0.323282143,0.050558866,0.121791232,0.20806244
0.323272704,0.050542889,0.121793418,0.208087337
0.323262664,0.050526777,0.121795615,0.208112008
0.323252027,0.05051053,0.121797823,0.208136453
0.323240795,0.050494148,0.12180004,0.208160674
0.323228971,0.050477631,0.121802266,0.20818467
0.323216559,0.05046098,0.1218045,0.208208441
0.323203561,0.050444195,0.12180674,0.208231988
0.32318998,0.050427276,0.121808986,0.208255312
0.323175818,0.050410223,0.121811237,0.208278413
0.323161078,0.050393037,0.121813491,0.208301291
0.323145762,0.050375717,0.121815747,0.208323947
0.323129869,0.050358263,0.121818006,0.208346382
0.323113403,0.050340677,0.121820267,0.208368596
0.323096363,0.050322957,0.121822529,0.208390591
0.32307875,0.050305104,0.121824793,0.208412365
0.323060566,0.050287118,0.121827057,0.208433921
0.323041811,0.050269,0.121829323,0.208455258
0.323022487,0.05025075,0.121831588,0.208476376
0.323002596,0.050232367,0.121833853,0.208497278
0.322982138,0.050213853,0.121836116,0.208517963
0.322961117,0.050195206,0.121838379,0.208538431
0.322939532,0.050176429,0.121840639,0.208558685
0.322917386,0.050157521,0.121842896,0.208578722
0.32289468,0.050138482,0.121845149,0.208598545
0.322871417,0.050119313,0.121847398,0.208618152
0.322847596,0.050100014,0.121849642,0.208637546
0.322823221,0.050080586,0.121851881,0.208656725
0.32279829,0.050061029,0.121854113,0.208675692
0.322772805,0.050041343,0.121856341,0.208694446
0.322746767,0.050021529,0.121858563,0.208712987
0.322720176,0.050001588,0.121860781,0.208731317
0.322693034,0.049981519,0.121862995,0.208749436
0.322665341,0.049961323,0.121865204,0.208767343
0.322637099,0.049941001,0.12186741,0.208785039
0.322608308,0.049920553,0.121869613,0.208802525
0.32257897,0.049899979,0.121871812,0.208819802
0.322549086,0.049879281,0.121874009,0.208836869
0.322518656,0.049858459,0.121876203,0.208853728
0.322487682,0.049837512,0.121878394,0.208870379
0.322456164,0.049816443,0.121880582,0.208886821
0.322424102,0.049795251,0.121882768,0.208903055
0.3223915,0.049773936,0.12188495,0.208919082
0.322358356,0.0497525,0.121887129,0.208934902
0.322324673,0.049730943,0.121889304,0.208950516
0.322290451,0.049709265,0.121891474,0.208965924
0.322255691,0.049687468,0.12189364,0.208981127
0.322220393,0.04966555,0.121895802,0.208996126
0.322184558,0.049643514,0.121897958,0.209010921
0.322148188,0.049621359,0.121900111,0.209025511
0.322111282,0.049599085,0.121902259,0.209039899
0.322073842,0.049576695,0.121904402,0.209054083
0.32203587,0.049554187,0.121906541,0.209068066
0.321997369,0.049531563,0.121908675,0.209081847
0.321958339,0.049508823,0.121910805,0.209095427
0.321918783,0.049485968,0.121912929,0.209108807
0.321878703,0.049462998,0.121915048,0.209121987
0.321838102,0.049439915,0.121917162,0.209134966
0.321796983,0.049416718,0.121919269,0.209147747
0.321755346,0.049393409,0.121921369,0.209160328
0.321713195,0.049369987,0.121923463,0.209172711
0.321670531,0.049346455,0.121925549,0.209184896
0.321627354,0.049322811,0.121927628,0.209196884
0.321583667,0.049299058,0.121929701,0.209208675
0.321539469,0.049275195,0.121931766,0.209220271
0.321494763,0.049251225,0.121933826,0.20923167
0.321449548,0.049227146,0.12193588,0.209242874
0.321403827,0.049202962,0.121937928,0.209253884
0.321357601,0.049178672,0.12193997,0.209264699
0.321310873,0.049154278,0.121942008,0.209275321
0.321263645,0.04912978,0.12194404,0.209285751
0.321215919,0.049105181,0.121946068,0.209295988
0.321167696,0.04908048,0.121948091,0.209306035
0.321118979,0.049055679,0.121950109,0.20931589
0.32106977,0.04903078,0.121952122,0.209325555
0.321020073,0.049005783,0.121954132,0.209335029
0.320969888,0.048980691,0.121956136,0.209344314
0.320919217,0.048955504,0.121958137,0.209353411
0.320868063,0.048930224,0.121960134,0.20936232
0.320816426,0.048904851,0.121962128,0.209371042
0.320764306,0.048879389,0.121964121,0.209379578
0.320711704,0.048853837,0.121966113,0.209387928
0.320658621,0.048828197,0.121968106,0.209396094
0.320605058,0.048802471,0.1219701,0.209404075
0.320551015,0.048776659,0.121972096,0.209411873
0.320496494,0.048750763,0.121974094,0.209419488
0.320441497,0.048724784,0.121976096,0.209426921
0.320386023,0.048698723,0.121978101,0.209434173
0.320330075,0.048672582,0.121980109,0.209441244
0.320273653,0.048646361,0.121982122,0.209448136
0.32021676,0.048620063,0.121984138,0.209454849
0.320159395,0.048593687,0.121986159,0.209461383
0.320101561,0.048567236,0.121988183,0.209467738
0.320043257,0.048540711,0.121990211,0.209473917
0.319984485,0.048514113,0.121992241,0.209479919
0.319925246,0.048487442,0.121994275,0.209485747
0.319865539,0.048460701,0.121996311,0.2094914
0.319805365,0.04843389,0.121998351,0.209496879
0.319744724,0.048407011,0.122000394,0.209502186
0.319683615,0.048380065,0.12200244,0.20950732
0.31962204,0.048353052,0.122004491,0.209512283
0.319559999,0.048325975,0.122006545,0.209517075
0.319497493,0.048298834,0.122008603,0.209521697
0.319434524,0.048271631,0.122010666,0.209526151
0.319371091,0.048244367,0.122012733,0.209530437
0.319307198,0.048217043,0.122014805,0.209534556
0.319242845,0.048189662,0.122016881,0.209538508
0.319178035,0.048162224,0.122018962,0.209542293
0.319112771,0.048134732,0.122021046,0.209545913
0.319047053,0.048107186,0.122023135,0.209549367
0.318980884,0.048079588,0.122025226,0.209552656
0.318914265,0.04805194,0.122027322,0.209555781
0.318847198,0.048024242,0.122029421,0.209558744
0.318779682,0.047996497,0.122031524,0.209561543
0.318711719,0.047968706,0.122033631,0.209564181
0.318643311,0.04794087,0.122035744,0.209566656
0.318574457,0.047912992,0.122037861,0.209568971
0.318505161,0.047885072,0.122039983,0.209571124
0.318435423,0.047857112,0.12204211,0.209573117
0.318365245,0.047829114,0.122044243,0.209574951
0.318294629,0.047801078,0.122046381,0.209576625
0.318223578,0.047773007,0.122048524,0.209578141
0.318152092,0.047744903,0.122050672,0.2095795
0.318080174,0.047716766,0.122052824,0.2095807
0.318007827,0.047688598,0.122054981,0.209581743
0.317935053,0.047660401,0.122057142,0.209582628
0.317861853,0.047632177,0.122059306,0.209583357
0.317788229,0.047603926,0.122061474,0.20958393
0.317714182,0.047575651,0.122063646,0.209584348
0.317639714,0.047547352,0.122065823,0.209584611
0.317564824,0.047519032,0.122068005,0.20958472
0.317489515,0.047490691,0.122070193,0.209584675
0.317413787,0.047462332,0.122072388,0.209584476
0.31733764,0.047433955,0.122074591,0.209584125
0.317261078,0.047405562,0.122076801,0.209583621
0.317184101,0.047377154,0.122079021,0.209582965
0.317106712,0.047348734,0.122081249,0.209582159
0.317028913,0.047320301,0.122083487,0.209581201
0.316950705,0.047291858,0.122085735,0.209580094
0.316872091,0.047263406,0.122087991,0.209578838
0.316793072,0.047234947,0.122090257,0.209577432
0.316713652,0.047206481,0.122092533,0.209575878
0.316633833,0.04717801,0.122094817,0.209574175
0.316553615,0.047149536,0.122097109,0.209572325
0.316473002,0.04712106,0.122099409,0.209570329
0.316391995,0.047092583,0.122101717,0.209568186
0.316310595,0.047064106,0.122104032,0.209565898
0.316228803,0.047035631,0.122106355,0.209563466
0.316146621,0.04700716,0.122108685,0.20956089
0.316064049,0.046978693,0.122111023,0.20955817
0.31598109,0.046950233,0.122113369,0.209555307
0.315897745,0.046921779,0.122115722,0.209552302
0.315814016,0.046893333,0.122118083,0.209549155
0.315729907,0.046864898,0.122120452,0.209545868
0.315645419,0.046836473,0.122122828,0.209542441
0.315560555,0.046808061,0.122125212,0.209538875
0.315475318,0.046779663,0.122127602,0.209535169
0.315389711,0.04675128,0.122129999,0.209531326
0.315303736,0.046722913,0.122132401,0.209527344
0.315217395,0.046694564,0.122134809,0.209523225
0.315130692,0.046666234,0.122137221,0.209518969
0.315043628,0.046637924,0.122139638,0.209514578
0.314956205,0.046609636,0.12214206,0.209510052
0.314868425,0.046581371,0.122144486,0.209505391
0.314780291,0.04655313,0.122146919,0.209500597
0.314691804,0.046524914,0.122149357,0.209495669
0.314602969,0.046496726,0.122151802,0.209490609
0.314513788,0.046468565,0.122154255,0.209485416
0.314424267,0.046440433,0.122156715,0.209480093
0.31433441,0.046412331,0.122159184,0.209474638
0.314244222,0.046384261,0.122161661,0.209469054
