processed_ch1,processed_ch2,processed_ch3,processed_ch4
0.163003323,0.087744389,0.073823484,0.675428805
0.162982432,0.087771905,0.073725252,0.67552041
0.162961667,0.087799396,0.073627294,0.675611644
0.162941025,0.087826861,0.073529611,0.675702503
0.162920507,0.087854302,0.07343221,0.675792981
0.16290011,0.087881719,0.073335093,0.675883077
0.162879835,0.087909114,0.073238264,0.675972787
0.162859679,0.087936488,0.073141726,0.676062107
0.162839642,0.087963841,0.073045482,0.676151035
0.162819724,0.087991173,0.072949536,0.676239567
0.162799925,0.088018486,0.07285389,0.676327699
0.162780243,0.08804578,0.072758549,0.676415428
0.162760679,0.088073054,0.072663517,0.676502749
0.162741233,0.088100309,0.0725688,0.676589658
0.162721904,0.088127544,0.072474402,0.67667615
0.162702693,0.088154758,0.072380329,0.67676222
0.162683599,0.088181951,0.072286586,0.676847864
0.162664622,0.088209124,0.072193176,0.676933078
0.162645764,0.088236275,0.072100104,0.677017857
0.162627023,0.088263406,0.072007373,0.677102197
0.162608402,0.088290518,0.071914987,0.677186093
0.162589901,0.08831761,0.071822949,0.67726954
0.162571521,0.088344684,0.071731262,0.677352534
0.162553263,0.088371741,0.071639928,0.677435068
0.162535129,0.088398783,0.071548951,0.677517138
0.162517118,0.088425812,0.071458334,0.677598736
0.162499233,0.088452829,0.071368081,0.677679857
0.162481472,0.088479835,0.071278197,0.677760495
0.162463838,0.088506833,0.071188686,0.677840644
0.162446328,0.088533823,0.071099551,0.677920298
0.162428944,0.088560807,0.071010795,0.677999454
0.162411686,0.088587786,0.070922424,0.678078104
0.162394553,0.088614765,0.070834439,0.678156244
0.162377547,0.088641743,0.070746844,0.678233866
0.162360667,0.088668725,0.070659644,0.678310964
0.162343913,0.088695713,0.070572842,0.678387532
0.162327287,0.088722708,0.070486443,0.678463562
0.162310787,0.088749713,0.070400451,0.678539049
0.162294415,0.088776729,0.070314869,0.678613987
0.162278169,0.088803759,0.0702297,0.678688371
0.16226205,0.088830802,0.070144949,0.678762198
0.162246058,0.088857862,0.070060617,0.678835464
0.162230191,0.088884939,0.069976707,0.678908163
0.16221445,0.088912035,0.069893222,0.678980293
0.162198834,0.088939153,0.069810165,0.679051848
0.162183343,0.088966295,0.069727537,0.679122826
0.162167974,0.088993462,0.069645342,0.679193222
0.162152728,0.089020657,0.069563583,0.679263032
0.162137603,0.089047881,0.069482263,0.679332253
0.162122597,0.089075135,0.069401386,0.679400881
0.162107711,0.089102421,0.069320956,0.679468912
0.162092943,0.089129739,0.069240974,0.679536343
0.162078293,0.089157091,0.069161445,0.679603171
0.162063759,0.089184478,0.069082369,0.679669394
0.162049341,0.089211899,0.069003751,0.67973501
0.162035037,0.089239357,0.068925592,0.679800015
0.162020846,0.089266851,0.068847894,0.679864408
0.162006767,0.089294383,0.068770662,0.679928188
0.161992797,0.089321954,0.068693897,0.679991352
0.161978936,0.089349564,0.068617603,0.680053897
0.161965181,0.089377214,0.068541783,0.680115822
0.161951531,0.089404905,0.068466441,0.680177123
0.161937982,0.089432639,0.06839158,0.680237799
0.161924532,0.089460415,0.068317203,0.680297849
0.161911179,0.089488236,0.068243314,0.680357271
0.16189792,0.089516102,0.068169915,0.680416062
0.161884753,0.089544015,0.068097011,0.680474221
0.161871675,0.089571975,0.068024603,0.680531746
0.161858683,0.089599984,0.067952695,0.680588638
0.161845775,0.089628042,0.067881288,0.680644894
0.161832946,0.089656151,0.067810385,0.680700517
0.161820195,0.089684311,0.067739988,0.680755506
0.161807518,0.089712523,0.067670096,0.680809863
0.161794912,0.089740786,0.067600712,0.68086359
0.161782373,0.089769102,0.067531837,0.680916689
0.161769898,0.08979747,0.067463471,0.68096916
0.161757485,0.089825892,0.067395617,0.681021006
0.16174513,0.089854366,0.067328276,0.681072228
0.16173283,0.089882894,0.067261449,0.681122827
0.161720582,0.089911474,0.067195136,0.681172807
0.161708382,0.089940108,0.067129341,0.68122217
0.161696226,0.089968793,0.067064064,0.681270917
0.16168411,0.08999753,0.066999306,0.681319053
0.161672032,0.090026317,0.06693507,0.681366581
0.161659987,0.090055153,0.066871356,0.681413503
0.161647971,0.090084038,0.066808166,0.681459825
0.16163598,0.09011297,0.066745499,0.681505551
0.161624011,0.090141948,0.066683357,0.681550683
0.16161206,0.090170972,0.066621741,0.681595227
0.161600123,0.090200041,0.066560649,0.681639188
0.161588196,0.090229153,0.066500083,0.681682568
0.161576277,0.090258308,0.066440042,0.681725373
0.161564361,0.090287507,0.066380525,0.681767608
0.161552445,0.090316748,0.066321532,0.681809276
0.161540525,0.090346032,0.066263063,0.68185038
0.161528597,0.09037536,0.066205119,0.681890923
0.161516659,0.090404732,0.066147702,0.681930906
0.161504707,0.090434149,0.066090813,0.681970331
0.161492738,0.090463609,0.066034455,0.682009198
0.161480749,0.090493114,0.065978627,0.682047509
0.161468738,0.090522663,0.065923333,0.682085265
0.161456703,0.090552256,0.065868574,0.682122467
0.16144464,0.090581892,0.065814351,0.682159117
0.161432547,0.090611571,0.065760666,0.682195216
0.16142042,0.090641294,0.06570752,0.682230766
0.161408256,0.09067106,0.065654913,0.682265771
0.161396052,0.090700869,0.065602849,0.68230023
0.161383804,0.090730722,0.065551326,0.682334147
0.16137151,0.090760619,0.065500348,0.682367523
0.161359167,0.09079056,0.065449915,0.682400358
0.161346775,0.090820545,0.065400028,0.682432652
0.161334333,0.090850573,0.065350688,0.682464406
0.161321839,0.090880645,0.065301897,0.68249562
0.161309293,0.09091076,0.065253655,0.682526293
0.161296694,0.090940917,0.065205964,0.682556425
0.161284043,0.090971117,0.065158825,0.682586015
0.16127134,0.09100136,0.065112237,0.682615064
0.161258584,0.091031645,0.0650662,0.682643571
0.161245777,0.091061971,0.065020716,0.682671536
0.161232919,0.091092339,0.064975782,0.68269896
0.161220009,0.091122749,0.0649314,0.682725842
0.161207049,0.0911532,0.064887568,0.682752183
0.161194038,0.091183692,0.064844288,0.682777982
0.161180976,0.091214224,0.064801559,0.682803241
0.161167865,0.091244795,0.064759382,0.682827958
0.161154703,0.091275406,0.064717756,0.682852135
0.161141492,0.091306056,0.064676682,0.682875771
0.161128232,0.091336743,0.06463616,0.682898866
0.161114922,0.091367467,0.06459619,0.68292142
0.161101564,0.091398229,0.064556773,0.682943434
0.161088157,0.091429027,0.064517909,0.682964907
0.161074701,0.091459861,0.064479599,0.68298584
0.161061196,0.09149073,0.064441841,0.683006234
0.16104764,0.091521632,0.064404638,0.68302609
0.161034035,0.091552567,0.064367987,0.683045411
0.161020379,0.091583534,0.064331889,0.683064199
0.161006671,0.09161453,0.064296343,0.683082456
0.160992912,0.091645556,0.064261347,0.683100185
0.1609791,0.091676611,0.064226901,0.683117387
0.160965237,0.091707695,0.064193003,0.683134065
0.16095132,0.091738807,0.064159654,0.68315022
0.160937349,0.091769947,0.06412685,0.683165854
0.160923324,0.091801117,0.064094591,0.683180968
0.160909244,0.091832315,0.064062876,0.683195565
0.160895108,0.091863541,0.064031703,0.683209647
0.160880918,0.091894796,0.06400107,0.683223216
0.160866672,0.091926079,0.063970974,0.683236274
0.160852372,0.09195739,0.063941415,0.683248823
0.160838017,0.091988729,0.063912391,0.683260863
0.160823606,0.092020097,0.063883902,0.683272396
0.160809139,0.092051494,0.063855946,0.683283421
0.160794616,0.092082921,0.063828524,0.683293939
0.160780037,0.092114379,0.063801633,0.683303951
0.160765401,0.092145869,0.063775274,0.683313456
0.160750708,0.092177391,0.063749446,0.683322455
0.16073596,0.092208946,0.063724148,0.683330946
0.160721157,0.092240533,0.063699379,0.683338931
0.1607063,0.092272155,0.063675137,0.683346407
0.160691392,0.092303812,0.063651421,0.683353375
0.160676434,0.092335503,0.06362823,0.683359833
0.160661428,0.092367231,0.06360556,0.68336578
0.160646379,0.092398996,0.06358341,0.683371215
0.160631287,0.092430799,0.063561777,0.683376137
0.160616156,0.092462642,0.063540659,0.683380543
0.160600989,0.092494525,0.063520054,0.683384433
0.160585788,0.092526449,0.063499958,0.683387805
0.160570555,0.092558417,0.063480371,0.683390657
0.160555294,0.09259043,0.06346129,0.683392986
0.160540007,0.092622487,0.063442714,0.683394792
0.160524698,0.09265459,0.063424639,0.683396073
0.16050937,0.09268674,0.063407064,0.683396827
0.160494026,0.092718936,0.063389987,0.683397052
0.16047867,0.092751177,0.063373404,0.683396748
0.160463308,0.092783465,0.063357314,0.683395914
0.160447944,0.092815797,0.063341712,0.683394547
0.160432583,0.092848175,0.063326596,0.683392646
0.160417231,0.092880596,0.063311963,0.68339021
0.160401894,0.09291306,0.06329781,0.683387237
0.160386576,0.092945565,0.063284133,0.683383725
0.160371284,0.092978112,0.06327093,0.683379675
0.160356023,0.093010697,0.063258197,0.683375084
0.160340798,0.09304332,0.063245931,0.683369951
0.160325616,0.093075981,0.063234128,0.683364275
0.160310483,0.093108677,0.063222785,0.683358055
0.160295405,0.093141407,0.063211899,0.683351289
0.160280389,0.09317417,0.063201466,0.683343975
0.160265439,0.093206965,0.063191483,0.683336113
0.160250563,0.09323979,0.063181947,0.6833277
0.160235766,0.093272644,0.063172855,0.683318735
0.160221054,0.093305528,0.063164203,0.683309215
0.160206434,0.093338439,0.063155989,0.683299138
0.16019191,0.093371379,0.063148209,0.683288502
0.16017749,0.093404346,0.06314086,0.683277304
0.160163178,0.093437341,0.063133937,0.683265544
0.160148981,0.093470363,0.063127438,0.683253218
0.160134902,0.093503413,0.063121358,0.683240327
0.160120949,0.09353649,0.063115694,0.683226868
0.160107124,0.093569593,0.063110442,0.683212841
0.160093435,0.093602722,0.063105598,0.683198245
0.160079885,0.093635876,0.06310116,0.683183079
0.160066479,0.093669054,0.063097124,0.683167343
0.160053222,0.093702255,0.063093487,0.683151036
0.16004012,0.093735477,0.063090244,0.683134159
0.160027176,0.09376872,0.063087394,0.68311671
0.160014397,0.093801981,0.063084932,0.683098691
0.160001786,0.093835259,0.063082855,0.6830801
0.159989348,0.093868553,0.06308116,0.683060939
0.159977088,0.093901862,0.063079843,0.683041208
0.159965009,0.093935185,0.063078901,0.683020905
0.159953117,0.093968521,0.063078332,0.683000031
0.159941414,0.09400187,0.063078131,0.682978585
0.159929905,0.094035231,0.063078295,0.682956568
0.159918593,0.094068604,0.063078822,0.682933982
0.159907481,0.094101986,0.063079706,0.682910827
0.159896572,0.094135378,0.063080944,0.682887106
0.15988587,0.094168777,0.063082534,0.682862819
0.159875377,0.094202183,0.063084471,0.68283797
0.159865096,0.094235595,0.063086752,0.682812557
0.159855031,0.094269011,0.063089373,0.682786584
0.159845183,0.094302432,0.063092332,0.682760053
0.159835556,0.094335854,0.063095625,0.682732965
0.15982615,0.094369278,0.063099247,0.682705325
0.15981697,0.094402701,0.063103196,0.682677133
0.159808015,0.094436122,0.063107469,0.682648395
0.159799287,0.094469538,0.063112062,0.682619112
0.159790789,0.094502948,0.063116974,0.68258929
0.15978252,0.094536348,0.0631222,0.682558932
0.159774482,0.094569739,0.063127737,0.682528042
0.159766677,0.094603117,0.06313358,0.682496625
0.159759106,0.094636481,0.063139727,0.682464686
0.159751769,0.094669829,0.063146173,0.682432228
0.159744669,0.094703159,0.063152915,0.682399257
0.159737807,0.094736468,0.063159948,0.682365777
0.159731184,0.094769754,0.06316727,0.682331792
0.1597248,0.094803015,0.06317488,0.682297305
0.159718658,0.094836248,0.063182773,0.682262321
0.159712758,0.094869452,0.063190949,0.682226841
0.159707101,0.094902625,0.063199405,0.682190869
0.159701688,0.094935764,0.063208139,0.682154409
0.159696519,0.094968868,0.063217148,0.682117465
0.159691596,0.095001934,0.063226429,0.682080041
0.159686918,0.09503496,0.063235978,0.682042144
0.159682485,0.095067943,0.063245792,0.682003779
0.159678299,0.095100881,0.063255867,0.681964953
0.15967436,0.095133769,0.063266198,0.681925674
0.159670666,0.095166605,0.063276781,0.681885949
0.159667218,0.095199385,0.063287611,0.681845785
0.159664016,0.095232107,0.063298684,0.681805193
0.159661059,0.095264768,0.063309995,0.681764178
0.159658346,0.095297365,0.063321539,0.681722751
0.159655877,0.095329894,0.063333311,0.681680918
0.15965365,0.095362353,0.063345308,0.681638689
0.159651666,0.095394738,0.063357525,0.681596071
0.159649922,0.095427048,0.063369958,0.681553072
0.159648417,0.095459279,0.063382603,0.681509701
0.159647149,0.09549143,0.063395456,0.681465965
0.159646116,0.0955235,0.063408514,0.68142187
0.159645316,0.095555487,0.063421772,0.681377425
0.159644747,0.095587391,0.063435227,0.681332635
0.159644407,0.095619212,0.063448874,0.681287507
0.159644295,0.095650949,0.06346271,0.681242046
0.159644407,0.095682603,0.06347673,0.68119626
0.159644744,0.095714174,0.063490929,0.681150153
0.159645304,0.095745662,0.063505303,0.681103731
0.159646086,0.095777067,0.063519848,0.681056999
0.159647088,0.095808387,0.06353456,0.681009965
0.159648313,0.095839623,0.063549433,0.680962631
0.159649758,0.095870774,0.063564463,0.680915004
0.159651427,0.095901839,0.063579647,0.680867087
0.159653321,0.095932817,0.063594979,0.680818884
0.159655441,0.095963706,0.063610455,0.680770398
0.15965779,0.095994506,0.063626071,0.680721632
0.159660369,0.096025216,0.063641824,0.680672592
0.15966318,0.096055833,0.063657708,0.680623279
0.159666224,0.096086357,0.06367372,0.680573699
0.159669504,0.096116787,0.063689854,0.680523856
0.15967302,0.096147121,0.063706107,0.680473753
0.159676774,0.096177358,0.063722473,0.680423395
0.159680767,0.096207499,0.063738949,0.680372785
0.159684999,0.096237543,0.063755531,0.680321927
0.159689472,0.09626749,0.063772213,0.680270824
0.159694186,0.09629734,0.063788992,0.680219481
0.159699142,0.096327093,0.063805864,0.680167901
0.159704341,0.096356749,0.063822823,0.680116087
0.159709783,0.096386307,0.063839867,0.680064043
0.159715469,0.096415768,0.063856991,0.680011772
0.159721399,0.096445131,0.063874193,0.679959276
0.159727572,0.096474397,0.063891469,0.679906561
0.15973399,0.096503566,0.063908815,0.679853629
0.159740653,0.096532636,0.063926227,0.679800485
0.159747559,0.096561609,0.063943701,0.679747132
0.159754708,0.096590484,0.063961233,0.679693575
0.159762101,0.096619261,0.063978819,0.679639819
0.159769736,0.09664794,0.063996456,0.679585868
0.159777613,0.09667652,0.064014138,0.679531729
0.159785731,0.096705003,0.064031861,0.679477406
0.159794089,0.096733386,0.064049621,0.679422905
0.159802686,0.09676167,0.064067412,0.679368232
0.15981152,0.096789853,0.064085232,0.679313394
0.159820591,0.096817937,0.064103076,0.679258396
0.159829896,0.096845919,0.064120941,0.679203243
0.159839433,0.096873801,0.064138824,0.679147941
0.159849201,0.096901582,0.064156722,0.679092496
0.159859197,0.09692926,0.064174631,0.679036911
0.159869419,0.096956836,0.06419255,0.678981195
0.159879865,0.096984308,0.064210476,0.678925351
0.159890534,0.097011675,0.064228404,0.678869388
0.159901423,0.097038935,0.064246332,0.67881331
0.15991253,0.097066089,0.064264257,0.678757124
0.159923854,0.097093135,0.064282175,0.678700836
0.159935391,0.097120072,0.064300083,0.678644454
0.159947141,0.097146899,0.064317978,0.678587982
0.159959101,0.097173614,0.064335859,0.678531427
0.159971268,0.097200215,0.064353721,0.678474796
0.15998364,0.097226702,0.064371563,0.678418095
0.159996216,0.097253071,0.064389381,0.678361332
0.160008992,0.097279321,0.064407173,0.678304514
0.160021966,0.09730545,0.064424936,0.678247648
0.160035136,0.097331456,0.064442667,0.678190741
0.160048499,0.097357337,0.064460364,0.6781338
0.160062051,0.097383092,0.064478025,0.678076833
0.16007579,0.097408718,0.064495646,0.678019846
0.160089713,0.097434215,0.064513227,0.677962846
0.160103817,0.097459579,0.064530764,0.67790584
0.1601181,0.097484809,0.064548256,0.677848834
0.160132559,0.097509904,0.0645657,0.677791837
0.160147193,0.097534861,0.064583092,0.677734854
0.160161998,0.09755968,0.064600432,0.67767789
0.160176974,0.097584359,0.064617716,0.677620952
0.160192117,0.097608898,0.064634942,0.677564043
0.160207428,0.097633296,0.064652109,0.677507167
0.160222904,0.097657555,0.064669212,0.677450329
0.160238544,0.097681673,0.064686251,0.677393532
0.160254348,0.09770565,0.064703221,0.677336781
0.160270313,0.097729486,0.064720121,0.67728008
0.160286439,0.09775318,0.064736949,0.677223432
0.160302724,0.097776732,0.064753701,0.677166842
0.160319169,0.097800141,0.064770375,0.677110315
0.160335774,0.097823407,0.064786967,0.677053853
0.160352537,0.097846528,0.064803475,0.67699746
0.160369461,0.097869503,0.064819897,0.676941139
0.160386546,0.097892331,0.06483623,0.676884893
0.160403793,0.097915011,0.064852472,0.676828724
0.160421201,0.097937541,0.064868624,0.676772634
0.160438772,0.097959922,0.064884682,0.676716624
0.160456507,0.097982152,0.064900646,0.676660694
0.160474407,0.098004231,0.064916514,0.676604848
0.160492472,0.098026159,0.064932284,0.676549085
0.160510704,0.098047933,0.064947953,0.67649341
0.160529103,0.098069555,0.06496352,0.676437823
0.160547671,0.098091021,0.06497898,0.676382328
0.160566408,0.098112332,0.064994331,0.676326928
0.160585317,0.098133485,0.06500957,0.676271628
0.160604396,0.098154478,0.065024694,0.676216432
0.160623648,0.098175312,0.065039697,0.676161343
0.160643074,0.098195983,0.065054577,0.676106366
0.160662674,0.098216492,0.06506933,0.676051504
0.16068245,0.098236837,0.065083951,0.675996761
0.160702404,0.098257018,0.065098438,0.67594214
0.160722537,0.098277036,0.065112786,0.675887641
0.160742851,0.09829689,0.065126991,0.675833268
0.160763349,0.098316579,0.065141052,0.675779021
0.160784033,0.098336103,0.065154963,0.675724901
0.160804907,0.098355462,0.065168723,0.675670908
0.160825975,0.098374654,0.065182329,0.675617042
0.16084724,0.09839368,0.065195778,0.675563302
0.160868708,0.098412537,0.065209067,0.675509687
0.160890383,0.098431226,0.065222192,0.675456198
0.160912269,0.098449746,0.065235151,0.675402834
0.160934369,0.098468095,0.065247941,0.675349596
0.160956688,0.098486271,0.065260558,0.675296483
0.160979229,0.098504273,0.065273,0.675243498
0.161001997,0.098522099,0.065285263,0.675190642
0.161024995,0.098539746,0.065297343,0.675137915
0.161048228,0.098557212,0.065309238,0.675085322
0.161071701,0.098574494,0.065320942,0.675032862
0.161095417,0.09859159,0.065332454,0.674980539
0.161119384,0.098608497,0.065343769,0.67492835
0.161143605,0.098625213,0.065354885,0.674876297
0.161168087,0.098641738,0.065365799,0.674824376
0.161192836,0.09865807,0.065376508,0.674772586
0.161217857,0.098674208,0.06538701,0.674720925
0.161243155,0.098690152,0.065397303,0.67466939
0.161268738,0.098705901,0.065407383,0.674617978
0.161294611,0.098721454,0.065417247,0.674566688
0.161320779,0.098736809,0.065426893,0.674515518
0.161347249,0.098751967,0.065436319,0.674464466
0.161374025,0.098766925,0.06544552,0.67441353
0.161401113,0.098781682,0.065454496,0.674362709
0.161428518,0.098796237,0.065463242,0.674312003
0.161456245,0.098810589,0.065471756,0.674261409
0.161484299,0.098824735,0.065480036,0.674210929
0.161512685,0.098838674,0.065488079,0.674160562
0.161541407,0.098852404,0.06549588,0.674110309
0.161570469,0.098865923,0.065503438,0.674060171
0.161599876,0.098879229,0.065510748,0.674010147
0.161629632,0.098892322,0.065517808,0.673960238
0.161659743,0.098905198,0.065524615,0.673910444
0.161690212,0.098917858,0.065531166,0.673860764
0.161721045,0.098930298,0.065537458,0.673811199
0.161752246,0.098942518,0.065543488,0.673761748
0.16178382,0.098954516,0.065549253,0.673712411
0.161815771,0.09896629,0.065554752,0.673663188
0.161848103,0.098977838,0.06555998,0.673614079
0.161880821,0.098989159,0.065564937,0.673565084
0.161913927,0.099000252,0.065569618,0.673516203
0.161947426,0.099011115,0.065574022,0.673467437
0.16198132,0.099021747,0.065578146,0.673418787
0.162015613,0.099032148,0.065581988,0.673370252
0.162050306,0.099042315,0.065585546,0.673321832
0.162085403,0.099052249,0.065588819,0.67327353
0.162120904,0.099061946,0.065591805,0.673225345
0.162156813,0.099071406,0.065594503,0.673177278
0.162193131,0.099080626,0.065596911,0.673129332
0.162229862,0.099089605,0.065599026,0.673081506
0.162267008,0.099098342,0.065600847,0.673033803
0.16230457,0.099106834,0.065602372,0.672986224
0.162342552,0.09911508,0.065603598,0.67293877
0.162380955,0.099123079,0.065604521,0.672891445
0.16241978,0.099130831,0.065605139,0.672844249
0.16245903,0.099138335,0.06560545,0.672797186
0.162498706,0.099145589,0.065605449,0.672750256
0.16253881,0.099152594,0.065605134,0.672703462
0.162579342,0.099159349,0.065604503,0.672656807
0.162620305,0.099165852,0.065603554,0.67261029
0.162661698,0.099172102,0.065602286,0.672563914
0.162703523,0.0991781,0.065600698,0.67251768
0.16274578,0.099183842,0.065598791,0.672471588
0.162788468,0.099189328,0.065596565,0.672425639
0.162831589,0.099194556,0.06559402,0.672379835
0.162875143,0.099199524,0.065591156,0.672334177
0.16291913,0.099204229,0.065587975,0.672288666
0.16296355,0.09920867,0.065584475,0.672243305
0.163008404,0.099212844,0.065580658,0.672198094
0.163053693,0.099216748,0.065576524,0.672153035
0.163099417,0.099220379,0.065572075,0.672108129
0.163145578,0.099223736,0.065567312,0.672063375
0.163192178,0.099226814,0.065562234,0.672018774
0.16323922,0.099229611,0.065556844,0.671974325
0.163286708,0.099232123,0.06555114,0.671930029
0.163334643,0.099234347,0.065545125,0.671885885
0.163383029,0.099236282,0.065538797,0.671841892
0.163431868,0.099237925,0.065532159,0.671798048
0.163481162,0.099239275,0.065525208,0.671754354
0.163530917,0.099240331,0.065517947,0.671710806
0.163581134,0.09924109,0.065510375,0.671667402
0.163631818,0.099241551,0.065502491,0.67162414
0.163682972,0.099241713,0.065494297,0.671581018
0.163734602,0.099241573,0.065485792,0.671538032
0.163786711,0.099241131,0.065476979,0.671495179
0.163839304,0.099240384,0.065467857,0.671452455
0.163892386,0.099239331,0.065458427,0.671409856
0.163945963,0.09923797,0.065448689,0.671367378
0.164000038,0.099236301,0.065438645,0.671325016
0.164054617,0.099234322,0.065428294,0.671282767
0.164109705,0.099232032,0.065417637,0.671240626
0.164165307,0.099229429,0.065406675,0.671198589
0.164221426,0.099226513,0.065395409,0.671156651
0.164278067,0.099223283,0.065383841,0.671114809
0.164335233,0.099219737,0.065371971,0.671073059
0.164392928,0.099215874,0.065359799,0.671031399
0.164451155,0.099211693,0.065347327,0.670989826
0.164509917,0.099207193,0.065334554,0.670948336
0.164569216,0.099202376,0.06532148,0.670906929
0.164629055,0.099197239,0.065308106,0.6708656
0.164689436,0.099191784,0.065294432,0.670824348
0.164750362,0.099186011,0.065280457,0.67078317
0.164811834,0.099179919,0.065266182,0.670742064
0.164873854,0.09917351,0.065251607,0.670701029
0.164936424,0.099166783,0.065236731,0.670660062
0.164999544,0.09915974,0.065221554,0.670619162
0.165063217,0.09915238,0.065206075,0.670578327
0.165127443,0.099144706,0.065190295,0.670537556
0.165192222,0.099136719,0.065174213,0.670496846
0.165257556,0.099128418,0.06515783,0.670456197
0.165323445,0.099119805,0.065141144,0.670415607
0.165389889,0.099110881,0.065124157,0.670375073
0.16545689,0.099101649,0.065106868,0.670334593
0.165524449,0.099092109,0.065089278,0.670294163
0.165592566,0.099082265,0.065071387,0.670253782
0.165661243,0.099072116,0.065053194,0.670213447
0.165730478,0.099061666,0.065034699,0.670173156
0.165800274,0.099050915,0.065015904,0.670132907
0.165870631,0.099039864,0.064996807,0.670092698
0.165941548,0.099028514,0.06497741,0.670052528
0.166013027,0.099016866,0.064957711,0.670012396
0.16608507,0.09900492,0.06493771,0.6699723
0.166157676,0.098992677,0.064917408,0.66993224
0.166230846,0.098980136,0.064896803,0.669892215
0.166304583,0.098967299,0.064875894,0.669852224
0.166378887,0.098954165,0.064854682,0.669812266
0.166453759,0.098940733,0.064833165,0.669772342
0.166529202,0.098927003,0.064811343,0.669732451
0.166605216,0.098912975,0.064789217,0.669692592
0.166681803,0.098898648,0.064766785,0.669652765
0.166758965,0.09888402,0.064744048,0.669612967
0.166836703,0.098869091,0.064721006,0.6695732
0.166915019,0.09885386,0.064697657,0.669533464
0.166993915,0.098838325,0.064674003,0.669493757
0.167073392,0.098822487,0.064650041,0.669454081
0.167153451,0.098806343,0.064625771,0.669414435
0.167234094,0.098789893,0.064601192,0.669374821
0.167315321,0.098773136,0.064576304,0.669335239
0.167397134,0.09875607,0.064551105,0.669295691
0.167479533,0.098738695,0.064525595,0.669256178
0.167562517,0.098721009,0.064499773,0.669216701
0.167646087,0.098703012,0.064473639,0.669177262
0.167730244,0.098684702,0.064447192,0.669137862
0.167814986,0.098666079,0.064420433,0.669098502
0.167900313,0.098647142,0.064393361,0.669059184
0.167986227,0.09862789,0.064365975,0.669019908
0.168072726,0.098608323,0.064338276,0.668980676
0.16815981,0.098588438,0.064310262,0.66894149
0.16824748,0.098568235,0.064281934,0.668902351
0.168335734,0.098547714,0.064253292,0.66886326
0.168424573,0.098526872,0.064224335,0.668824221
0.168513995,0.098505708,0.064195063,0.668785234
0.168604001,0.09848422,0.064165475,0.668746304
0.168694588,0.098462408,0.06413557,0.668707434
0.168785755,0.098440269,0.064105349,0.668668627
0.168877499,0.098417802,0.064074811,0.668629887
0.16896982,0.098395007,0.064043955,0.668591218
0.169062713,0.098371881,0.064012782,0.668552625
0.169156175,0.098348424,0.063981289,0.668514111
0.169250204,0.098324635,0.063949477,0.668475683
0.169344796,0.098300514,0.063917345,0.668437345
0.169439949,0.098276059,0.06388489,0.668399102
0.169535658,0.09825127,0.063852113,0.66836096
0.169631919,0.098226147,0.063819011,0.668322923
0.16972873,0.098200688,0.063785586,0.668284997
0.169826086,0.098174893,0.063751835,0.668247186
0.169923983,0.098148761,0.06371776,0.668209497
0.170022417,0.098122291,0.06368336,0.668171932
0.170121384,0.098095481,0.063648636,0.668134498
0.170220882,0.098068332,0.063613588,0.668097199
0.170320905,0.09804084,0.063578215,0.66806004
0.17042145,0.098013006,0.063542517,0.668023027
0.170522512,0.097984827,0.063506496,0.667986165
0.170624088,0.097956304,0.06347015,0.667949458
0.170726173,0.097927434,0.063433481,0.667912912
0.170828763,0.097898218,0.063396489,0.667876531
0.170931852,0.097868653,0.063359174,0.667840321
0.171035437,0.097838738,0.063321538,0.667804287
0.171139512,0.097808472,0.063283581,0.667768435
0.171244073,0.097777853,0.063245305,0.667732769
0.171349114,0.097746881,0.063206711,0.667697294
0.171454631,0.097715553,0.063167798,0.667662018
0.171560619,0.097683869,0.063128567,0.667626944
0.171667074,0.097651827,0.063089018,0.667592081
0.171773989,0.097619425,0.06304915,0.667557436
0.17188136,0.097586662,0.063008963,0.667523015
0.171989184,0.097553535,0.062968454,0.667488827
0.172097455,0.097520042,0.062927624,0.667454879
0.17220617,0.09748618,0.06288647,0.667421179
0.172315325,0.097451947,0.062844992,0.667387736
0.172424914,0.09741734,0.062803189,0.667354556
0.172534933,0.097382357,0.062761061,0.667321648
0.172645379,0.097346995,0.062718607,0.667289019
0.172756245,0.097311252,0.062675826,0.667256676
0.17286753,0.097275126,0.062632718,0.667224627
0.172979227,0.097238613,0.062589281,0.667192879
0.173091333,0.097201713,0.062545517,0.667161437
0.173203845,0.097164422,0.062501424,0.667130309
0.173316758,0.09712674,0.062457002,0.6670995
0.173430071,0.097088663,0.06241225,0.667069016
0.173543778,0.097050192,0.062367167,0.667038864
0.173657878,0.097011323,0.062321752,0.667009047
0.173772366,0.096972056,0.062276005,0.666979572
0.173887241,0.096932389,0.062229926,0.666950444
0.174002498,0.09689232,0.062183514,0.666921667
0.174118134,0.096851848,0.06213677,0.666893248
0.174234146,0.096810969,0.062089691,0.666865193
0.17435053,0.096769684,0.062042279,0.666837507
0.174467283,0.096727989,0.061994531,0.666810197
0.174584401,0.096685884,0.061946447,0.666783268
0.174701881,0.096643365,0.061898026,0.666756727
0.174819721,0.096600432,0.061849267,0.66673058
0.174937918,0.096557083,0.061800168,0.666704831
0.175056468,0.096513315,0.06175073,0.666679487
0.175175369,0.096469128,0.06170095,0.666654553
0.175294618,0.096424519,0.061650829,0.666630035
0.175414211,0.096379487,0.061600366,0.666605937
0.175534145,0.096334031,0.061549561,0.666582263
0.175654416,0.096288152,0.061498414,0.666559018
0.175775021,0.096241849,0.061446925,0.666536206
0.175895957,0.096195122,0.061395093,0.666513828
0.17601722,0.096147972,0.061342919,0.666491889
0.176138806,0.096100399,0.061290402,0.666470392
0.176260713,0.096052403,0.061237543,0.66644934
0.176382937,0.096003985,0.061184341,0.666428737
0.176505473,0.095955145,0.061130795,0.666408587
0.176628318,0.095905884,0.061076907,0.666388892
0.176751467,0.095856202,0.061022675,0.666369656
0.176874916,0.095806101,0.060968101,0.666350882
0.176998662,0.095755582,0.060913182,0.666332574
0.177122698,0.095704645,0.06085792,0.666314736
0.177247021,0.095653293,0.060802313,0.666297372
0.177371626,0.095601526,0.060746362,0.666280486
0.177496509,0.095549344,0.060690067,0.666264081
0.177621664,0.095496749,0.060633427,0.66624816
0.177747088,0.09544374,0.060576444,0.666232728
0.177872776,0.095390319,0.060519117,0.666217788
0.177998725,0.095336486,0.060461447,0.666203341
0.178124931,0.095282244,0.060403436,0.666189389
0.178251389,0.095227594,0.060345084,0.666175933
0.178378096,0.095172539,0.060286392,0.666162974
0.178505047,0.095117081,0.060227361,0.666150511
0.178632239,0.095061225,0.06016799,0.666138546
0.17875967,0.095004973,0.06010828,0.666127077
0.178887335,0.094948329,0.060048234,0.666116103
0.179015233,0.094891295,0.059987851,0.66610562
0.179143361,0.094833875,0.059927136,0.666095628
0.179271716,0.094776071,0.059866092,0.666086121
0.179400295,0.094717887,0.059804723,0.666077096
0.179529093,0.094659325,0.059743033,0.66606855
0.179658107,0.094600388,0.059681026,0.666060479
0.179787333,0.094541081,0.059618705,0.666052881
0.179916767,0.094481405,0.059556074,0.666045753
0.180046406,0.094421364,0.059493136,0.666039093
0.180176245,0.094360962,0.059429894,0.666032899
0.180306281,0.094300201,0.05936635,0.666027168
0.180436509,0.094239086,0.059302506,0.666021899
0.180566926,0.094177619,0.059238364,0.66601709
0.180697527,0.094115807,0.059173927,0.666012739
0.180828306,0.094053651,0.059109197,0.666008845
0.18095926,0.093991158,0.059044174,0.666005408
0.181090383,0.093928329,0.058978861,0.666002427
0.181221669,0.09386517,0.058913259,0.665999902
0.181353114,0.093801684,0.058847368,0.665997834
0.181484711,0.093737876,0.05878119,0.665996223
0.181616455,0.093673751,0.058714725,0.665995069
0.181748339,0.093609314,0.058647976,0.665994372
0.181880357,0.093544569,0.058580941,0.665994132
0.182012504,0.093479524,0.058513623,0.665994349
0.182144772,0.093414182,0.058446022,0.665995024
0.182277155,0.09334855,0.05837814,0.665996155
0.182409647,0.093282633,0.058309977,0.665997742
0.18254224,0.093216437,0.058241537,0.665999785
0.182674929,0.093149966,0.058172822,0.666002284
0.182807705,0.093083226,0.058103832,0.666005237
0.182940562,0.093016221,0.058034571,0.666008646
0.183073492,0.092948957,0.05796504,0.66601251
0.18320649,0.092881439,0.057895241,0.66601683
0.183339549,0.092813671,0.057825174,0.666021606
0.183472661,0.092745658,0.057754843,0.666026838
0.18360582,0.092677407,0.057684248,0.666032525
0.183739019,0.092608922,0.057613393,0.666038666
0.183872249,0.09254021,0.057542279,0.666045261
0.184005505,0.092471277,0.05747091,0.666052308
0.184138778,0.092402127,0.057399287,0.666059808
0.184272062,0.092332766,0.057327413,0.666067759
0.184405347,0.092263198,0.057255292,0.666076163
0.184538628,0.092193429,0.057182924,0.666085019
0.184671895,0.092123462,0.057110313,0.666094329
0.184805142,0.092053303,0.057037462,0.666104093
0.18493836,0.091982956,0.056964371,0.666114313
0.185071543,0.091912425,0.056891044,0.666124988
0.185204682,0.091841717,0.056817482,0.666136119
0.185337772,0.091770836,0.056743686,0.666147706
0.185470805,0.091699788,0.056669659,0.666159748
0.185603775,0.091628578,0.056595403,0.666172244
0.185736677,0.091557212,0.056520919,0.666185191
0.185869505,0.091485695,0.056446212,0.666198588
0.186002252,0.091414033,0.056371285,0.666212429
0.186134914,0.091342232,0.056296142,0.666226713
0.186267484,0.091270296,0.056220785,0.666241436
0.186399957,0.09119823,0.056145218,0.666256596
0.186532326,0.09112604,0.056069444,0.66627219
0.186664587,0.091053729,0.055993467,0.666288216
0.186796734,0.090981303,0.055917291,0.666304672
0.186928761,0.090908766,0.055840918,0.666321555
0.187060663,0.090836123,0.055764352,0.666338862
0.187192436,0.090763378,0.055687596,0.66635659
0.187324074,0.090690536,0.055610655,0.666374735
0.187455572,0.090617603,0.055533531,0.666393294
0.187586927,0.090544584,0.055456228,0.666412261
0.187718133,0.090471484,0.055378751,0.666431632
0.187849186,0.090398307,0.055301104,0.666451403
0.187980082,0.090325059,0.055223291,0.666471567
0.188110816,0.090251745,0.055145319,0.66649212
0.188241384,0.090178368,0.055067192,0.666513056
0.188371778,0.090104934,0.054988917,0.666534371
0.188501995,0.090031446,0.054910499,0.666556061
0.188632027,0.089957908,0.054831945,0.666578119
0.188761871,0.089884325,0.05475326,0.666600543
0.188891521,0.089810701,0.05467445,0.666623328
0.189020972,0.089737039,0.054595521,0.666646468
0.189150218,0.089663345,0.054516478,0.666669959
0.189279256,0.089589621,0.054437326,0.666693797
0.18940808,0.089515873,0.054358069,0.666717979
0.189536685,0.089442104,0.054278713,0.666742499
0.189665067,0.089368318,0.054199262,0.666767354
0.18979322,0.089294519,0.054119721,0.66679254
0.18992114,0.08922071,0.054040096,0.666818054
0.190048822,0.089146894,0.053960391,0.666843893
0.190176261,0.089073075,0.053880612,0.666870053
0.190303453,0.088999254,0.053800763,0.666896531
0.190430393,0.088925435,0.053720849,0.666923324
0.190557075,0.088851621,0.053640875,0.666950429
0.190683496,0.088777815,0.053560845,0.666977844
0.19080965,0.088704021,0.053480765,0.667005565
0.190935532,0.088630242,0.053400639,0.667033588
0.191061137,0.088556481,0.053320471,0.667061911
0.191186461,0.088482743,0.053240266,0.66709053
0.191311499,0.08840903,0.053160029,0.667119443
0.191436246,0.088335344,0.053079764,0.667148646
0.191560697,0.088261689,0.052999475,0.66717814
0.191684847,0.088188067,0.052919165,0.667207922
0.191808691,0.088114479,0.05283884,0.66723799
0.191932226,0.08804093,0.052758501,0.667268343
0.192055446,0.087967421,0.052678154,0.667298979
0.192178347,0.087893955,0.0525978,0.667329898
0.192300926,0.087820534,0.052517442,0.667361098
0.192423177,0.087747162,0.052437083,0.667392578
0.192545097,0.087673841,0.052356725,0.667424337
0.192666683,0.087600573,0.052276371,0.667456373
0.192787931,0.087527361,0.052196024,0.667488684
0.192908836,0.087454209,0.052115686,0.66752127
0.193029393,0.087381117,0.052035359,0.66755413
0.193149598,0.08730809,0.051955047,0.667587265
0.193269446,0.08723513,0.05187475,0.667620673
0.193388933,0.08716224,0.051794472,0.667654356
0.193508053,0.087089421,0.051714212,0.667688314
0.193626802,0.087016676,0.051633974,0.667722548
0.193745176,0.086944008,0.051553757,0.667757059
0.19386317,0.086871419,0.051473564,0.667791848
0.193980777,0.08679891,0.051393397,0.667826916
0.194097993,0.086726482,0.051313259,0.667862265
0.194214812,0.086654138,0.051233154,0.667897895
0.194331229,0.086581879,0.051153085,0.667933807
0.194447236,0.086509705,0.051073056,0.667970003
0.194562826,0.086437616,0.050993071,0.668006487
0.194677992,0.086365614,0.050913131,0.668043263
0.194792725,0.086293699,0.050833239,0.668080336
0.194907018,0.086221871,0.050753398,0.668117713
0.195020861,0.086150131,0.050673607,0.668155401
0.195134245,0.086078478,0.05059387,0.668193406
0.19524716,0.086006914,0.050514188,0.668231737
0.195359598,0.085935439,0.050434562,0.668270402
0.195471548,0.085864053,0.050354994,0.668309406
0.195583001,0.085792757,0.050275485,0.668348757
0.19569395,0.085721552,0.050196039,0.66838846
0.195804385,0.085650439,0.050116656,0.668428521
0.195914298,0.085579419,0.05003734,0.668468944
0.196023682,0.085508492,0.049958092,0.668509734
0.196132531,0.08543766,0.049878914,0.668550895
0.196240836,0.085366924,0.049799808,0.668592431
0.196348593,0.085296284,0.049720775,0.668634347
0.196455795,0.085225742,0.049641815,0.668676648
0.196562436,0.085155298,0.04956293,0.668719337
0.196668509,0.085084952,0.04948412,0.668762419
0.196774007,0.085014706,0.049405387,0.668805899
0.196878926,0.08494456,0.049326733,0.668849781
0.196983259,0.084874514,0.049248159,0.668894068
0.197086999,0.084804568,0.049169668,0.668938765
0.197190141,0.084734723,0.04909126,0.668983876
0.197292678,0.08466498,0.049012938,0.669029404
0.197394605,0.084595338,0.048934702,0.669075354
0.197495916,0.084525799,0.048856556,0.669121729
0.197596604,0.084456364,0.048778499,0.669168533
0.197696663,0.084387033,0.048700533,0.66921577
0.197796089,0.084317808,0.048622661,0.669263443
0.197894873,0.084248689,0.048544882,0.669311556
0.197993011,0.084179677,0.0484672,0.669360112
0.198090497,0.084110774,0.048389614,0.669409116
0.198187323,0.08404198,0.048312125,0.669458572
0.198283486,0.083973295,0.048234735,0.669508484
0.19837898,0.08390472,0.048157444,0.669558856
0.198473799,0.083836255,0.048080253,0.669609693
0.198567941,0.083767898,0.048003162,0.669660999
0.198661401,0.083699651,0.047926172,0.669712776
0.198754176,0.083631514,0.047849283,0.669765027
0.198846262,0.083563486,0.047772495,0.669817757
0.198937654,0.083495569,0.047695809,0.669870968
0.199028349,0.083427763,0.047619224,0.669924664
0.199118342,0.083360071,0.047542739,0.669978847
0.199207627,0.083292494,0.047466357,0.670033522
0.199296198,0.083225033,0.047390076,0.670088692
0.19938405,0.08315769,0.047313901,0.670144359
0.199471173,0.083090467,0.047237833,0.670200526
0.199557562,0.083023365,0.047161875,0.670257197
0.199643209,0.082956386,0.04708603,0.670314374
0.199728108,0.082889532,0.0470103,0.670372061
0.19981225,0.082822804,0.046934686,0.670430259
0.199895631,0.082756206,0.046859191,0.670488972
0.199978245,0.082689739,0.046783815,0.670548201
0.200060085,0.082623407,0.04670856,0.670607949
0.200141144,0.082557211,0.046633426,0.670668219
0.200221416,0.082491153,0.046558416,0.670729015
0.200300895,0.082425236,0.046483529,0.67079034
0.200379573,0.082359462,0.046408769,0.670852196
0.200457445,0.082293831,0.046334137,0.670914587
0.200534503,0.082228348,0.046259636,0.670977514
0.20061074,0.082163013,0.046185268,0.671040978
0.200686151,0.082097831,0.046111036,0.671104982
0.200760726,0.082032803,0.046036942,0.671169529
0.200834461,0.081967932,0.045962987,0.67123462
0.200907346,0.081903221,0.045889173,0.67130026
0.200979376,0.081838671,0.045815503,0.67136645
0.201050544,0.081774284,0.045741978,0.671433194
0.201120843,0.081710062,0.045668601,0.671500495
0.201190265,0.081646006,0.045595374,0.671568355
0.201258805,0.081582118,0.0455223,0.671636777
0.201326456,0.0815184,0.04544938,0.671705764
0.201393213,0.081454852,0.045376617,0.671775318
0.201459069,0.081391477,0.045304012,0.671845442
0.20152402,0.081328277,0.045231566,0.671916137
0.201588061,0.081265252,0.045159282,0.671987405
0.201651186,0.081202405,0.045087161,0.672059248
0.201713393,0.081139737,0.045015203,0.672131667
0.201774678,0.08107725,0.044943411,0.672204662
0.201835037,0.081014944,0.044871785,0.672278234
0.20189447,0.080952822,0.044800325,0.672352384
0.201952972,0.080890883,0.044729033,0.672427112
0.202010542,0.080829128,0.04465791,0.67250242
0.202067177,0.080767558,0.044586956,0.67257831
0.202122875,0.080706173,0.044516171,0.672654781
0.202177633,0.080644972,0.044445557,0.672731838
0.20223145,0.080583956,0.044375114,0.67280948
0.202284322,0.080523125,0.044304841,0.672887712
0.202336247,0.080462477,0.04423474,0.672966536
0.202387224,0.080402013,0.044164809,0.673045954
0.20243725,0.080341732,0.044095049,0.673125969
0.202486323,0.080281635,0.044025459,0.673206583
0.20253444,0.08022172,0.043956039,0.673287801
0.202581599,0.080161988,0.04388679,0.673369624
0.202627796,0.080102438,0.043817711,0.673452054
0.20267303,0.080043071,0.043748803,0.673535096
0.202717298,0.079983885,0.043680067,0.67361875
0.202760597,0.07992488,0.043611504,0.673703019
0.202802927,0.079866056,0.043543115,0.673787902
0.202844285,0.079807412,0.043474902,0.673873401
0.202884673,0.079748948,0.043406864,0.673959515
0.20292409,0.079690662,0.043339005,0.674046244
0.202962539,0.079632553,0.043271322,0.674133586
0.203000021,0.07957462,0.043203818,0.674221541
0.203036539,0.079516863,0.043136491,0.674310107
0.203072095,0.07945928,0.043069342,0.674399283
0.203106693,0.079401872,0.043002369,0.674489066
0.203140337,0.079344637,0.042935572,0.674579454
0.20317303,0.079287575,0.042868951,0.674670444
0.203204779,0.079230685,0.042802503,0.674762033
0.203235587,0.079173967,0.042736229,0.674854217
0.20326546,0.07911742,0.04267013,0.674946991
0.203294403,0.079061043,0.042604203,0.67504035
0.203322424,0.079004836,0.04253845,0.67513429
0.203349526,0.078948801,0.04247287,0.675228803
0.203375716,0.078892936,0.042407462,0.675323885
0.203401,0.078837244,0.042342226,0.675419529
0.203425384,0.078781725,0.042277162,0.675515729
0.203448874,0.07872638,0.042212268,0.675612478
0.203471476,0.078671211,0.042147545,0.675709768
0.203493195,0.078616218,0.042082994,0.675807593
0.203514038,0.078561404,0.042018615,0.675905943
0.203534011,0.07850677,0.041954408,0.676004811
0.203553118,0.078452316,0.041890376,0.67610419
0.203571364,0.078398044,0.041826518,0.676204074
0.203588754,0.078343955,0.041762836,0.676304455
0.203605294,0.078290048,0.041699329,0.67640533
0.203620986,0.078236325,0.041635997,0.676506692
0.203635835,0.078182788,0.041572841,0.676608536
0.203649844,0.078129439,0.041509861,0.676710856
0.203663019,0.078076279,0.041447056,0.676813646
0.203675361,0.07802331,0.041384427,0.676916901
0.203686876,0.077970534,0.041321976,0.677020614
0.203697567,0.077917951,0.041259702,0.677124779
0.203707439,0.077865564,0.041197606,0.677229391
0.203716495,0.077813373,0.041135689,0.677334443
0.203724742,0.07776138,0.041073951,0.677439928
0.203732182,0.077709588,0.041012392,0.677545838
0.203738822,0.077657996,0.040951014,0.677652167
0.203744667,0.077606608,0.040889816,0.677758909
0.203749722,0.077555423,0.040828798,0.677866056
0.203753994,0.077504444,0.040767959,0.677973603
0.203757488,0.077453669,0.0407073,0.678081543
0.203760209,0.0774031,0.04064682,0.67818987
0.203762164,0.077352737,0.040586521,0.678298578
0.203763358,0.07730258,0.040526402,0.67840766
0.203763798,0.07725263,0.040466464,0.678517108
0.203763489,0.077202887,0.040406707,0.678626916
0.203762439,0.077153352,0.040347133,0.678737077
0.203760653,0.077104025,0.040287739,0.678847583
0.203758136,0.077054907,0.040228527,0.678958429
0.203754894,0.077006,0.040169497,0.679069609
0.203750933,0.076957303,0.040110648,0.679181115
0.203746259,0.076908819,0.040051982,0.679292941
0.203740874,0.076860548,0.039993498,0.67940508
0.203734784,0.076812492,0.039935198,0.679517526
0.203727992,0.076764652,0.03987708,0.679630276
0.203720504,0.076717028,0.039819146,0.679743322
0.203712325,0.076669621,0.039761393,0.679856661
0.203703458,0.076622432,0.039703823,0.679970287
0.20369391,0.076575461,0.039646434,0.680084196
0.203683686,0.076528709,0.039589225,0.680198381
0.203672791,0.076482174,0.039532196,0.680312839
0.203661231,0.076435858,0.039475347,0.680427564
0.203649013,0.07638976,0.039418676,0.680542551
0.203636141,0.07634388,0.039362182,0.680657797
0.203622621,0.076298218,0.039305865,0.680773297
0.203608458,0.076252774,0.039249723,0.680889046
0.203593658,0.076207548,0.039193755,0.681005039
0.203578225,0.076162542,0.03913796,0.681121273
0.203562163,0.076117757,0.039082339,0.681237741
0.203545479,0.076073192,0.039026892,0.681354438
0.203528175,0.076028848,0.038971619,0.681471358
0.203510256,0.075984725,0.038916523,0.681588497
0.203491727,0.075940824,0.038861603,0.681705847
0.203472592,0.075897145,0.038806861,0.681823403
0.203452855,0.075853689,0.038752297,0.681941158
0.203432521,0.075810459,0.038697913,0.682059108
0.203411593,0.075767455,0.038643707,0.682177245
0.203390076,0.07572468,0.038589681,0.682295564
0.203367973,0.075682135,0.038535835,0.682414056
0.20334529,0.075639822,0.03848217,0.682532718
0.203322029,0.075597742,0.038428686,0.682651543
0.203298193,0.075555894,0.038375385,0.682770528
0.203273786,0.075514279,0.038322265,0.68288967
0.203248811,0.075472897,0.038269326,0.683008966
0.203223271,0.075431748,0.038216567,0.683128414
0.203197169,0.075390831,0.038163989,0.68324801
0.203170509,0.075350147,0.038111592,0.683367752
0.203143294,0.075309695,0.038059375,0.683487636
0.203115528,0.075269475,0.038007338,0.683607659
0.203087214,0.075229488,0.037955481,0.683727816
0.203058357,0.075189734,0.037903805,0.683848104
0.20302896,0.075150213,0.037852309,0.683968518
0.202999028,0.075110926,0.037800994,0.684089052
0.202968564,0.075071875,0.03774986,0.684209702
0.202937574,0.075033059,0.037698906,0.684330461
0.202906062,0.07499448,0.037648135,0.684451324
0.202874033,0.074956137,0.037597544,0.684572287
0.20284149,0.074918032,0.037547134,0.684693344
0.20280844,0.074880164,0.037496904,0.684814492
0.202774886,0.074842534,0.037446853,0.684935727
0.202740834,0.074805141,0.03739698,0.685057044
0.202706288,0.074767986,0.037347286,0.68517844
0.202671256,0.074731069,0.037297767,0.685299908
0.202635742,0.074694389,0.037248425,0.685421444
0.202599752,0.074657946,0.037199258,0.685543044
0.202563294,0.074621739,0.037150265,0.685664701
0.202526372,0.074585768,0.037101449,0.685786411
0.202488993,0.07455003,0.037052809,0.685908168
0.202451163,0.074514524,0.037004348,0.686029966
0.202412887,0.074479248,0.036956064,0.6861518
0.202374172,0.074444202,0.03690796,0.686273667
0.202335023,0.074409383,0.036860033,0.686395562
0.202295446,0.074374788,0.036812284,0.686517482
0.202255447,0.074340416,0.036764711,0.686639426
0.20221503,0.074306265,0.036717314,0.686761391
0.202174201,0.074272331,0.036670091,0.686883377
0.202132965,0.074238613,0.036623042,0.687005381
0.202091326,0.074205108,0.036576164,0.687127402
0.20204929,0.074171816,0.036529456,0.687249438
0.202006861,0.074138733,0.036482918,0.687371487
0.201964044,0.074105861,0.036436548,0.687493547
0.201920845,0.074073196,0.036390345,0.687615614
0.201877267,0.074040739,0.036344306,0.687737688
0.201833316,0.074008489,0.036298431,0.687859765
0.201788996,0.073976443,0.036252718,0.687981843
0.201744313,0.0739446,0.036207166,0.688103921
0.201699269,0.07391296,0.036161773,0.688225997
0.201653871,0.07388152,0.036116539,0.68834807
0.201608123,0.07385028,0.036071461,0.688470137
0.201562028,0.073819237,0.036026538,0.688592197
0.201515592,0.073788389,0.035981768,0.68871425
0.201468819,0.073757735,0.03593715,0.688836296
0.201421712,0.073727273,0.035892681,0.688958334
0.201374275,0.073697003,0.035848357,0.689080365
0.201326512,0.073666923,0.035804176,0.68920239
0.201278424,0.073637033,0.035760135,0.689324408
0.201230015,0.073607332,0.035716232,0.68944642
0.201181287,0.07357782,0.035672467,0.689568426
0.201132244,0.073548496,0.035628837,0.689690423
0.201082886,0.073519359,0.035585345,0.68981241
0.201033219,0.073490408,0.035541989,0.689934385
0.200983244,0.07346164,0.035498771,0.690056346
0.200932965,0.073433056,0.03545569,0.690178289
0.200882387,0.073404652,0.035412749,0.690300212
0.200831514,0.073376428,0.035369947,0.690422112
0.200780351,0.073348381,0.035327284,0.690543984
0.200728903,0.07332051,0.035284761,0.690665827
0.200677174,0.073292811,0.035242378,0.690787637
0.20062517,0.073265283,0.035200133,0.690909414
0.200572895,0.073237923,0.035158028,0.691031154
0.200520355,0.073210728,0.03511606,0.691152857
0.200467553,0.073183696,0.035074231,0.69127452
0.200414494,0.073156823,0.03503254,0.691396143
0.200361183,0.073130107,0.034990987,0.691517724
0.200307624,0.073103545,0.034949571,0.691639261
0.20025382,0.073077133,0.034908292,0.691760754
0.200199777,0.07305087,0.034867151,0.691882202
0.200145499,0.073024753,0.034826147,0.692003601
0.200090988,0.072998778,0.034785282,0.692124952
0.20003625,0.072972945,0.034744555,0.69224625
0.199981287,0.072947251,0.034703969,0.692367493
0.199926104,0.072921693,0.034663523,0.692488681
0.199870703,0.07289627,0.034623217,0.692609809
0.199815089,0.07287098,0.034583053,0.692730877
0.199759265,0.072845823,0.034543031,0.692851882
0.199703232,0.072820798,0.034503151,0.692972819
0.199646994,0.072795906,0.034463414,0.693093686
0.199590553,0.072771147,0.034423822,0.693214477
0.19953391,0.072746524,0.034384376,0.693335191
0.199477066,0.072722036,0.034345076,0.693455822
0.199420024,0.072697685,0.034305923,0.693576368
0.199362785,0.072673471,0.034266919,0.693696826
0.199305349,0.072649395,0.034228063,0.693817193
0.199247718,0.072625458,0.034189358,0.693937466
0.199189893,0.072601661,0.034150801,0.694057645
0.199131872,0.072578004,0.034112395,0.694177729
0.199073656,0.07255449,0.034074137,0.694297717
0.199015244,0.072531119,0.034036029,0.694417609
0.198956635,0.072507891,0.03399807,0.694537404
0.198897829,0.072484809,0.03396026,0.694657102
0.198838826,0.072461874,0.033922599,0.694776702
0.198779624,0.072439086,0.033885088,0.694896201
0.198720224,0.072416449,0.033847728,0.695015599
0.198660626,0.072393962,0.03381052,0.695134893
0.198600829,0.072371626,0.033773463,0.695254082
0.198540833,0.072349442,0.033736559,0.695373165
0.198480638,0.07232741,0.033699809,0.695492142
0.198420246,0.07230553,0.033663211,0.695611012
0.198359656,0.072283802,0.033626767,0.695729775
0.198298869,0.072262226,0.033590474,0.695848431
0.198237888,0.072240801,0.033554332,0.69596698
0.198176712,0.072219528,0.033518338,0.696085422
0.198115344,0.072198407,0.033482493,0.696203757
0.198053784,0.072177437,0.033446793,0.696321985
0.197992034,0.072156621,0.033411239,0.696440106
0.197930094,0.072135958,0.033375831,0.696558117
0.197867964,0.07211545,0.03334057,0.696676016
0.197805644,0.072095099,0.033305457,0.6967938
0.197743134,0.072074908,0.033270492,0.696911466
0.197680436,0.072054877,0.033235676,0.697029011
0.197617548,0.07203501,0.03320101,0.697146433
0.197554471,0.072015306,0.033166491,0.697263732
0.197491204,0.071995768,0.033132121,0.697380906
0.197427749,0.071976398,0.033097899,0.697497954
0.197364105,0.071957196,0.033063823,0.697614876
0.197300273,0.071938162,0.033029892,0.697731672
0.197236253,0.071919299,0.032996106,0.697848342
0.197172046,0.071900607,0.032962463,0.697964885
0.197107652,0.071882085,0.032928962,0.698081301
0.197043072,0.071863735,0.032895601,0.698197592
0.196978305,0.071845557,0.03286238,0.698313758
0.196913352,0.071827551,0.032829297,0.698429801
0.196848213,0.071809717,0.032796351,0.698545719
0.196782886,0.071792056,0.032763543,0.698661514
0.196717373,0.071774569,0.032730871,0.698777187
0.196651672,0.071757256,0.032698335,0.698892737
0.196585784,0.071740116,0.032665935,0.699008164
0.196519709,0.071723151,0.032633672,0.699123468
0.196453448,0.07170636,0.032601544,0.699238648
0.196386999,0.071689744,0.032569553,0.699353704
0.196320364,0.071673303,0.032537696,0.699468636
0.196253544,0.071657039,0.032505975,0.699583443
0.196186538,0.071640951,0.032474387,0.699698125
0.196119346,0.071625039,0.032442933,0.699812682
0.19605197,0.071609305,0.032411611,0.699927114
0.19598441,0.071593749,0.032380421,0.700041421
0.195916667,0.07157837,0.032349361,0.700155602
0.195848742,0.07156317,0.032318431,0.700269656
0.195780639,0.07154815,0.032287631,0.70038358
0.195712359,0.071533308,0.03225696,0.700497373
0.195643906,0.071518646,0.032226417,0.70061103
0.195575284,0.071504163,0.032196002,0.700724551
0.195506496,0.071489859,0.032165714,0.700837932
0.195437546,0.071475733,0.032135553,0.700951168
0.195368438,0.071461787,0.032105518,0.701064258
0.195299175,0.071448019,0.032075608,0.701177198
0.195229762,0.071434431,0.032045823,0.701289984
0.195160202,0.071421022,0.032016161,0.701402614
0.195090498,0.071407792,0.031986623,0.701515087
0.195020652,0.07139474,0.031957205,0.701627403
0.194950667,0.071381865,0.031927908,0.701739561
0.194880546,0.071369165,0.031898728,0.701851561
0.194810292,0.07135664,0.031869663,0.701963405
0.194739907,0.071344289,0.031840711,0.702075094
0.194669393,0.071332108,0.03181187,0.702186629
0.194598754,0.071320097,0.031783136,0.702298013
0.194527992,0.071308254,0.031754508,0.702409245
0.194457109,0.071296577,0.031725986,0.702520327
0.194386107,0.071285065,0.031697571,0.702631257
0.194314986,0.071273716,0.031669263,0.702742035
0.194243748,0.071262528,0.031641065,0.702852658
0.194172394,0.071251502,0.031612979,0.702963125
0.194100923,0.071240636,0.031585006,0.703073434
0.194029337,0.071229932,0.031557147,0.703183583
0.193957636,0.071219391,0.031529403,0.70329357
0.193885819,0.071209014,0.031501773,0.703403394
0.193813886,0.071198801,0.031474257,0.703513055
0.193741837,0.071188753,0.031446856,0.703622554
0.193669672,0.07117887,0.031419568,0.70373189
0.193597389,0.071169153,0.031392392,0.703841065
0.19352499,0.071159602,0.031365329,0.703950079
0.193452472,0.071150217,0.03133838,0.704058931
0.193379836,0.071140998,0.031311544,0.704167622
0.193307079,0.071131947,0.031284823,0.704276151
0.193234201,0.071123064,0.031258216,0.704384519
0.193161201,0.07111435,0.031231724,0.704492726
0.193088075,0.071105806,0.031205346,0.704600774
0.193014824,0.071097433,0.031179081,0.704708662
0.192941446,0.071089233,0.03115293,0.704816392
0.19286794,0.071081206,0.03112689,0.704923963
0.192794308,0.071073354,0.031100963,0.705031375
0.192720548,0.071065677,0.031075148,0.705138626
0.192646662,0.071058177,0.031049445,0.705245716
0.192572648,0.071050853,0.031023854,0.705352645
0.192498507,0.071043707,0.030998375,0.705459411
0.192424236,0.071036739,0.030973008,0.705566016
0.192349836,0.071029949,0.030947754,0.705672461
0.192275304,0.071023338,0.03092261,0.705778747
0.192200641,0.071016906,0.030897578,0.705884875
0.192125844,0.071010654,0.030872656,0.705990846
0.192050914,0.071004581,0.030847845,0.706096661
0.19197585,0.070998687,0.030823142,0.706202321
0.191900652,0.070992973,0.030798548,0.706307827
0.191825322,0.070987438,0.03077406,0.70641318
0.191749859,0.070982081,0.030749679,0.706518381
0.191674265,0.070976902,0.030725402,0.706623431
0.191598542,0.0709719,0.030701229,0.706728328
0.191522692,0.070967075,0.030677161,0.706833073
0.191446718,0.070962425,0.030653196,0.706937662
0.191370622,0.07095795,0.030629334,0.707042094
0.191294406,0.07095365,0.030605577,0.707146367
0.191218073,0.070949523,0.030581925,0.707250479
0.191141625,0.070945569,0.030558376,0.70735443
0.191065065,0.070941787,0.03053493,0.707458218
0.190988395,0.070938177,0.030511587,0.707561841
0.190911617,0.070934739,0.030488344,0.7076653
0.190834733,0.070931473,0.0304652,0.707768593
0.190757747,0.070928379,0.030442155,0.707871719
0.19068066,0.070925458,0.030419206,0.707974675
0.190603475,0.07092271,0.030396354,0.70807746
0.190526195,0.070920136,0.030373599,0.70818007
0.190448822,0.070917737,0.03035094,0.708282502
0.190371359,0.070915513,0.030328377,0.708384751
0.190293809,0.070913467,0.030305909,0.708486815
0.190216175,0.0709116,0.030283535,0.70858869
0.19013846,0.070909913,0.030261253,0.708690375
0.190060666,0.070908407,0.030239061,0.708791866
0.189982795,0.070907085,0.03021696,0.70889316
0.189904849,0.070905947,0.030194948,0.708994256
0.189826832,0.070904995,0.030173024,0.709095149
0.189748744,0.070904231,0.030151188,0.709195837
0.189670587,0.070903655,0.030129439,0.709296318
0.189592363,0.070903269,0.030107778,0.709396589
0.189514073,0.070903074,0.030086203,0.70949665
0.189435718,0.07090307,0.030064714,0.709596498
0.1893573,0.070903259,0.03004331,0.709696131
0.189278819,0.070903642,0.03002199,0.709795549
0.189200277,0.07090422,0.030000754,0.709894749
0.189121673,0.070904995,0.029979601,0.709993731
0.18904301,0.070905969,0.02995853,0.710092492
0.188964286,0.070907141,0.02993754,0.710191034
0.188885503,0.070908512,0.029916629,0.710289356
0.188806662,0.070910082,0.029895797,0.710387458
0.188727764,0.070911853,0.029875042,0.710485341
0.18864881,0.070913822,0.029854363,0.710583005
0.188569802,0.070915991,0.029833758,0.71068045
0.18849074,0.070918358,0.029813226,0.710777676
0.188411627,0.070920923,0.029792766,0.710874684
0.188332463,0.070923685,0.029772378,0.710971473
0.188253252,0.070926642,0.029752061,0.711068045
0.188173994,0.070929793,0.029731815,0.711164398
0.188094691,0.070933137,0.02971164,0.711260532
0.188015345,0.070936674,0.029691537,0.711356444
0.187935958,0.070940402,0.029671507,0.711452133
0.187856531,0.070944321,0.029651552,0.711547597
0.187777065,0.070948431,0.029631672,0.711642833
0.187697561,0.070952732,0.029611869,0.711737839
0.187618021,0.070957225,0.029592143,0.711832611
0.187538446,0.070961909,0.029572496,0.711927149
0.187458837,0.070966785,0.029552927,0.712021451
0.187379196,0.070971851,0.029533438,0.712115515
0.187299524,0.070977108,0.029514027,0.712209342
0.187219821,0.070982553,0.029494696,0.71230293
0.187140089,0.070988186,0.029475446,0.712396279
0.187060328,0.070994006,0.029456277,0.712489389
0.186980539,0.071000013,0.029437193,0.712582256
0.186900723,0.071006205,0.029418195,0.712674876
0.186820883,0.071012584,0.029399289,0.712767245
0.186741019,0.071019147,0.029380475,0.712859359
0.186661135,0.071025896,0.029361756,0.712951212
0.186581234,0.07103283,0.029343135,0.713042801
0.186501317,0.071039949,0.029324613,0.713134121
0.186421388,0.071047253,0.029306191,0.713225168
0.186341451,0.07105474,0.029287872,0.713315937
0.186261507,0.07106241,0.029269658,0.713406425
0.18618156,0.071070263,0.02925155,0.713496628
0.186101611,0.071078296,0.029233553,0.713586541
0.186021662,0.071086509,0.029215669,0.71367616
0.185941718,0.0710949,0.029197902,0.713765481
0.185861778,0.071103468,0.029180255,0.7138545
0.185781845,0.071112212,0.029162733,0.713943211
0.185701921,0.071121131,0.029145338,0.714031609
0.185622007,0.071130226,0.029128075,0.714119692
0.185542104,0.071139496,0.029110947,0.714207453
0.185462214,0.07114894,0.029093955,0.714294891
0.185382336,0.07115856,0.029077103,0.714382001
0.185302473,0.071168355,0.029060392,0.71446878
0.185222624,0.071178327,0.029043825,0.714555224
0.185142789,0.071188478,0.029027405,0.714641329
0.185062969,0.071198808,0.029011132,0.714727091
0.184983165,0.071209319,0.028995009,0.714812507
0.184903375,0.071220012,0.028979038,0.714897575
0.184823601,0.071230886,0.02896322,0.714982293
0.184743843,0.071241943,0.028947555,0.715066658
0.184664102,0.071253183,0.028932046,0.715150669
0.184584379,0.071264605,0.028916692,0.715234324
0.184504675,0.07127621,0.028901494,0.715317621
0.184424989,0.071287996,0.028886455,0.71540056
0.184345323,0.071299964,0.028871574,0.715483139
0.184265678,0.071312111,0.028856853,0.715565359
0.184186052,0.071324437,0.028842293,0.715647217
0.184106448,0.07133694,0.028827896,0.715728716
0.184026865,0.071349618,0.028813661,0.715809856
0.183947302,0.071362471,0.028799589,0.715890638
0.18386776,0.071375496,0.028785679,0.715971065
0.183788238,0.071388693,0.028771933,0.716051136
0.183708736,0.07140206,0.02875835,0.716130854
0.183629253,0.071415598,0.02874493,0.716210219
0.183549789,0.071429305,0.028731673,0.716289232
0.183470345,0.071443182,0.028718579,0.716367894
0.183390919,0.071457228,0.028705649,0.716446203
0.183311513,0.071471443,0.028692882,0.716524162
0.183232126,0.071485826,0.028680279,0.716601768
0.183152759,0.071500377,0.028667841,0.716679023
0.183073413,0.071515095,0.028655567,0.716755924
0.182994091,0.071529979,0.028643459,0.716832471
0.182914794,0.071545028,0.028631517,0.716908661
0.182835525,0.071560239,0.028619743,0.716984493
0.182756287,0.071575612,0.028608136,0.717059966
0.182677081,0.071591144,0.028596697,0.717135078
0.182597911,0.071606835,0.028585426,0.717209828
0.182518778,0.071622684,0.028574322,0.717284215
0.182439686,0.071638688,0.028563387,0.717358238
0.182360638,0.071654848,0.028552619,0.717431895
0.182281636,0.07167116,0.02854202,0.717505184
0.182202683,0.071687623,0.028531589,0.717578105
0.182123784,0.071704234,0.028521326,0.717650656
0.18204494,0.071720991,0.028511231,0.717722838
0.181966155,0.07173789,0.028501303,0.717794651
0.181887433,0.07175493,0.028491542,0.717866095
0.181808776,0.071772107,0.028481949,0.717937168
0.181730188,0.071789419,0.028472523,0.71800787
0.181651674,0.071806863,0.028463265,0.718078198
0.181573237,0.071824437,0.028454175,0.718148151
0.181494881,0.071842137,0.028445254,0.718217728
0.18141661,0.071859961,0.028436502,0.718286927
0.181338428,0.071877904,0.02842792,0.718355748
0.181260338,0.071895964,0.028419509,0.71842419
0.181182342,0.071914137,0.028411271,0.718492251
0.181104445,0.07193242,0.028403206,0.71855993
0.181026648,0.07195081,0.028395316,0.718627226
0.180948956,0.071969303,0.028387603,0.718694139
0.180871369,0.071987896,0.028380067,0.718760669
0.180793891,0.072006584,0.028372709,0.718826816
0.180716524,0.072025365,0.02836553,0.718892581
0.18063927,0.072044234,0.028358531,0.718957965
0.180562132,0.072063189,0.028351711,0.719022968
0.18048511,0.072082226,0.028345074,0.71908759
0.180408207,0.072101342,0.028338619,0.719151832
0.180331423,0.072120536,0.028332349,0.719215692
0.180254761,0.072139805,0.028326265,0.719279169
0.180178221,0.072159149,0.028320371,0.71934226
0.180101804,0.072178564,0.028314666,0.719404965
0.180025513,0.072198051,0.028309155,0.719467281
0.179949348,0.072217606,0.028303838,0.719529208
0.179873311,0.072237228,0.028298716,0.719590744
0.179797404,0.072256915,0.028293793,0.719651889
0.179721627,0.072276664,0.028289068,0.719712642
0.179645982,0.072296473,0.028284543,0.719773001
0.179570473,0.07231634,0.028280221,0.719832967
0.1794951,0.072336261,0.028276102,0.719892537
0.179419865,0.072356235,0.028272187,0.719951713
0.17934477,0.07237626,0.028268476,0.720010494
0.179269816,0.072396333,0.028264971,0.72006888
0.179195005,0.072416453,0.028261673,0.720126869
0.179120337,0.072436619,0.028258581,0.720184462
0.179045815,0.072456829,0.028255697,0.720241659
0.17897144,0.072477081,0.028253021,0.720298458
0.178897213,0.072497373,0.028250554,0.72035486
0.178823136,0.072517703,0.028248296,0.720410865
0.178749213,0.072538067,0.028246248,0.720466472
0.178675445,0.072558464,0.028244411,0.720521681
0.178601834,0.07257889,0.028242784,0.720576492
0.178528383,0.072599343,0.028241367,0.720630907
0.178455094,0.072619818,0.02824016,0.720684927
0.17838197,0.072640313,0.028239163,0.720738555
0.178309012,0.072660823,0.028238374,0.720791791
0.178236223,0.072681347,0.028237792,0.720844638
0.178163605,0.072701881,0.028237416,0.720897098
0.178091161,0.072722423,0.028237246,0.72094917
0.178018892,0.072742971,0.028237281,0.721000856
0.177946802,0.072763522,0.028237521,0.721052155
0.177874893,0.072784075,0.028237965,0.721103066
0.177803167,0.072804629,0.028238615,0.72115359
0.177731625,0.07282518,0.02823947,0.721203724
0.177660271,0.072845727,0.02824053,0.721253471
0.177589106,0.072866269,0.028241794,0.721302831
0.177518131,0.072886804,0.028243261,0.721351804
0.177447348,0.072907329,0.028244931,0.721400392
0.177376756,0.072927842,0.028246803,0.721448598
0.177306358,0.072948342,0.028248875,0.721496424
0.177236154,0.072968826,0.028251148,0.721543872
0.177166143,0.072989292,0.02825362,0.721590945
0.177096327,0.073009737,0.028256289,0.721637647
0.177026707,0.073030158,0.028259156,0.721683978
0.176957283,0.073050554,0.028262218,0.721729944
0.176888057,0.073070923,0.028265475,0.721775546
0.176819029,0.07309126,0.028268924,0.721820787
0.1767502,0.073111565,0.028272565,0.72186567
0.17668157,0.073131836,0.028276396,0.721910198
0.17661314,0.073152071,0.028280417,0.721954372
0.176544909,0.07317227,0.028284626,0.721998195
0.176476877,0.073192431,0.028289022,0.72204167
0.176409045,0.073212553,0.028293602,0.722084799
0.176341412,0.073232636,0.028298365,0.722127587
0.176273977,0.07325268,0.028303308,0.722170035
0.176206742,0.073272682,0.02830843,0.722212147
0.176139706,0.073292641,0.028313728,0.722253924
0.17607287,0.073312558,0.028319202,0.72229537
0.176006233,0.073332431,0.02832485,0.722336487
0.175939796,0.073352259,0.028330668,0.722377278
0.175873558,0.073372042,0.028336656,0.722417744
0.175807521,0.073391779,0.028342812,0.722457889
0.175741682,0.07341147,0.028349135,0.722497713
0.175676043,0.073431114,0.028355624,0.722537219
0.175610603,0.073450711,0.028362279,0.722576406
0.175545363,0.07347026,0.0283691,0.722615278
0.175480322,0.073489759,0.028376086,0.722653833
0.175415482,0.073509209,0.028383236,0.722692073
0.175350842,0.073528608,0.028390552,0.722729998
0.175286404,0.073547955,0.028398033,0.722767608
0.175222169,0.073567249,0.028405678,0.722804903
0.175158139,0.07358649,0.028413488,0.722841884
0.175094316,0.073605675,0.028421461,0.722878548
0.175030704,0.073624803,0.028429599,0.722914894
0.174967305,0.073643875,0.0284379,0.72295092
0.174904125,0.07366289,0.028446365,0.722986621
0.174841168,0.073681847,0.028454991,0.723021994
0.174778441,0.073700746,0.028463778,0.723057035
0.174715949,0.073719587,0.028472725,0.723091739
0.174653699,0.073738368,0.028481828,0.723126105
0.174591697,0.073757089,0.028491086,0.723160128
0.174529948,0.073775748,0.028500497,0.723193806
0.174468459,0.073794344,0.02851006,0.723227138
0.174407233,0.073812875,0.028519772,0.723260119
0.174346278,0.07383134,0.028529633,0.723292748
0.174285598,0.073849738,0.028539642,0.723325022
0.174225198,0.073868067,0.028549796,0.723356939
0.174165083,0.073886325,0.028560095,0.723388497
0.174105257,0.073904514,0.028570537,0.723419692
0.174045724,0.073922633,0.02858112,0.723450523
0.173986488,0.073940684,0.028591843,0.723480985
0.173927554,0.073958667,0.028602702,0.723511077
0.173868925,0.073976585,0.028613696,0.723540795
0.173810605,0.073994437,0.028624821,0.723570137
0.173752597,0.074012226,0.028636076,0.723599101
0.173694904,0.074029951,0.028647458,0.723627686
0.173637531,0.074047614,0.028658965,0.72365589
0.173580479,0.074065216,0.028670596,0.723683709
0.173523752,0.074082758,0.028682347,0.723711143
0.173467353,0.074100241,0.028694218,0.723738188
0.173411285,0.074117665,0.028706206,0.723764844
0.173355551,0.074135031,0.028718309,0.723791108
0.173300152,0.074152341,0.028730527,0.72381698
0.173245093,0.074169594,0.028742856,0.723842456
0.173190375,0.074186791,0.028755297,0.723867537
0.173136,0.074203934,0.028767846,0.723892221
0.17308197,0.074221022,0.028780501,0.723916506
0.173028288,0.074238057,0.028793262,0.723940394
0.172974953,0.074255038,0.028806126,0.723963882
0.172921969,0.074271968,0.028819092,0.72398697
0.172869337,0.074288846,0.028832159,0.724009658
0.172817057,0.074305674,0.028845325,0.724031944
0.172765133,0.074322451,0.028858587,0.724053829
0.172713565,0.074339178,0.028871943,0.724075314
0.172662355,0.074355855,0.028885392,0.724096398
0.172611505,0.074372482,0.028898929,0.724117084
0.172561017,0.074389058,0.028912553,0.724137371
0.172510893,0.074405584,0.028926261,0.724157263
0.172461133,0.074422058,0.028940052,0.724176757
0.172411741,0.07443848,0.028953923,0.724195855
0.172362719,0.07445485,0.028967875,0.724214556
0.172314071,0.074471168,0.028981904,0.724232857
0.172265797,0.074487433,0.028996012,0.724250758
0.172217903,0.074503645,0.029010194,0.724268258
0.17217039,0.074519803,0.029024451,0.724285356
0.172123262,0.074535907,0.029038779,0.724302052
0.172076522,0.074551956,0.029053178,0.724318344
0.172030172,0.07456795,0.029067645,0.724334233
0.171984215,0.074583888,0.02908218,0.724349717
0.171938655,0.074599771,0.029096782,0.724364792
0.171893492,0.074615599,0.029111451,0.724379457
0.171848731,0.074631372,0.029126189,0.724393708
0.171804373,0.074647091,0.029140996,0.724407541
0.17176042,0.074662756,0.029155872,0.724420952
0.171716873,0.074678368,0.02917082,0.724433939
0.171673736,0.074693929,0.029185838,0.724446498
0.171631008,0.074709438,0.029200928,0.724458626
0.171588694,0.074724897,0.029216089,0.724470321
0.171546794,0.074740307,0.029231321,0.724481579
0.171505311,0.074755668,0.029246624,0.724492397
0.171464247,0.074770981,0.029261999,0.724502773
0.171423604,0.074786248,0.029277444,0.724512704
0.171383384,0.074801467,0.029292961,0.724522188
0.171343587,0.07481664,0.029308551,0.724531222
0.171304216,0.074831766,0.029324212,0.724539805
0.171265272,0.074846846,0.029339947,0.724547935
0.171226755,0.074861879,0.029355756,0.72455561
0.171188668,0.074876865,0.029371638,0.724562829
0.17115101,0.074891804,0.029387594,0.724569591
0.171113785,0.074906697,0.029403624,0.724575894
0.171076993,0.074921544,0.029419727,0.724581736
0.171040637,0.074936345,0.029435903,0.724587115
0.171004718,0.074951101,0.029452153,0.724592028
0.170969236,0.074965813,0.029468477,0.724596473
0.170934195,0.07498048,0.029484877,0.724600448
0.170899592,0.074995105,0.029501356,0.724603947
0.17086543,0.075009686,0.029517914,0.724606969
0.170831708,0.075024226,0.029534556,0.72460951
0.170798425,0.075038725,0.029551283,0.724611567
0.170765581,0.075053183,0.029568096,0.72461314
0.170733174,0.075067601,0.029584999,0.724614226
0.170701203,0.07508198,0.029601991,0.724614826
0.170669668,0.075096319,0.029619073,0.72461494
0.170638565,0.075110621,0.029636246,0.724614568
0.170607896,0.075124884,0.029653511,0.724613709
0.170577657,0.075139111,0.029670866,0.724612366
0.170547849,0.075153301,0.029688313,0.724610537
0.170518469,0.075167456,0.029705852,0.724608223
0.170489516,0.075181576,0.029723484,0.724605423
0.170460988,0.075195662,0.02974121,0.724602139
0.170432882,0.075209715,0.029759031,0.724598371
0.170405196,0.075223735,0.029776947,0.724594121
0.170377928,0.075237722,0.029794958,0.724589391
0.170351075,0.075251676,0.029813064,0.724584185
0.170324634,0.075265597,0.029831264,0.724578505
0.170298601,0.075279486,0.029849557,0.724572356
0.170272973,0.075293341,0.029867943,0.724565743
0.170247747,0.075307163,0.029886421,0.724558669
0.170222917,0.075320952,0.029904991,0.72455114
0.170198479,0.075334706,0.029923652,0.724543163
0.17017443,0.075348426,0.029942402,0.724534742
0.170150764,0.07536211,0.029961241,0.724525885
0.170127478,0.075375756,0.02998017,0.724516596
0.170104568,0.075389364,0.029999186,0.724506882
0.17008203,0.075402932,0.030018291,0.724496747
0.170059862,0.075416457,0.030037486,0.724486196
0.17003806,0.075429939,0.030056769,0.724475232
0.170016622,0.075443375,0.030076143,0.724463861
0.169995545,0.075456762,0.030095608,0.724452085
0.169974828,0.075470101,0.030115163,0.724439908
0.169954469,0.075483388,0.030134809,0.724427334
0.169934465,0.075496624,0.030154547,0.724414364
0.169914815,0.075509807,0.030174376,0.724401003
0.169895515,0.075522939,0.030194296,0.72438725
0.169876565,0.075536018,0.030214307,0.72437311
0.169857964,0.075549044,0.030234408,0.724358584
0.169839708,0.075562018,0.0302546,0.724343674
0.169821797,0.075574937,0.030274881,0.724328385
0.169804229,0.075587802,0.03029525,0.724312719
0.169787002,0.075600612,0.030315706,0.72429668
0.169770115,0.075613366,0.030336248,0.724280272
0.169753565,0.075626064,0.030356875,0.724263495
0.16973735,0.075638707,0.030377589,0.724246354
0.169721469,0.075651293,0.030398388,0.724228851
0.169705918,0.075663822,0.030419273,0.724210986
0.169690696,0.075676295,0.030440245,0.724192764
0.1696758,0.07568871,0.030461304,0.724174187
0.169661227,0.075701069,0.030482448,0.724155257
0.169646974,0.075713369,0.030503678,0.724135978
0.16963304,0.075725612,0.030524994,0.724116354
0.169619421,0.075737795,0.030546396,0.724096388
0.169606115,0.075749917,0.030567885,0.724076083
0.169593119,0.075761977,0.030589461,0.724055444
0.169580429,0.075773973,0.030611126,0.724034472
0.169568045,0.075785904,0.030632881,0.72401317
0.169555963,0.075797769,0.030654727,0.723991541
0.169544183,0.075809566,0.030676665,0.723969587
0.169532703,0.075821292,0.030698695,0.723947309
0.169521525,0.075832948,0.030720818,0.723924709
0.169510648,0.07584453,0.030743034,0.723901788
0.169500072,0.075856037,0.030765343,0.723878548
0.169489797,0.075867468,0.030787747,0.723854989
0.169479823,0.07587882,0.030810244,0.723831113
0.169470151,0.075890091,0.030832836,0.723806922
0.16946078,0.075901282,0.030855521,0.723782418
0.16945171,0.075912388,0.030878298,0.723757604
0.169442939,0.07592341,0.030901166,0.723732485
0.169434467,0.075934344,0.030924125,0.723707064
0.169426293,0.075945188,0.030947174,0.723681345
0.169418415,0.075955942,0.030970311,0.723655333
0.169410832,0.075966602,0.030993535,0.723629031
0.169403543,0.075977168,0.031016846,0.723602443
0.169396546,0.075987639,0.031040242,0.723575573
0.169389841,0.075998013,0.031063722,0.723548424
0.169383425,0.07600829,0.031087284,0.723521
0.169377299,0.076018469,0.031110928,0.723493304
0.16937146,0.076028549,0.031134654,0.723465337
0.169365909,0.076038529,0.031158461,0.723437101
0.169360648,0.076048408,0.031182349,0.723408595
0.169355678,0.076058186,0.031206319,0.723379818
0.169351,0.076067859,0.031230372,0.723350769
0.169346618,0.076077428,0.031254507,0.723321448
0.169342531,0.07608689,0.031278724,0.723291855
0.169338743,0.076096243,0.031303023,0.723261991
0.169335253,0.076105486,0.031327403,0.723231858
0.169332064,0.076114616,0.031351863,0.723201457
0.169329177,0.076123631,0.031376402,0.72317079
0.169326592,0.076132527,0.031401019,0.723139862
0.169324312,0.076141303,0.031425712,0.723108673
0.169322336,0.076149955,0.03145048,0.723077229
0.169320667,0.076158481,0.031475321,0.723045531
0.169319305,0.076166878,0.031500234,0.723013582
0.16931825,0.076175145,0.03152522,0.722981385
0.169317505,0.076183279,0.031550278,0.722948938
0.169317069,0.076191278,0.03157541,0.722916243
0.169316946,0.07619914,0.031600615,0.722883299
0.169317136,0.076206863,0.031625895,0.722850106
0.169317642,0.076214447,0.031651248,0.722816663
0.169318466,0.076221889,0.031676674,0.722782971
0.16931961,0.076229187,0.031702174,0.722749028
0.169321077,0.076236339,0.031727748,0.722714836
0.169322869,0.076243343,0.031753394,0.722680394
0.169324987,0.076250195,0.031779115,0.722645703
0.169327435,0.076256893,0.031804911,0.722610761
0.169330213,0.076263435,0.031830783,0.722575568
0.169333325,0.076269819,0.031856732,0.722540124
0.169336772,0.076276043,0.031882757,0.722504428
0.169340556,0.076282108,0.031908858,0.722468478
0.169344677,0.076288012,0.031935036,0.722432274
0.169349138,0.076293756,0.031961291,0.722395815
0.169353938,0.076299341,0.03198762,0.722359101
0.169359078,0.076304765,0.032014025,0.722322131
0.16936456,0.07631003,0.032040504,0.722284906
0.169370382,0.076315135,0.032067057,0.722247426
0.169376546,0.076320079,0.032093681,0.722209693
0.169383052,0.076324864,0.032120375,0.722171709
0.169389899,0.076329487,0.032147138,0.722133476
0.169397088,0.076333949,0.032173966,0.722094998
0.169404618,0.076338249,0.032200857,0.722056276
0.169412487,0.076342389,0.03222781,0.722017313
0.169420697,0.076346369,0.032254821,0.721978112
0.169429244,0.07635019,0.03228189,0.721938675
0.16943813,0.076353853,0.032309013,0.721899005
0.169447352,0.076357358,0.032336188,0.721859102
0.16945691,0.076360705,0.032363415,0.72181897
0.169466803,0.076363895,0.032390691,0.721778611
0.169477033,0.076366927,0.032418015,0.721738026
0.169487599,0.0763698,0.032445385,0.721697217
0.169498502,0.076372512,0.032472799,0.721656186
0.169509744,0.076375064,0.032500257,0.721614935
0.169521325,0.076377453,0.032527756,0.721573466
0.169533246,0.076379678,0.032555295,0.72153178
0.169545507,0.076381738,0.032582873,0.721489881
0.169558109,0.076383632,0.032610488,0.721447771
0.169571052,0.076385359,0.032638138,0.721405451
0.169584335,0.076386919,0.032665823,0.721362924
0.169597958,0.076388309,0.03269354,0.721320193
0.169611922,0.076389531,0.032721287,0.72127726
0.169626227,0.076390583,0.032749061,0.721234129
0.169640874,0.076391463,0.03277686,0.721190803
0.169655862,0.076392172,0.032804681,0.721147285
0.169671193,0.076392707,0.032832521,0.721103579
0.169686867,0.076393068,0.032860378,0.721059687
0.169702885,0.076393253,0.032888251,0.721015612
0.169719248,0.07639326,0.032916138,0.720971354
0.169735958,0.076393087,0.032944039,0.720926915
0.169753014,0.076392735,0.032971955,0.720882296
0.169770418,0.076392201,0.032999884,0.720837496
0.16978817,0.076391484,0.033027827,0.720792518
0.169806271,0.076390583,0.033055782,0.720747364
0.16982472,0.076389497,0.033083749,0.720702035
0.169843517,0.076388225,0.033111726,0.720656532
0.169862662,0.076386766,0.033139712,0.72061086
0.169882155,0.076385118,0.033167707,0.72056502
0.169901994,0.07638328,0.033195711,0.720519016
0.169922178,0.07638125,0.033223721,0.720472851
0.169942706,0.076379028,0.033251739,0.720426527
0.169963574,0.076376614,0.033279766,0.720380047
0.169984781,0.076374005,0.0333078,0.720333415
0.170006323,0.076371202,0.033335842,0.720286633
0.170028198,0.076368203,0.033363894,0.720239705
0.170050404,0.076365008,0.033391953,0.720192635
0.170072937,0.076361614,0.033420022,0.720145427
0.170095796,0.07635802,0.033448097,0.720098086
0.170118978,0.076354225,0.033476179,0.720050617
0.17014248,0.076350227,0.033504267,0.720003026
0.170166299,0.076346025,0.03353236,0.719955316
0.170190432,0.076341619,0.033560456,0.719907493
0.170214877,0.076337007,0.033588555,0.719859561
0.17023963,0.07633219,0.033616656,0.719811523
0.170264691,0.076327168,0.033644759,0.719763382
0.170290056,0.076321941,0.033672861,0.719715143
0.170315723,0.076316508,0.033700962,0.719666807
0.170341692,0.07631087,0.033729059,0.719618379
0.170367959,0.076305028,0.033757151,0.719569862
0.170394524,0.076298981,0.033785235,0.719521259
0.170421385,0.076292732,0.03381331,0.719472573
0.170448541,0.076286282,0.033841373,0.719423804
0.170475988,0.076279632,0.033869425,0.719374955
0.170503726,0.076272785,0.033897465,0.719326024
0.170531753,0.076265744,0.033925493,0.719277011
0.170560068,0.07625851,0.033953506,0.719227915
0.170588671,0.076251087,0.033981506,0.719178736
0.170617562,0.076243475,0.034009491,0.719129472
0.170646739,0.076235677,0.034037459,0.719080125
0.170676202,0.076227694,0.03406541,0.719030695
0.170705949,0.076219528,0.034093342,0.71898118
0.17073598,0.076211182,0.034121254,0.718931584
0.170766293,0.076202657,0.034149143,0.718881907
0.170796886,0.076193954,0.034177008,0.718832152
0.170827758,0.076185076,0.034204846,0.718782319
0.170858906,0.076176024,0.034232657,0.718732413
0.170890329,0.076166799,0.034260438,0.718682434
0.170922023,0.076157404,0.034288188,0.718632385
0.170953989,0.07614784,0.034315904,0.718582268
0.170986222,0.076138107,0.034343585,0.718532086
0.171018722,0.076128207,0.034371229,0.718481842
0.171051488,0.076118141,0.034398834,0.718431538
0.171084517,0.076107909,0.034426397,0.718381178
0.171117808,0.076097511,0.034453917,0.718330764
0.171151362,0.076086948,0.034481389,0.718280301
0.171185178,0.07607622,0.034508813,0.71822979
0.171219254,0.076065329,0.034536185,0.718179233
0.171253591,0.076054274,0.034563504,0.718128631
0.171288188,0.076043058,0.034590768,0.718077987
0.171323044,0.07603168,0.034617976,0.7180273
0.17135816,0.076020142,0.034645125,0.717976573
0.171393534,0.076008444,0.034672215,0.717925807
0.171429167,0.075996586,0.034699243,0.717875004
0.171465059,0.075984571,0.034726207,0.717824164
0.171501209,0.075972398,0.034753105,0.717773288
0.171537617,0.075960069,0.034779935,0.717722379
0.171574283,0.075947583,0.034806697,0.717671437
0.171611206,0.075934943,0.034833386,0.717620465
0.171648384,0.075922147,0.034860003,0.717569467
0.171685814,0.075909195,0.034886544,0.717518447
0.171723497,0.075896089,0.034913006,0.717467408
0.171761429,0.075882827,0.034939388,0.717416357
0.171799608,0.07586941,0.034965686,0.717365295
0.171838034,0.07585584,0.034991897,0.717314229
0.171876702,0.075842117,0.035018019,0.717263162
0.171915611,0.07582824,0.03504405,0.717212099
0.171954757,0.075814212,0.035069986,0.717161044
0.171994138,0.075800033,0.035095826,0.717110002
0.172033751,0.075785704,0.035121567,0.717058977
0.172073591,0.075771227,0.035147209,0.717007973
0.172113655,0.075756603,0.035172747,0.716956994
0.17215394,0.075741834,0.035198182,0.716906044
0.172194441,0.075726922,0.035223511,0.716855126
0.172235154,0.075711867,0.035248733,0.716804246
0.172276075,0.075696671,0.035273845,0.716753409
0.1723172,0.075681335,0.035298845,0.71670262
0.172358524,0.075665857,0.035323732,0.716651887
0.172400042,0.07565024,0.035348503,0.716601214
0.17244175,0.075634484,0.035373157,0.716550609
0.172483643,0.075618588,0.035397692,0.716500077
0.172525715,0.075602554,0.035422108,0.716449623
0.172567961,0.075586383,0.035446401,0.716399255
0.172610376,0.075570076,0.03547057,0.716348979
0.172652954,0.075553632,0.035494613,0.716298801
0.172695691,0.075537052,0.035518527,0.71624873
0.172738579,0.075520337,0.03554231,0.716198773
0.172781615,0.075503487,0.035565961,0.716148937
0.172824793,0.075486503,0.035589477,0.716099227
0.172868106,0.075469386,0.03561286,0.716049648
0.17291155,0.075452136,0.035636108,0.716000206
0.172955119,0.075434754,0.035659221,0.715950905
0.172998809,0.075417242,0.035682198,0.715901751
0.173042615,0.0753996,0.035705037,0.715852748
0.173086533,0.075381828,0.035727737,0.715803902
0.173130558,0.075363929,0.035750297,0.715755216
0.173174687,0.075345901,0.035772717,0.715706695
0.173218914,0.075327747,0.035794995,0.715658343
0.173263237,0.075309468,0.035817133,0.715610162
0.173307649,0.075291067,0.03583913,0.715562154
0.173352146,0.075272546,0.035860987,0.715514321
0.173396725,0.075253907,0.035882705,0.715466663
0.173441381,0.075235152,0.035904286,0.715419182
0.17348611,0.075216283,0.035925729,0.715371878
0.173530909,0.075197303,0.035947035,0.715324752
0.173575777,0.075178212,0.035968204,0.715277807
0.173620713,0.075159012,0.035989233,0.715231042
0.173665714,0.075139702,0.036010124,0.71518446
0.17371078,0.075120285,0.036030873,0.715138061
0.173755911,0.075100762,0.036051481,0.715091846
0.173801104,0.075081133,0.036071946,0.715045817
0.173846361,0.0750614,0.036092266,0.714999974
0.173891679,0.075041562,0.036112441,0.714954317
0.173937058,0.075021621,0.036132472,0.714908849
0.173982496,0.075001577,0.036152358,0.71486357
0.174027992,0.07498143,0.036172098,0.71481848
0.174073546,0.074961182,0.036191693,0.714773579
0.174119155,0.074940833,0.036211143,0.71472887
0.174164818,0.074920385,0.036230446,0.714684352
0.174210535,0.074899838,0.036249602,0.714640026
0.174256303,0.074879192,0.036268612,0.714595893
0.174302122,0.07485845,0.036287474,0.714551954
0.17434799,0.074837611,0.036306189,0.714508211
0.174393905,0.074816675,0.036324755,0.714464665
0.174439865,0.074795643,0.036343172,0.71442132
0.174485869,0.074774516,0.036361438,0.714378178
0.174531914,0.074753292,0.036379551,0.714335243
0.174577998,0.074731973,0.036397511,0.714292518
0.174624117,0.07471056,0.036415317,0.714250006
0.17467027,0.074689054,0.036432965,0.714207711
0.174716452,0.074667455,0.036450456,0.714165636
0.174762662,0.074645766,0.036467788,0.714123784
0.174808895,0.074623988,0.036484959,0.714082157
0.17485515,0.074602122,0.03650197,0.714040758
0.174901425,0.07458017,0.036518817,0.713999588
0.174947715,0.074558133,0.036535502,0.71395865
0.17499402,0.074536012,0.036552022,0.713917946
0.175040339,0.074513809,0.036568375,0.713877477
0.175086671,0.074491524,0.03658456,0.713837245
0.175133017,0.074469158,0.036600574,0.713797251
0.175179379,0.07444671,0.036616416,0.713757494
0.175225759,0.074424182,0.036632084,0.713717975
0.175272158,0.074401574,0.036647575,0.713678693
0.17531858,0.074378886,0.036662887,0.713639647
0.175365025,0.074356118,0.036678018,0.713600839
0.175411496,0.07433327,0.036692966,0.713562268
0.175457996,0.074310342,0.036707729,0.713523934
0.175504525,0.074287334,0.036722304,0.713485838
0.175551086,0.074264245,0.036736689,0.713447981
0.17559768,0.074241076,0.036750882,0.713410363
0.175644308,0.074217826,0.036764881,0.713372985
0.175690973,0.074194495,0.036778686,0.713335846
0.175737676,0.074171085,0.036792293,0.713298946
0.175784417,0.074147596,0.036805703,0.713262285
0.175831199,0.074124027,0.036818912,0.713225862
0.175878022,0.074100381,0.036831921,0.713189676
0.175924888,0.074076657,0.03684473,0.713153725
0.175971796,0.074052857,0.03685734,0.713118008
0.176018746,0.074028981,0.036869751,0.713082522
0.176065739,0.074005031,0.036881963,0.713047267
0.176112775,0.073981008,0.036893975,0.713012242
0.176159853,0.073956912,0.036905787,0.712977447
0.176206974,0.073932745,0.036917399,0.712942882
0.176254137,0.073908507,0.036928807,0.712908549
0.176301342,0.073884197,0.036940012,0.712874449
0.176348587,0.073859815,0.036951013,0.712840585
0.176395871,0.073835361,0.036961807,0.71280696
0.176443193,0.073810836,0.036972394,0.712773576
0.176490551,0.073786238,0.036982775,0.712740435
0.176537944,0.073761567,0.036992949,0.71270754
0.17658537,0.073736823,0.037002914,0.712674893
0.176632828,0.073712006,0.03701267,0.712642496
0.176680315,0.073687116,0.037022216,0.712610353
0.176727831,0.073662152,0.03703155,0.712578467
0.176775375,0.073637114,0.037040671,0.71254684
0.176822947,0.073612,0.037049579,0.712515475
0.176870545,0.07358681,0.037058272,0.712484373
0.17691817,0.073561542,0.037066751,0.712453537
0.17696582,0.073536194,0.037075017,0.712422968
0.177013497,0.073510765,0.037083069,0.712392669
0.177061199,0.073485253,0.037090908,0.71236264
0.177108926,0.073459656,0.037098533,0.712332885
0.177156678,0.073433974,0.037105943,0.712303405
0.177204455,0.073408205,0.037113139,0.712274201
0.177252258,0.073382348,0.037120119,0.712245276
0.177300086,0.073356401,0.037126882,0.712216631
0.177347939,0.073330363,0.037133429,0.712188269
0.177395819,0.073304233,0.037139757,0.71216019
0.177443727,0.073278009,0.037145867,0.712132397
0.177491665,0.073251689,0.037151758,0.712104888
0.177539635,0.073225273,0.037157429,0.712077664
0.177587639,0.073198759,0.037162879,0.712050723
0.17763568,0.073172148,0.03716811,0.712024063
0.17768376,0.073145437,0.037173119,0.711997684
0.177731882,0.073118628,0.037177906,0.711971584
0.177780047,0.073091718,0.037182471,0.711945763
0.17782826,0.073064708,0.037186812,0.711920221
0.17787652,0.073037596,0.037190928,0.711894955
0.177924832,0.073010381,0.03719482,0.711869967
0.177973196,0.072983062,0.037198486,0.711845257
0.178021614,0.072955637,0.037201926,0.711820824
0.178070087,0.072928104,0.03720514,0.711796669
0.178118616,0.072900464,0.037208129,0.711772791
0.178167203,0.072872715,0.037210893,0.711749189
0.178215848,0.072844857,0.037213432,0.711725863
0.178264551,0.07281689,0.037215746,0.711702813
0.178313313,0.072788815,0.037217835,0.711680037
0.178362134,0.072760632,0.037219699,0.711657536
0.178411014,0.072732342,0.037221337,0.711635307
0.178459953,0.072703946,0.03722275,0.711613351
0.178508952,0.072675446,0.037223937,0.711591666
0.178558009,0.072646841,0.037224898,0.711570252
0.178607125,0.072618134,0.037225632,0.711549109
0.1786563,0.072589323,0.037226138,0.711528239
0.178705533,0.07256041,0.037226416,0.711507641
0.178754824,0.072531395,0.037226463,0.711487318
0.178804174,0.072502278,0.037226278,0.711467271
0.178853583,0.072473057,0.03722586,0.7114475
0.178903052,0.072443733,0.037225209,0.711428006
0.178952581,0.072414306,0.037224325,0.711408788
0.179002172,0.072384774,0.03722321,0.711389844
0.179051826,0.072355137,0.037221864,0.711371173
0.179101545,0.072325396,0.037220288,0.711352771
0.17915133,0.07229555,0.037218485,0.711334636
0.179201183,0.072265598,0.037216454,0.711316765
0.179251104,0.072235542,0.037214196,0.711299158
0.179301095,0.07220538,0.037211712,0.711281812
0.179351157,0.072175114,0.037209002,0.711264727
0.17940129,0.072144743,0.037206066,0.711247902
0.179451495,0.072114267,0.037202902,0.711231336
0.179501773,0.072083687,0.03719951,0.71121503
0.179552126,0.072053001,0.037195891,0.711198982
0.179602553,0.072022211,0.037192044,0.711183192
0.179653056,0.071991318,0.037187969,0.711167657
0.179703636,0.071960321,0.037183666,0.711152377
0.179754292,0.071929222,0.037179138,0.711137348
0.179805026,0.071898022,0.037174384,0.711122567
0.179855838,0.071866723,0.037169406,0.711108033
0.179906728,0.071835327,0.037164204,0.711093742
0.179957696,0.071803834,0.037158778,0.711079692
0.180008743,0.071772247,0.037153131,0.711065879
0.180059869,0.071740568,0.037147263,0.7110523
0.180111075,0.071708799,0.037141175,0.711038951
0.180162359,0.07167694,0.03713487,0.711025831
0.180213722,0.071644993,0.037128348,0.711012937
0.180265164,0.07161296,0.037121612,0.711000265
0.180316684,0.07158084,0.037114663,0.710987813
0.18036828,0.071548635,0.037107504,0.71097558
0.180419953,0.071516346,0.037100137,0.710963564
0.1804717,0.071483971,0.037092564,0.710951766
0.18052352,0.07145151,0.037084785,0.710940185
0.18057541,0.071418964,0.037076802,0.710928823
0.180627369,0.071386332,0.037068617,0.710917682
0.180679392,0.071353614,0.03706023,0.710906765
0.180731478,0.071320807,0.037051643,0.710896072
0.180783624,0.071287913,0.037042858,0.710885605
0.180835828,0.07125493,0.037033877,0.710875365
0.180888089,0.071221856,0.037024701,0.710865354
0.180940404,0.071188692,0.037015332,0.710855572
0.180992772,0.071155436,0.03700577,0.710846022
0.181045191,0.071122087,0.036996017,0.710836704
0.18109766,0.071088646,0.036986073,0.710827621
0.181150176,0.071055112,0.036975939,0.710818773
0.181202739,0.071021483,0.036965614,0.710810164
0.181255346,0.07098776,0.036955099,0.710801794
0.181307997,0.070953943,0.036944394,0.710793666
0.181360691,0.070920031,0.036933498,0.710785779
0.181413428,0.070886028,0.036922411,0.710778133
0.181466206,0.070851933,0.036911135,0.710770726
0.181519028,0.07081775,0.036899668,0.710763554
0.181571892,0.070783481,0.036888013,0.710756615
0.181624801,0.070749127,0.03687617,0.710749903
0.181677754,0.070714691,0.036864141,0.710743413
0.181730754,0.070680176,0.036851929,0.710737142
0.181783799,0.070645585,0.036839534,0.710731082
0.181836892,0.070610919,0.036826958,0.710725231
0.181890034,0.070576183,0.036814202,0.710719582
0.181943224,0.070541378,0.036801266,0.710714132
0.181996465,0.070506508,0.03678815,0.710708877
0.182049756,0.070471577,0.036774853,0.710703813
0.1821031,0.070436587,0.036761376,0.710698936
0.182156497,0.070401543,0.036747718,0.710694242
0.182209946,0.070366449,0.036733879,0.710689725
0.182263449,0.070331307,0.036719862,0.710685381
0.182317006,0.070296123,0.036705668,0.710681204
0.182370616,0.070260897,0.036691298,0.710677189
0.182424278,0.070225634,0.036676755,0.710673333
0.182477993,0.070190336,0.03666204,0.710669631
0.18253176,0.070155006,0.036647155,0.71066608
0.182585577,0.070119645,0.0366321,0.710662677
0.182639444,0.070084258,0.036616877,0.710659421
0.182693358,0.070048847,0.036601488,0.710656307
0.182747317,0.070013415,0.036585933,0.710653335
0.182801319,0.069977964,0.036570214,0.710650503
0.182855359,0.069942497,0.036554332,0.710647812
0.182909434,0.069907017,0.036538286,0.710645263
0.182963538,0.069871528,0.036522078,0.710642855
0.183017668,0.069836033,0.036505709,0.71064059
0.18307182,0.069800535,0.036489178,0.710638467
0.183125988,0.069765037,0.036472487,0.710636488
0.183180169,0.069729545,0.036455635,0.710634651
0.183234357,0.069694062,0.036438623,0.710632959
0.183288547,0.069658593,0.036421449,0.710631411
0.183342735,0.069623142,0.036404115,0.710630008
0.183396914,0.069587714,0.036386619,0.710628753
0.18345108,0.069552312,0.036368961,0.710627647
0.183505226,0.069516941,0.036351141,0.710626692
0.183559346,0.069481605,0.036333159,0.710625889
0.183613433,0.069446309,0.036315017,0.71062524
0.183667481,0.069411054,0.036296717,0.710624748
0.183721482,0.069375846,0.036278259,0.710624414
0.183775429,0.069340686,0.036259645,0.710624241
0.183829316,0.069305577,0.036240875,0.710624232
0.183883136,0.069270523,0.036221951,0.71062439
0.183936882,0.069235524,0.036202874,0.71062472
0.183990548,0.069200583,0.036183646,0.710625223
0.184044128,0.069165701,0.036164268,0.710625902
0.184097616,0.06913088,0.036144745,0.71062676
0.184151006,0.069096119,0.036125078,0.710627797
0.184204295,0.069061421,0.03610527,0.710629014
0.184257477,0.069026787,0.036085324,0.710630411
0.184310548,0.06899222,0.036065242,0.710631991
0.184363503,0.06895772,0.036045026,0.710633752
0.18441634,0.06892329,0.036024676,0.710635694
0.184469053,0.068888932,0.036004196,0.710637818
0.18452164,0.068854649,0.035983588,0.710640123
0.184574097,0.068820443,0.035962851,0.710642608
0.184626421,0.068786317,0.035941989,0.710645273
0.184678609,0.068752271,0.035921003,0.710648117
0.184730659,0.068718308,0.035899893,0.71065114
0.184782565,0.06868443,0.035878662,0.710654342
0.184834326,0.06865064,0.035857312,0.710657723
0.184885937,0.068616938,0.035835845,0.71066128
0.184937394,0.068583327,0.035814266,0.710665013
0.184988692,0.06854981,0.035792578,0.710668921
0.185039827,0.068516388,0.035770784,0.710673002
0.185090793,0.068483064,0.035748888,0.710677256
0.185141585,0.068449841,0.035726892,0.710681682
0.185192198,0.068416721,0.0357048,0.710686282
0.185242625,0.068383707,0.035682613,0.710691056
0.185292861,0.0683508,0.035660334,0.710696005
0.185342901,0.068318004,0.035637965,0.710701131
0.185392738,0.068285319,0.035615508,0.710706436
0.185442369,0.068252746,0.035592965,0.71071192
0.185491788,0.068220289,0.035570338,0.710717584
0.185540993,0.068187948,0.03554763,0.710723429
0.185589978,0.068155725,0.035524842,0.710729456
0.185638739,0.068123621,0.035501975,0.710735665
0.185687272,0.068091636,0.035479033,0.710742059
0.18573557,0.068059772,0.035456017,0.710748641
0.185783631,0.068028029,0.035432929,0.710755411
0.185831449,0.067996407,0.035409771,0.710762373
0.185879021,0.067964905,0.035386546,0.710769528
0.185926343,0.067933526,0.035363254,0.710776877
0.185973412,0.067902269,0.035339898,0.710784421
0.186020225,0.067871136,0.035316478,0.710792161
0.18606678,0.06784013,0.035292995,0.710800095
0.186113074,0.067809251,0.035269453,0.710808222
0.186159105,0.067778504,0.035245852,0.71081654
0.18620487,0.067747891,0.035222193,0.710825045
0.186250367,0.067717416,0.035198481,0.710833737
0.186295594,0.06768708,0.035174715,0.71084261
0.18634055,0.067656886,0.0351509,0.710851663
0.186385234,0.067626837,0.035127037,0.710860892
0.186429644,0.067596933,0.035103129,0.710870294
0.186473779,0.067567177,0.035079179,0.710879864
0.18651764,0.067537571,0.03505519,0.710889599
0.186561224,0.067508116,0.035031164,0.710899496
0.186604531,0.067478813,0.035007104,0.710909551
0.186647561,0.067449665,0.034983013,0.710919761
0.186690313,0.067420673,0.034958891,0.710930123
0.186732786,0.067391837,0.034934742,0.710940635
0.186774982,0.067363159,0.034910566,0.710951294
0.1868169,0.067334639,0.034886364,0.710962097
0.186858542,0.067306279,0.034862137,0.710973043
0.186899909,0.067278079,0.034837884,0.710984128
0.186941003,0.067250039,0.034813607,0.710995351
0.186981825,0.067222158,0.034789305,0.711006712
0.187022377,0.067194438,0.034764978,0.711018207
0.187062659,0.067166878,0.034740626,0.711029836
0.187102673,0.067139478,0.034716253,0.711041596
0.18714242,0.067112237,0.034691859,0.711053485
0.1871819,0.067085155,0.034667447,0.711065498
0.187221115,0.067058232,0.034643022,0.711077632
0.187260065,0.067031467,0.034618584,0.711089883
0.187298754,0.067004863,0.034594138,0.711102245
0.187337181,0.06697842,0.034569684,0.711114715
0.187375347,0.066952139,0.034545225,0.711127289
0.187413255,0.06692602,0.034520762,0.711139964
0.187450904,0.066900065,0.034496296,0.711152735
0.187488294,0.066874276,0.034471831,0.711165599
0.187525428,0.066848653,0.034447367,0.711178552
0.187562306,0.066823197,0.034422906,0.711191592
0.187598927,0.06679791,0.03439845,0.711204713
0.187635293,0.066772792,0.034374002,0.711217914
0.187671402,0.066747843,0.034349564,0.711231191
0.187707257,0.066723063,0.03432514,0.711244539
0.187742858,0.066698453,0.034300732,0.711257957
0.187778206,0.066674012,0.034276341,0.71127144
0.187813303,0.06664974,0.03425197,0.711284986
0.18784815,0.066625638,0.034227622,0.711298591
0.187882746,0.066601706,0.034203297,0.71131225
0.187917094,0.066577944,0.034179002,0.71132596
0.187951193,0.066554353,0.034154739,0.711339715
0.187985043,0.066530936,0.034130512,0.711353509
0.188018644,0.066507692,0.034106326,0.711367338
0.188051998,0.066484623,0.034082183,0.711381196
0.188085103,0.066461731,0.034058087,0.711395079
0.18811796,0.066439015,0.034034041,0.711408984
0.188150571,0.066416477,0.034010048,0.711422904
0.188182934,0.066394117,0.033986112,0.711436837
0.18821505,0.066371937,0.033962237,0.711450776
0.188246921,0.066349937,0.033938426,0.711464716
0.188278546,0.066328118,0.033914686,0.71147865
0.188309926,0.066306482,0.03389102,0.711492572
0.188341063,0.06628503,0.033867431,0.711506476
0.188371956,0.066263762,0.033843925,0.711520357
0.188402608,0.066242679,0.033820505,0.711534209
0.188433018,0.066221782,0.033797175,0.711548026
0.188463187,0.066201073,0.033773939,0.711561802
0.188493115,0.066180553,0.033750801,0.711575531
0.188522802,0.066160224,0.033727769,0.711589205
0.188552249,0.066140089,0.033704848,0.711602813
0.188581454,0.066120152,0.033682046,0.711616348
0.188610417,0.066100415,0.033659369,0.7116298
0.188639138,0.06608088,0.033636824,0.711643159
0.188667617,0.06606155,0.033614416,0.711656417
0.188695855,0.066042427,0.033592153,0.711669565
0.188723853,0.066023513,0.033570039,0.711682595
0.188751612,0.06600481,0.033548081,0.711695498
0.188779132,0.065986318,0.033526283,0.711708267
0.188806415,0.065968039,0.033504652,0.711720893
0.188833461,0.065949974,0.033483195,0.71173337
0.18886027,0.065932124,0.033461918,0.711745687
0.188886841,0.06591449,0.033440829,0.711757839
0.188913176,0.065897072,0.033419934,0.711769817
0.188939274,0.065879871,0.03339924,0.711781615
0.188965134,0.065862888,0.033378753,0.711793225
0.188990756,0.065846125,0.033358479,0.71180464
0.189016139,0.065829583,0.033338424,0.711815855
0.189041282,0.065813262,0.033318594,0.711826862
0.189066184,0.065797165,0.033298994,0.711837658
0.189090843,0.06578129,0.033279631,0.711848237
0.189115258,0.065765639,0.033260508,0.711858595
0.189139427,0.065750211,0.033241633,0.711868729
0.18916335,0.065735005,0.033223011,0.711878635
0.189187023,0.065720021,0.033204645,0.71188831
0.189210446,0.065705259,0.033186543,0.711897752
0.189233616,0.065690719,0.033168708,0.711906957
0.189256532,0.065676401,0.033151145,0.711915921
0.189279191,0.065662307,0.03313386,0.711924642
0.189301593,0.065648436,0.033116856,0.711933114
0.189323735,0.065634789,0.033100141,0.711941335
0.189345616,0.065621367,0.033083718,0.711949299
0.189367235,0.065608169,0.033067594,0.711957002
0.189388592,0.065595194,0.033051773,0.71196444
0.189409687,0.065582443,0.033036261,0.71197161
0.189430517,0.065569914,0.033021061,0.711978508
0.189451084,0.065557607,0.033006179,0.71198513
0.189471386,0.065545522,0.032991619,0.711991474
0.189491421,0.065533659,0.032977384,0.711997535
0.189511188,0.065522019,0.032963482,0.712003311
0.189530686,0.065510602,0.032949916,0.712008796
0.189549912,0.065499408,0.032936693,0.712013986
0.189568866,0.065488438,0.032923819,0.712018878
0.189587545,0.065477691,0.032911299,0.712023465
0.189605947,0.065467169,0.032899139,0.712027745
0.189624073,0.06545687,0.032887342,0.712031715
0.189641919,0.065446797,0.032875915,0.712035369
0.189659485,0.065436949,0.032864861,0.712038705
0.189676771,0.065427327,0.032854184,0.712041719
0.189693776,0.06541793,0.032843887,0.712044407
0.189710501,0.06540876,0.032833973,0.712046767
0.189726946,0.065399816,0.032824446,0.712048792
0.189743113,0.065391099,0.032815308,0.712050479
0.189759004,0.065382609,0.032806564,0.712051823
0.189774621,0.065374346,0.032798216,0.712052818
0.189789964,0.06536631,0.032790266,0.712053459
0.189805037,0.065358502,0.032782718,0.712053743
0.189819842,0.065350922,0.032775573,0.712053663
0.189834379,0.065343569,0.032768835,0.712053217
0.189848652,0.065336444,0.032762505,0.712052399
0.189862663,0.065329545,0.032756587,0.712051205
0.189876413,0.065322871,0.032751083,0.712049632
0.189889906,0.065316422,0.032745997,0.712047675
0.189903143,0.065310198,0.032741331,0.712045328
0.189916126,0.065304199,0.032737087,0.712042587
0.189928857,0.065298427,0.032733268,0.712039448
0.189941337,0.065292884,0.032729876,0.712035904
0.189953565,0.06528757,0.032726912,0.712031952
0.189965542,0.065282489,0.032724379,0.712027589
0.189977268,0.065277641,0.032722278,0.712022813
0.18998874,0.065273028,0.032720608,0.712017623
0.189999959,0.065268652,0.032719372,0.712012017
0.190010923,0.065264513,0.032718568,0.712005996
0.19002163,0.065260615,0.032718197,0.711999558
0.190032081,0.065256957,0.032718258,0.711992704
0.190042273,0.065253542,0.032718753,0.711985432
0.190052205,0.065250371,0.032719681,0.711977743
0.190061876,0.065247443,0.032721045,0.711969635
0.190071285,0.065244761,0.032722845,0.71196111
0.190080431,0.065242323,0.03272508,0.711952166
0.190089312,0.06524013,0.032727753,0.711942805
0.19009793,0.065238183,0.032730862,0.711933026
0.190106284,0.06523648,0.032734407,0.71192283
0.190114376,0.06523502,0.032738388,0.711912216
0.190122205,0.065233804,0.032742807,0.711901184
0.190129772,0.065232831,0.032747663,0.711889734
0.190137074,0.0652321,0.03275296,0.711877866
0.190144112,0.065231612,0.032758696,0.71186558
0.190150883,0.065231365,0.032764873,0.711852879
0.190157385,0.065231359,0.032771489,0.711839767
0.190163615,0.065231594,0.032778546,0.711826245
0.19016957,0.065232069,0.032786042,0.711812319
0.190175247,0.065232785,0.032793979,0.711797989
0.190180644,0.06523374,0.032802357,0.711783259
0.190185757,0.065234936,0.032811178,0.711768128
0.190190584,0.065236373,0.032820444,0.7117526
0.19019512,0.06523805,0.032830156,0.711736674
0.190199364,0.06523997,0.032840314,0.711720352
0.190203311,0.065242132,0.032850922,0.711703635
0.190206958,0.065244537,0.03286198,0.711686526
0.190210302,0.065247185,0.032873489,0.711669024
0.19021334,0.065250077,0.032885452,0.711651131
0.190216069,0.065253213,0.032897869,0.711632848
0.190218486,0.065256593,0.032910745,0.711614176
0.190220587,0.065260215,0.032924083,0.711595114
0.19022237,0.065264081,0.032937887,0.711575662
0.190223832,0.065268188,0.032952162,0.711555818
0.190224968,0.065272535,0.032966912,0.711535584
0.190225775,0.065277123,0.032982141,0.711514961
0.19022625,0.065281951,0.032997849,0.71149395
0.190226388,0.065287017,0.033014041,0.711472553
0.190226185,0.065292322,0.033030718,0.711450775
0.190225636,0.065297865,0.033047882,0.711428618
0.190224735,0.065303646,0.033065534,0.711406085
0.190223479,0.065309664,0.033083677,0.71138318
0.190221862,0.065315921,0.033102312,0.711359905
0.19021988,0.065322416,0.033121442,0.711336262
0.190217527,0.06532915,0.033141069,0.711312254
0.1902148,0.065336125,0.033161194,0.711287881
0.190211694,0.06534334,0.033181821,0.711263145
0.190208205,0.065350796,0.033202952,0.711238047
0.190204331,0.065358496,0.033224587,0.711212587
0.190200068,0.065366439,0.033246729,0.711186765
0.190195413,0.065374627,0.033269378,0.711160582
0.190190364,0.065383062,0.033292535,0.711134039
0.190184917,0.065391745,0.0333162,0.711107137
0.19017907,0.065400679,0.033340375,0.711079876
0.19017282,0.065409864,0.033365059,0.711052257
0.190166166,0.065419302,0.033390253,0.71102428
0.190159106,0.065428993,0.033415956,0.710995945
0.19015164,0.06543894,0.033442171,0.71096725
0.190143766,0.065449142,0.033468896,0.710938195
0.190135485,0.065459602,0.033496133,0.710908779
0.190126796,0.06547032,0.033523882,0.710879002
0.190117699,0.065481296,0.033552143,0.710848863
0.190108192,0.065492531,0.033580916,0.710818361
0.190098276,0.065504024,0.033610203,0.710787496
0.190087951,0.065515775,0.033640006,0.710756268
0.190077217,0.065527784,0.033670325,0.710724675
0.190066075,0.065540049,0.033701161,0.710692714
0.190054526,0.065552572,0.033732516,0.710660386
0.190042571,0.065565351,0.033764388,0.710627689
0.190030212,0.065578385,0.033796779,0.710594623
0.19001745,0.065591674,0.033829688,0.710561189
0.190004286,0.065605215,0.033863114,0.710527385
0.189990722,0.065619008,0.033897056,0.710493213
0.189976759,0.065633053,0.033931516,0.710458672
0.189962399,0.065647349,0.033966494,0.710423759
0.189947642,0.065661896,0.034001993,0.71038847
0.189932489,0.065676696,0.034038014,0.710352802
0.189916941,0.065691749,0.034074561,0.71031675
0.189900998,0.065707056,0.034111636,0.710280309
0.189884662,0.065722618,0.034149244,0.710243477
0.189867931,0.065738436,0.034187385,0.710206248
0.189850807,0.065754509,0.034226062,0.710168622
0.18983329,0.065770837,0.034265276,0.710130596
0.189815383,0.065787422,0.034305028,0.710092167
0.189797086,0.065804262,0.034345318,0.710053334
0.189778401,0.065821358,0.034386145,0.710014096
0.189759331,0.065838709,0.034427509,0.709974451
0.189739877,0.065856316,0.034469407,0.709934399
0.189720044,0.065874177,0.03451184,0.709893939
0.189699833,0.065892291,0.034554806,0.70985307
0.189679248,0.065910658,0.034598305,0.709811789
0.189658292,0.065929276,0.034642335,0.709770097
0.189636967,0.065948146,0.034686894,0.709727993
0.189615278,0.065967267,0.034731982,0.709685474
0.189593225,0.065986637,0.034777598,0.70964254
0.189570812,0.066006257,0.034823741,0.709599189
0.189548041,0.066026128,0.034870411,0.709555421
0.189524912,0.06604625,0.034917606,0.709511232
0.189501427,0.066066625,0.034965324,0.709466625
0.189477585,0.066087254,0.035013562,0.709421598
0.189453388,0.066108139,0.035062319,0.709376155
0.189428835,0.066129279,0.03511159,0.709330296
0.189403927,0.066150677,0.035161373,0.709284023
0.189378663,0.066172332,0.035211665,0.709237339
0.189353044,0.066194244,0.035262465,0.709190247
0.189327068,0.066216413,0.035313771,0.709142748
0.189300736,0.066238839,0.035365581,0.709094845
0.189274046,0.06626152,0.035417893,0.709046541
0.189246998,0.066284457,0.035470708,0.708997837
0.189219592,0.06630765,0.035524023,0.708948735
0.189191828,0.066331098,0.03557784,0.708899234
0.189163707,0.066354803,0.035632156,0.708849335
0.189135227,0.066378762,0.035686972,0.708799039
0.189106391,0.066402977,0.035742285,0.708748347
0.189077199,0.066427446,0.035798094,0.708697261
0.189047656,0.066452168,0.035854396,0.70864578
0.189017762,0.066477144,0.035911189,0.708593904
0.188987523,0.066502372,0.035968471,0.708541633
0.18895694,0.066527853,0.03602624,0.708488967
0.188926017,0.066553586,0.036084492,0.708435905
0.188894757,0.066579569,0.036143228,0.708382446
0.188863163,0.066605802,0.036202445,0.70832859
0.188831237,0.066632283,0.036262142,0.708274337
0.188798983,0.066659011,0.03632232,0.708219686
0.188766403,0.066685983,0.036382978,0.708164636
0.1887335,0.066713198,0.036444116,0.708109186
0.188700277,0.066740655,0.036505733,0.708053335
0.188666736,0.066768354,0.036567829,0.707997081
0.188632879,0.066796294,0.036630403,0.707940424
0.188598709,0.066824475,0.036693454,0.707883362
0.188564229,0.066852897,0.036756981,0.707825893
0.188529441,0.06688156,0.036820982,0.707768018
0.188494347,0.066910461,0.036885456,0.707709736
0.18845895,0.0669396,0.036950401,0.707651048
0.188423252,0.066968977,0.037015815,0.707591956
0.188387256,0.066998588,0.037081695,0.707532461
0.188350963,0.067028434,0.037148038,0.707472566
0.188314375,0.067058511,0.037214841,0.707412273
0.188277495,0.067088818,0.037282101,0.707351585
0.188240325,0.067119353,0.037349817,0.707290505
0.188202868,0.067150114,0.037417984,0.707229034
0.188165127,0.067181098,0.037486602,0.707167173
0.188127105,0.067212305,0.037555669,0.707104921
0.188088806,0.067243732,0.037625184,0.707042278
0.188050235,0.067275377,0.037695145,0.706979243
0.188011394,0.067307239,0.037765551,0.706915817
0.187972288,0.067339316,0.037836399,0.706851997
0.187932921,0.067371607,0.037907686,0.706787786
0.187893297,0.067404111,0.037979409,0.706723183
0.18785342,0.067436826,0.038051564,0.70665819
0.187813294,0.067469753,0.038124147,0.706592806
0.187772921,0.067502889,0.038197156,0.706527034
0.187732304,0.067536234,0.038270588,0.706460874
0.187691447,0.067569786,0.038344442,0.706394325
0.187650353,0.067603544,0.038418716,0.706327387
0.187609023,0.067637506,0.038493411,0.70626006
0.187567459,0.067671673,0.038568526,0.706192343
0.187525663,0.067706043,0.038644059,0.706124234
0.187483638,0.067740616,0.03872001,0.706055735
0.187441385,0.067775392,0.038796377,0.705986845
0.187398906,0.06781037,0.038873159,0.705917565
0.187356203,0.067845548,0.038950355,0.705847894
0.187313276,0.067880927,0.039027963,0.705777834
0.187270128,0.067916504,0.039105984,0.705707384
0.187226759,0.06795228,0.039184415,0.705636545
0.18718317,0.067988253,0.039263257,0.70556532
0.187139362,0.068024424,0.039342507,0.705493707
0.187095336,0.068060792,0.039422164,0.705421708
0.187051091,0.068097357,0.039502227,0.705349325
0.18700663,0.068134118,0.039582692,0.70527656
0.186961954,0.068171076,0.039663557,0.705203412
0.186917066,0.06820823,0.039744821,0.705129884
0.186871965,0.068245579,0.039826481,0.705055975
0.186826655,0.068283125,0.039908536,0.704981685
0.186781135,0.068320865,0.039990984,0.704907015
0.186735406,0.0683588,0.040073824,0.70483197
0.186689469,0.068396928,0.040157052,0.704756551
0.186643322,0.068435249,0.040240667,0.704680762
0.186596967,0.068473761,0.040324664,0.704604608
0.186550402,0.068512465,0.040409043,0.704528091
0.186503626,0.068551359,0.0404938,0.704451215
0.18645664,0.068590443,0.040578933,0.704373984
0.186409442,0.068629716,0.040664441,0.704296401
0.186362031,0.068669179,0.040750319,0.704218471
0.186314407,0.068708831,0.040836565,0.704140197
0.186266568,0.068748671,0.040923174,0.704061586
0.186218515,0.068788701,0.041010142,0.703982642
0.186170246,0.068828918,0.041097466,0.703903371
0.186121761,0.068869322,0.041185142,0.703823775
0.186073062,0.068909914,0.041273165,0.703743859
0.186024148,0.068950692,0.041361533,0.703663627
0.185975019,0.068991657,0.041450244,0.70358308
0.185925679,0.069032806,0.041539294,0.703502221
0.185876128,0.069074141,0.041628681,0.70342105
0.185826369,0.069115659,0.041718403,0.703339569
0.185776406,0.06915736,0.041808457,0.703257777
0.185726241,0.069199242,0.041898841,0.703175676
0.185675876,0.069241306,0.041989552,0.703093265
0.185625315,0.06928355,0.04208059,0.703010545
0.185574559,0.069325972,0.042171952,0.702927517
0.185523611,0.069368573,0.042263636,0.702844181
0.185472472,0.069411351,0.04235564,0.702760537
0.185421146,0.069454307,0.042447963,0.702676583
0.185369635,0.069497443,0.042540603,0.702592318
0.185317941,0.069540759,0.042633559,0.702507741
0.185266067,0.069584258,0.042726828,0.702422847
0.185214017,0.069627941,0.042820408,0.702337635
0.185161792,0.06967181,0.042914298,0.7022521
0.185109396,0.069715867,0.043008497,0.70216624
0.185056832,0.069760114,0.043103001,0.702080053
0.185004102,0.069804553,0.04319781,0.701993534
0.18495121,0.069849185,0.043292922,0.701906684
0.184898157,0.06989401,0.043388333,0.701819499
0.184844948,0.069939031,0.043484043,0.701731978
0.184791584,0.069984246,0.043580052,0.701644118
0.184738067,0.070029659,0.043676359,0.701555914
0.1846844,0.07007527,0.043772966,0.701467364
0.184630585,0.07012108,0.043869873,0.701378463
0.184576623,0.070167089,0.043967082,0.701289207
0.184522515,0.070213297,0.044064596,0.701199592
0.184468262,0.070259704,0.044162418,0.701109616
0.184413865,0.070306311,0.044260549,0.701019275
0.184359326,0.070353116,0.044358992,0.700928566
0.184304644,0.070400118,0.044457748,0.70083749
0.184249822,0.070447318,0.044556817,0.700746043
0.184194861,0.070494714,0.044656199,0.700654225
0.184139762,0.070542307,0.044755895,0.700562035
0.184084528,0.070590096,0.044855904,0.700469472
0.184029161,0.07063808,0.044956225,0.700376534
0.183973664,0.07068626,0.045056858,0.700283219
0.18391804,0.070734637,0.045157799,0.700189524
0.183862293,0.070783211,0.045259048,0.700095449
0.183806425,0.070831982,0.045360602,0.70000099
0.18375044,0.070880952,0.04546246,0.699906148
0.183694341,0.070930122,0.045564618,0.699810919
0.183638129,0.070979492,0.045667076,0.699715303
0.183581806,0.071029064,0.045769833,0.699619297
0.183525375,0.071078838,0.045872888,0.699522899
0.183468835,0.071128817,0.045976243,0.699426105
0.183412189,0.071179002,0.046079897,0.699328912
0.183355438,0.071229394,0.046183851,0.699231317
0.183298584,0.071279995,0.046288104,0.699133318
0.183241628,0.071330805,0.046392656,0.699034912
0.183184571,0.071381826,0.046497505,0.698936098
0.183127417,0.071433059,0.04660265,0.698836874
0.183070166,0.071484503,0.046708091,0.69873724
0.183012823,0.071536161,0.046813824,0.698637192
0.18295539,0.071588032,0.046919849,0.698536729
0.182897869,0.071640117,0.047026165,0.698435849
0.182840264,0.071692418,0.047132769,0.698334549
0.182782577,0.071744936,0.04723966,0.698232827
0.182724812,0.071797671,0.047346837,0.698130681
0.182666972,0.071850623,0.047454298,0.698028107
0.182609058,0.071903794,0.047562044,0.697925103
0.182551076,0.071957185,0.047670072,0.697821668
0.182493027,0.072010796,0.047778381,0.697717797
0.182434915,0.072064629,0.047886969,0.697613487
0.182376745,0.072118686,0.047995834,0.697508736
0.182318519,0.072172966,0.048104972,0.697403543
0.182260242,0.072227471,0.048214381,0.697297905
0.182201917,0.072282202,0.048324057,0.697191825
0.182143546,0.072337157,0.048433997,0.6970853
0.182085134,0.072392336,0.048544196,0.696978333
0.182026684,0.07244774,0.048654653,0.696870924
0.181968197,0.072503367,0.048765364,0.696763073
0.181909677,0.072559217,0.048876325,0.696654781
0.181851127,0.07261529,0.048987535,0.696546048
0.181792548,0.072671586,0.04909899,0.696436876
0.181733945,0.072728102,0.049210687,0.696327266
0.181675318,0.072784841,0.049322625,0.696217216
0.181616671,0.072841801,0.049434799,0.69610673
0.181558005,0.072898982,0.049547205,0.695995807
0.181499323,0.072956385,0.049659842,0.69588445
0.181440626,0.07301401,0.049772704,0.69577266
0.181381917,0.073071856,0.049885788,0.695660439
0.181323196,0.073129924,0.049999092,0.695547788
0.181264466,0.073188213,0.050112612,0.69543471
0.181205729,0.073246723,0.050226344,0.695321204
0.181146986,0.073305457,0.050340286,0.695207272
0.18108824,0.073364412,0.050454433,0.695092914
0.181029494,0.07342359,0.050568784,0.694978132
0.180970749,0.073482991,0.050683334,0.694862926
0.180912008,0.073542613,0.050798084,0.694747296
0.180853272,0.073602454,0.050913031,0.694631243
0.180794544,0.073662515,0.051028172,0.694514769
0.180735826,0.073722792,0.051143507,0.694397875
0.180677121,0.073783284,0.051259032,0.694280563
0.18061843,0.07384399,0.051374745,0.694162835
0.180559756,0.073904907,0.051490643,0.694044693
0.180501101,0.073966034,0.051606725,0.69392614
0.180442467,0.074027367,0.051722986,0.693807179
0.180383857,0.074088906,0.051839424,0.693687812
0.180325273,0.074150648,0.051956036,0.693568043
0.180266717,0.074212592,0.052072819,0.693447872
0.180208193,0.074274736,0.052189771,0.6933273
0.180149703,0.074337078,0.05230689,0.693206328
0.180091252,0.074399618,0.052424174,0.693084956
0.180032841,0.074462354,0.05254162,0.692963186
0.179974474,0.074525283,0.052659225,0.692841017
0.179916154,0.074588406,0.052776989,0.692718451
0.179857883,0.074651719,0.052894908,0.69259549
0.179799665,0.074715223,0.05301298,0.692472133
0.179741501,0.074778915,0.053131202,0.692348382
0.179683394,0.074842795,0.053249573,0.692224238
0.179625347,0.074906863,0.053368089,0.6920997
0.179567363,0.074971119,0.053486747,0.69197477
0.179509444,0.075035563,0.053605545,0.691849448
0.179451595,0.075100194,0.053724477,0.691723734
0.179393818,0.075165012,0.05384354,0.69159763
0.179336117,0.075230016,0.053962731,0.691471136
0.179278496,0.075295206,0.054082044,0.691344254
0.179220958,0.07536058,0.054201474,0.691216987
0.179163508,0.075426137,0.054321018,0.691089336
0.17910615,0.075491876,0.054440671,0.690961303
0.179048888,0.075557794,0.054560426,0.690832891
0.178991726,0.075623892,0.05468028,0.690704102
0.178934668,0.075690168,0.054800227,0.690574937
0.178877716,0.075756621,0.054920264,0.690445399
0.178820873,0.075823252,0.055040386,0.690315488
0.178764144,0.075890061,0.05516059,0.690185206
0.17870753,0.075957045,0.055280874,0.690054552
0.178651034,0.076024205,0.055401233,0.689923527
0.178594661,0.076091539,0.055521666,0.689792134
0.178538413,0.076159045,0.055642168,0.689660373
0.178482294,0.076226721,0.055762736,0.689528248
0.178426307,0.076294565,0.055883366,0.689395762
0.178370452,0.076362574,0.056004054,0.68926292
0.178314733,0.076430745,0.056124798,0.689129724
0.178259151,0.076499075,0.056245594,0.688996179
0.178203709,0.076567561,0.05636644,0.688862291
0.178148407,0.076636198,0.056487332,0.688728064
0.178093247,0.076704984,0.056608266,0.688593503
0.17803823,0.076773915,0.056729239,0.688458615
0.177983359,0.07684299,0.056850247,0.688323404
0.177928635,0.076912205,0.056971286,0.688187875
0.177874057,0.076981558,0.057092353,0.688052032
0.177819628,0.077051048,0.057213444,0.68791588
0.177765347,0.077120673,0.057334559,0.687779421
0.177711214,0.07719043,0.057455696,0.68764266
0.177657229,0.077260317,0.057576853,0.687505601
0.177603392,0.07733033,0.057698029,0.687368248
0.177549704,0.077400468,0.057819221,0.687230607
0.177496164,0.077470725,0.057940429,0.687092682
0.177442771,0.077541101,0.058061651,0.686954477
0.177389526,0.077611591,0.058182885,0.686815998
0.177336428,0.077682192,0.058304131,0.686677249
0.177283477,0.077752902,0.058425387,0.686538234
0.177230673,0.077823718,0.058546652,0.686398957
0.177178014,0.077894636,0.058667928,0.686259422
0.177125499,0.077965654,0.058789217,0.68611963
0.177073127,0.07803677,0.058910521,0.685979582
0.177020897,0.078107981,0.059031842,0.68583928
0.176968807,0.078179284,0.059153183,0.685698726
0.176916857,0.078250677,0.059274546,0.68555792
0.176865045,0.078322157,0.059395934,0.685416864
0.17681337,0.078393723,0.059517347,0.685275559
0.176761832,0.078465372,0.059638789,0.685134007
0.176710429,0.078537102,0.059760261,0.684992208
0.176659161,0.07860891,0.059881765,0.684850164
0.176608027,0.078680792,0.060003304,0.684707876
0.176557027,0.078752747,0.06012488,0.684565346
0.17650616,0.078824771,0.060246496,0.684422572
0.176455427,0.078896862,0.060368153,0.684279557
0.176404828,0.078969019,0.060489854,0.6841363
0.176354363,0.079041238,0.0606116,0.683992799
0.176304033,0.079113519,0.060733395,0.683849052
0.176253841,0.07918586,0.060855241,0.683705059
0.176203786,0.079258259,0.060977139,0.683560817
0.17615387,0.079330714,0.061099091,0.683416325
0.176104094,0.079403223,0.061221099,0.683271583
0.17605446,0.079475786,0.061343164,0.683126591
0.176004968,0.0795484,0.061465285,0.682981347
0.175955619,0.079621063,0.061587464,0.682835853
0.175906416,0.079693775,0.061709701,0.682690108
0.175857357,0.079766533,0.061831997,0.682544113
0.175808444,0.079839337,0.061954352,0.682397867
0.175759678,0.079912184,0.062076766,0.682251372
0.175711058,0.079985076,0.062199239,0.682104627
0.175662586,0.08005801,0.062321772,0.681957632
0.175614261,0.080130986,0.062444365,0.681810387
0.175566085,0.080204005,0.062567018,0.681662892
0.175518058,0.080277066,0.062689731,0.681515145
0.17547018,0.080350171,0.062812504,0.681367145
0.17542245,0.080423323,0.062935337,0.68121889
0.17537487,0.080496523,0.063058229,0.681070377
0.175327439,0.080569776,0.06318118,0.680921605
0.175280156,0.080643084,0.063304189,0.680772571
0.175233023,0.080716451,0.063427254,0.680623272
0.17518604,0.080789881,0.063550376,0.680473703
0.175139208,0.080863377,0.063673553,0.680323862
0.175092528,0.080936944,0.063796785,0.680173744
0.175046001,0.081010585,0.06392007,0.680023343
0.174999628,0.081084306,0.06404341,0.679872656
0.174953409,0.081158111,0.064166803,0.679721677
0.174907345,0.081232003,0.064290249,0.679570403
0.174861434,0.081305986,0.064413749,0.679418831
0.174815678,0.081380064,0.0645373,0.679266959
0.174770075,0.081454238,0.064660903,0.679114785
0.174724626,0.081528511,0.064784555,0.678962308
0.17467933,0.081602886,0.064908256,0.678809528
0.174634187,0.081677366,0.065032005,0.678656442
0.174589197,0.081751953,0.0651558,0.67850305
0.174544361,0.081826649,0.065279641,0.678349348
0.17449968,0.081901458,0.065403528,0.678195334
0.174455152,0.081976382,0.065527463,0.678041003
0.174410779,0.082051424,0.065651446,0.677886351
0.17436656,0.082126586,0.065775481,0.677731373
0.174322496,0.082201871,0.06589957,0.677576063
0.174278587,0.082277281,0.066023715,0.677420417
0.174234832,0.082352819,0.066147919,0.67726443
0.174191232,0.082428487,0.066272184,0.677108098
0.174147785,0.082504288,0.066396512,0.676951415
0.174104492,0.082580224,0.066520906,0.676794378
0.174061351,0.0826563,0.066645367,0.676636982
0.17401836,0.082732518,0.066769901,0.676479221
0.173975518,0.082808882,0.066894508,0.676321092
0.173932823,0.082885394,0.067019193,0.676162589
0.173890273,0.082962058,0.067143958,0.676003711
0.173847865,0.083038875,0.067268805,0.675844455
0.173805597,0.083115849,0.067393737,0.675684817
0.173763468,0.083192982,0.067518754,0.675524796
0.173721475,0.083270278,0.067643859,0.675364388
0.173679616,0.08334774,0.067769052,0.675203593
0.17363789,0.08342537,0.067894333,0.675042407
0.173596295,0.083503173,0.068019704,0.674880828
0.17355483,0.08358115,0.068145165,0.674718855
0.173513493,0.083659306,0.068270716,0.674556485
0.173472282,0.083737641,0.068396357,0.674393719
0.173431195,0.083816161,0.06852209,0.674230554
0.173390229,0.083894868,0.068647914,0.674066989
0.173349382,0.083973764,0.068773833,0.673903021
0.173308652,0.084052855,0.068899846,0.673738647
0.173268036,0.084132144,0.069025953,0.673573866
0.173227533,0.084211636,0.069152156,0.673408674
0.173187141,0.084291335,0.069278455,0.673243069
0.173146858,0.084371245,0.069404849,0.673077047
0.173106684,0.08445137,0.069531339,0.672910607
0.173066617,0.084531712,0.069657924,0.672743747
0.173026656,0.084612274,0.069784603,0.672576466
0.172986801,0.08469306,0.069911375,0.672408764
0.17294705,0.084774071,0.070038238,0.67224064
0.172907402,0.08485531,0.070165192,0.672072096
0.172867857,0.084936778,0.070292233,0.671903132
0.172828413,0.085018478,0.070419359,0.67173375
0.172789069,0.085100412,0.070546568,0.671563951
0.172749822,0.085182581,0.070673857,0.67139374
