raw_ch1,raw_ch2,raw_ch3,raw_ch4,processed_ch1,processed_ch2,processed_ch3,processed_ch4
-0.012775644202180378,0.0031939110505450944,-0.01596955525272547,0.07665386521308225,0.1630033231296512,0.08774438862857814,0.07382348368264804,0.6754288045591227
-0.05110257680872151,0.047908665758176414,0.006387822101090189,-0.2076042182854311,0.16298243220248568,0.08777190516941907,0.07372525228773037,0.6755204103403649
0.012775644202180378,0.019163466303270562,0.025551288404360755,-0.2874519945490585,0.1629616666356044,0.08779939552255105,0.07362729351712156,0.6756116443247231
0.07026604311199207,-0.01596955525272547,0.009581733151635281,-0.19482857408325072,0.16294102531118723,0.08782686073584652,0.0735296114413606,0.6757025025116057
0.07665386521308225,-0.03193911050545094,-0.009581733151635281,-0.038326932606541124,0.1629205069991431,0.08785430174088626,0.07343220998162417,0.6757929812783464
0.06387822101090188,-0.038326932606541124,-0.006387822101090189,0.019163466303270562,0.1629001104913621,0.08788171937096058,0.0733350928912043,0.6758830772464729
0.060684309960356786,-0.028745199454905845,0.0031939110505450944,0.07665386521308225,0.16287983475103993,0.08790911446104248,0.07323826371371923,0.6759727870741984
-0.04152084365708622,-0.009581733151635281,-0.012775644202180378,0.2587067950941526,0.16285967894000417,0.08793648789675626,0.07314172574847519,0.6760621074147645
-0.14372599727452925,0.028745199454905845,-0.03193911050545094,-0.038326932606541124,0.16283964235990211,0.08796384053964865,0.07304548207015535,0.6761510350302937
-0.17247119672943506,0.009581733151635281,-0.06707213206144698,-0.3193911050545094,0.16281972445000445,0.08799117311470936,0.07294953570634828,0.6762395667289379
-0.06387822101090188,-0.028745199454905845,-0.06707213206144698,-0.17566510777998018,0.16279992483161793,0.0880184861243303,0.07285388999348637,0.6763276990505654
0.035133021555996034,-0.009581733151635281,-0.04152084365708622,-0.03193911050545094,0.1627802432485722,0.08804577980360967,0.07275854891752633,0.6764154280302918
0.05749039890981169,0.0,-0.01596955525272547,0.1628894635777998,0.16276067945116837,0.08807305413385572,0.07266351717382935,0.6765027492411465
0.060684309960356786,0.019163466303270562,-0.009581733151635281,0.028745199454905845,0.162741233186156,0.08810030887233368,0.07256879989949507,0.6765896580420152
0.06387822101090188,-0.038326932606541124,0.0,-0.012775644202180378,0.16272190428384334,0.08812754360236408,0.07247440230301012,0.6766761498107825
0.06387822101090188,-0.05429648785926659,0.0031939110505450944,0.21718595143706637,0.16270269273323362,0.08815475786459435,0.07238032939760639,0.6767622200045657
-0.04471475470763132,-0.060684309960356786,0.012775644202180378,0.19163466303270565,0.16268359865817092,0.0881819513135785,0.07228658586640939,0.6768478641618413
-0.11817470887016848,-0.04471475470763132,0.006387822101090189,0.09901124256689792,0.1626646222302369,0.08820912380620419,0.0721931760362017,0.6769330779273572
-0.11817470887016848,-0.05749039890981169,0.0031939110505450944,-0.01596955525272547,0.16264576368654698,0.08823627542534583,0.07210010391005019,0.6770178569780569
-0.07345995416253714,-0.05110257680872151,0.006387822101090189,-0.12775644202180375,0.16262702346907867,0.0882634064903663,0.07200737317960383,0.6771021968609513
-0.12136861992071357,-0.07345995416253714,-0.006387822101090189,-0.14053208622398414,0.16260840229700815,0.08829051758042816,0.07191498721065312,0.6771860929119106
-0.05429648785926659,-0.028745199454905845,-0.019163466303270562,0.0,0.16258990112379607,0.08831760955033621,0.07182294905866857,0.6772695402671991
-0.025551288404360755,0.06387822101090188,-0.04152084365708622,-0.08623559836471753,0.16257152106888212,0.08834468350858532,0.07173126158929752,0.677352533833235
0.019163466303270562,0.07665386521308225,-0.038326932606541124,-0.2938398166501486,0.1625532632887983,0.08837174078849518,0.07163992771463076,0.6774350682080759
0.1053990646679881,0.02235737735381566,-0.04471475470763132,0.019163466303270562,0.16253512879961535,0.08839878294161313,0.07154895061550677,0.6775171376432647
0.05429648785926659,0.025551288404360755,-0.04471475470763132,0.34174848240832506,0.1625171184261657,0.08842581166396937,0.07145833385805152,0.6775987360518133
0.01596955525272547,0.019163466303270562,-0.012775644202180378,0.4311779918235877,0.16249923283644324,0.08845282861154972,0.07136808139325676,0.6776798571587502
0.0031939110505450944,0.025551288404360755,0.0,-0.009581733151635281,0.16248147248227604,0.08847983524952902,0.07127819737483358,0.6777604948933613
0.04471475470763132,-0.06387822101090188,0.012775644202180378,-0.16927728567888997,0.16246383755789606,0.08850683288202765,0.07118868586874663,0.6778406436913297
0.08623559836471753,-0.07345995416253714,0.01596955525272547,0.03193911050545094,0.16244632810302811,0.08853382284449211,0.07109955069444668,0.6779202983580331
0.10859297571853319,-0.07984777626362735,-0.01596955525272547,-0.1117868867690783,0.16242894415024786,0.08856080672374474,0.07101079545173108,0.6779994536742764
0.0,-0.06387822101090188,-0.02235737735381566,0.012775644202180378,0.16241168581794269,0.08858778649386466,0.07092242360126659,0.6780781040869261
-0.11498079781962338,-0.012775644202180378,-0.04471475470763132,-0.1533077304261645,0.16239455331083624,0.0886147645071467,0.07083443856856193,0.6781562436134552
-0.09262342046580772,-0.012775644202180378,-0.05429648785926659,-0.14053208622398414,0.16237754688281608,0.0886417433001525,0.07074684394030373,0.6782338658767276
-0.009581733151635281,-0.038326932606541124,-0.006387822101090189,0.12136861992071357,0.16236066683238462,0.08866872533634329,0.0706596436589935,0.6783109641722787
-0.006387822101090189,-0.012775644202180378,0.0,0.2650946171952428,0.162343913461436,0.08869571290624922,0.07057284195235831,0.6783875316799565
-0.047908665758176414,0.009581733151635281,0.009581733151635281,0.07984777626362735,0.1623272869838289,0.0887227081557083,0.07048644300494637,0.6784635618555165
-0.05749039890981169,-0.02235737735381566,0.01596955525272547,-0.306615460852329,0.162310787499621,0.08874971307254499,0.070400450723672,0.6785390487041619
-0.02235737735381566,0.0031939110505450944,0.009581733151635281,-0.33855457135777994,0.16229441501567696,0.08877672942740333,0.07031486873235056,0.6786139868245692
0.03193911050545094,-0.035133021555996034,0.0,-0.025551288404360755,0.16227816941897516,0.08880375874126753,0.07022970040100285,0.6786883714387546
0.012775644202180378,-0.07345995416253714,-0.01596955525272547,0.019163466303270562,0.1622620504697896,0.08883080237239983,0.07014494882475102,0.6787621983330595
0.02235737735381566,-0.05749039890981169,-0.009581733151635281,-0.035133021555996034,0.16224605785914253,0.08885786175705469,0.07006061684379508,0.6788354635400077
0.02235737735381566,-0.047908665758176414,-0.01596955525272547,-0.03193911050545094,0.16223019124563665,0.08888493862404831,0.06997670711792901,0.678908163012386
0.012775644202180378,0.02235737735381566,-0.019163466303270562,0.35771803766105054,0.16221445023203548,0.08891203499817907,0.06989322218477222,0.6789802925850132
-0.0031939110505450944,0.02235737735381566,-0.038326932606541124,0.05429648785926659,0.1621988342845802,0.08893915302781316,0.06981016451653568,0.679051848171071
-0.012775644202180378,-0.02235737735381566,-0.05749039890981169,-0.12775644202180375,0.16218334264319553,0.08896629480227145,0.06972753668329343,0.6791228258712395
0.025551288404360755,-0.009581733151635281,-0.02235737735381566,-0.11498079781962338,0.16216797430473623,0.08899346226301257,0.06964534159968012,0.6791932218325711
-0.05429648785926659,0.009581733151635281,0.0,-0.06707213206144698,0.16215272809447254,0.08902065717384629,0.06956358258164386,0.6792630321500372
-0.1533077304261645,0.006387822101090189,-0.01596955525272547,-0.1628894635777998,0.16213760282188572,0.08904788109557396,0.06948226309193971,0.6793322529906006
-0.07026604311199207,-0.038326932606541124,-0.02235737735381566,-0.27148243929633303,0.16212259745761667,0.08907513536695807,0.06940138647254747,0.6794008807028777
0.02235737735381566,-0.03193911050545094,-0.0031939110505450944,-0.09262342046580772,0.16210771117010808,0.08910242113068806,0.06932095588340921,0.6794689118157947
0.0,-0.019163466303270562,0.009581733151635281,0.09901124256689792,0.16209294320533568,0.08912973942004702,0.06924097430798842,0.6795363430666289
0.0,-0.028745199454905845,0.019163466303270562,0.1565016414767096,0.16207829276014718,0.08915709123067347,0.06916144453124844,0.6796031714779309
0.01596955525272547,-0.006387822101090189,0.01596955525272547,0.07345995416253714,0.1620637589147667,0.08918447751561842,0.06908236917171365,0.6796693943979013
0.01596955525272547,-0.019163466303270562,-0.0031939110505450944,-0.17566510777998018,0.16204934061738827,0.08921189913635123,0.06900375074100704,0.6797350095052535
0.01596955525272547,-0.05429648785926659,-0.05110257680872151,-0.1501138193756194,0.16203503669401104,0.08923935683978444,0.06892559167006464,0.6798000147961399
0.03193911050545094,-0.05429648785926659,-0.04152084365708622,0.012775644202180378,0.16202084582513854,0.08926685132709715,0.06884789443447147,0.6798644084132929
0.006387822101090189,0.006387822101090189,-0.025551288404360755,0.012775644202180378,0.16200676652899856,0.08929438336709582,0.06877066179399746,0.6799281883099082
0.0031939110505450944,0.06387822101090188,-0.01596955525272547,0.20121639618434092,0.16199279719761203,0.08932195382851256,0.06869389687205366,0.6799913521018217
-0.006387822101090189,0.019163466303270562,-0.01596955525272547,0.2619007061446977,0.1619789360898458,0.0893495636445114,0.06861760298088915,0.6800538972847536
0.012775644202180378,-0.028745199454905845,-0.025551288404360755,-0.09262342046580772,0.16196518125729134,0.08937721377381593,0.06854178342365881,0.680115821545234
0.009581733151635281,-0.03193911050545094,-0.019163466303270562,-0.07984777626362735,0.16195153052541833,0.08940490515629554,0.06846644145219162,0.6801771228660946
-0.006387822101090189,-0.035133021555996034,-0.025551288404360755,0.038326932606541124,0.16193798155720074,0.08943263870720336,0.06839158032951755,0.6802377994060783
-0.006387822101090189,-0.04471475470763132,-0.01596955525272547,0.04471475470763132,0.16192453191353065,0.08946041537429639,0.06831720337684238,0.6802978493353306
-0.038326932606541124,-0.035133021555996034,-0.012775644202180378,-0.10220515361744302,0.1619111790832835,0.0894882362005998,0.06824331395552706,0.6803572707605896
0.009581733151635281,-0.028745199454905845,-0.009581733151635281,-0.3161971940039643,0.16189792049295532,0.08951610233261048,0.06816991537996375,0.6804160617944705
0.06707213206144698,-0.019163466303270562,-0.009581733151635281,0.08623559836471753,0.16188475348974338,0.08954401494961274,0.06809701080039893,0.680474220760245
0.05110257680872151,-0.028745199454905845,0.0031939110505450944,0.2107981293359762,0.16187167535453584,0.08957197517238824,0.06802460311783635,0.6805317463552396
-0.006387822101090189,-0.03193911050545094,0.0,0.2555128840436075,0.16185868335504752,0.08959998402953252,0.0679526949240292,0.6805886376913908
0.0,-0.019163466303270562,0.009581733151635281,0.32258501610505447,0.16184577471119763,0.08962804246244978,0.06788128843762418,0.6806448943887284
-0.038326932606541124,-0.02235737735381566,-0.012775644202180378,-0.303421549801784,0.1618329464645281,0.08965615130064543,0.06781038548530302,0.6807005167495235
-0.12136861992071357,-0.038326932606541124,-0.02235737735381566,-0.3002276387512388,0.1618201954221454,0.08968431121209065,0.06773998756954698,0.680755505796217
-0.12136861992071357,-0.038326932606541124,-0.02235737735381566,-0.12136861992071357,0.16180751826844078,0.0897125227011373,0.06767009598497213,0.6808098630454498
-0.025551288404360755,-0.02235737735381566,-0.02235737735381566,0.08623559836471753,0.16179491174993021,0.08974078616867785,0.06760071193814256,0.6808635901432493
0.0031939110505450944,-0.019163466303270562,-0.019163466303270562,0.01596955525272547,0.1617823727586981,0.08976910196636545,0.06753183664391253,0.6809166886310238
-0.012775644202180378,-0.028745199454905845,-0.019163466303270562,-0.24593115089197226,0.16176989826137084,0.08979747040397368,0.06746347136914592,0.6809691599655094
0.01596955525272547,-0.025551288404360755,-0.012775644202180378,-0.1117868867690783,0.16175748517656977,0.08982589173481956,0.0673956174084575,0.6810210056801531
0.006387822101090189,-0.009581733151635281,-0.028745199454905845,0.038326932606541124,0.1617451303118805,0.08985436614348562,0.06732827604132528,0.6810722275033085
-0.009581733151635281,0.006387822101090189,-0.028745199454905845,0.18205292988107036,0.1617328303746187,0.08988289371603998,0.06726144856774327,0.6811228273415981
0.028745199454905845,0.0,-0.012775644202180378,0.306615460852329,0.16172058197722158,0.08991147436159616,0.0671951363875893,0.681172807273593
0.035133021555996034,-0.025551288404360755,-0.025551288404360755,0.08623559836471753,0.1617083816100383,0.08994010772654289,0.06712934098678427,0.6812221696766345
0.009581733151635281,0.0,-0.012775644202180378,-0.14372599727452925,0.1616962256512524,0.08996879318806515,0.0670640638630546,0.6812709172976279
0.0031939110505450944,0.019163466303270562,-0.012775644202180378,-0.1533077304261645,0.1616841104101972,0.08999752990837916,0.06699930648599696,0.6813190531954266
0.0,0.05429648785926659,0.0,0.0,0.16167203213894168,0.09002631690647013,0.06693507024154721,0.681366580713041
-0.035133021555996034,0.03193911050545094,-0.01596955525272547,-0.41201452552031714,0.16165998701294726,0.09005515317848188,0.0668713563333541,0.6814135034752168
-0.13095035307234884,-0.028745199454905845,-0.02235737735381566,-0.23315550668979185,0.1616479711129719,0.09008403777538315,0.06680816572692223,0.6814598253847227
-0.09581733151635283,-0.038326932606541124,-0.012775644202180378,-0.04471475470763132,0.16163598048238156,0.09011296975072672,0.0667454991907444,0.6815055505761473
0.006387822101090189,-0.04152084365708622,0.0,0.06707213206144698,0.1616240112787705,0.09014194813457621,0.06668335735181807,0.6815506832348353
0.038326932606541124,-0.025551288404360755,0.0031939110505450944,0.24273723984142714,0.16161205984441238,0.09017097200869098,0.06662174065094272,0.681595227495954
0.05429648785926659,-0.028745199454905845,-0.01596955525272547,0.12456253097125865,0.16160012262112755,0.09020004053472876,0.06656064925002156,0.6816391875941221
0.038326932606541124,-0.06707213206144698,-0.009581733151635281,-0.18524684093161545,0.16158819606665095,0.09022915291931893,0.06650008302715961,0.6816825679868705
0.04152084365708622,-0.08304168731417244,-0.02235737735381566,-0.16927728567888997,0.16157627662656143,0.09025830847369204,0.06644004165153773,0.6817253732482088
0.07026604311199207,-0.08623559836471753,-0.035133021555996034,0.09901124256689792,0.16156436069960248,0.09028750679050643,0.06638052468178357,0.6817676078281075
0.08623559836471753,-0.060684309960356786,-0.07665386521308225,-0.06387822101090188,0.16155244462560267,0.09031674788122812,0.06632153177474248,0.6818092757184268
-0.04152084365708622,-0.006387822101090189,-0.05429648785926659,0.04152084365708622,0.16154052472637365,0.09034603213278619,0.06626306305837537,0.6818503800824648
-0.11817470887016848,0.009581733151635281,-0.019163466303270562,0.09262342046580772,0.16152859737403377,0.09037536008191488,0.06620511941002248,0.6818909231340288
-0.10859297571853319,0.009581733151635281,0.0031939110505450944,0.025551288404360755,0.16151665911293334,0.09040473217018732,0.06614770231716414,0.6819309063997152
-0.03193911050545094,0.0,0.02235737735381566,-0.11498079781962338,0.16150470680441006,0.09043414863084566,0.06609081346466504,0.6819703311000792
0.035133021555996034,0.012775644202180378,0.03193911050545094,-0.07026604311199207,0.16149273763593083,0.09046360947056839,0.06603445450043724,0.6820091983930634
0.019163466303270562,0.02235737735381566,0.01596955525272547,-0.035133021555996034,0.16148074898216533,0.09049311447989138,0.06597862709274901,0.6820475094451943
0.0,0.07345995416253714,0.0,-0.09262342046580772,0.16146873827958746,0.09052266332689532,0.06592333298541049,0.6820852654081067
0.0031939110505450944,0.04152084365708622,-0.009581733151635281,0.36729977081268583,0.1614567029368062,0.09055225574243904,0.06586857385667005,0.6821224674640847
-0.006387822101090189,-0.02235737735381566,-0.019163466303270562,0.2650946171952428,0.16144464020100666,0.09058189162120124,0.06581435113811197,0.6821591170396802
-0.0031939110505450944,-0.03193911050545094,-0.035133021555996034,-0.03193911050545094,0.16143254704677043,0.09061157093557849,0.06576066602636207,0.682195215991289
0.025551288404360755,-0.038326932606541124,-0.025551288404360755,-0.07026604311199207,0.16142042019945912,0.0906412936377214,0.06570751968559475,0.6822307664772248
0.047908665758176414,-0.04471475470763132,-0.009581733151635281,-0.04152084365708622,0.16140825626071073,0.09067105969445095,0.06565491341237696,0.6822657706324614
-0.10220515361744302,-0.028745199454905845,-0.0031939110505450944,-0.038326932606541124,0.16139605186176437,0.09070086916964863,0.06560284858023845,0.6823002303883484
-0.2587067950941526,-0.038326932606541124,-0.028745199454905845,-0.11498079781962338,0.16138380386682707,0.09073072224125625,0.06555132647015935,0.6823341474217574
-0.19163466303270565,-0.012775644202180378,-0.02235737735381566,-0.06707213206144698,0.16137150964049593,0.0907606191322006,0.06550034822559035,0.6823675230017131
-0.06387822101090188,0.0,-0.02235737735381566,0.1501138193756194,0.16135916722420926,0.09079055998784416,0.0654499149497788,0.6824003578381678
0.060684309960356786,-0.02235737735381566,-0.025551288404360755,0.08304168731417244,0.16134677524330085,0.09082054476153792,0.0654000277919384,0.6824326522032228
0.08623559836471753,-0.04152084365708622,-0.012775644202180378,0.08942950941526263,0.1613343326578494,0.09085057319900104,0.06535068796377132,0.6824644061793783
0.06707213206144698,-0.04152084365708622,-0.012775644202180378,0.02235737735381566,0.1613218386226701,0.09088064495465416,0.0653018966960528,0.6824956197266229
0.08623559836471753,-0.012775644202180378,0.0,-0.025551288404360755,0.16130929250401244,0.09091075972690044,0.06525365514035796,0.6825262926287292
0.06387822101090188,-0.02235737735381566,0.0,-0.025551288404360755,0.1612966939447998,0.09094091728442476,0.06520596424840118,0.6825564245223743
0.04152084365708622,-0.03193911050545094,0.0031939110505450944,-0.09901124256689792,0.16128404289282033,0.09097111741806571,0.06515882466852604,0.6825860150205878
-0.028745199454905845,-0.019163466303270562,0.019163466303270562,-0.10220515361744302,0.1612713395367277,0.09100135991770322,0.06511223671690534,0.6826150638286637
-0.07026604311199207,-0.035133021555996034,-0.0031939110505450944,-0.2203798624876115,0.16125858418196487,0.09103164456658387,0.06506620044077728,0.682643570810674
0.01596955525272547,-0.038326932606541124,-0.025551288404360755,-0.09581733151635283,0.1612457771558659,0.09106197113014235,0.0650207156923031,0.6826715360216886
0.047908665758176414,-0.03193911050545094,-0.035133021555996034,-0.07026604311199207,0.16123291875996848,0.09109233937409428,0.06497578221570068,0.6826989596502365
0.038326932606541124,-0.012775644202180378,-0.02235737735381566,-0.17566510777998018,0.1612200092473588,0.09112274907948158,0.06493139980935478,0.6827258418638049
0.038326932606541124,-0.0031939110505450944,-0.01596955525272547,-0.006387822101090189,0.16120704883297007,0.09115319998436892,0.06488756843863051,0.6827521827440305
0.012775644202180378,-0.025551288404360755,-0.02235737735381566,0.019163466303270562,0.16119403773753568,0.09118369170259705,0.06484428820068967,0.6827779823591776
0.009581733151635281,0.012775644202180378,-0.006387822101090189,0.06707213206144698,0.16118097622133026,0.09121422372054391,0.06480155924821471,0.6828032408099111
-0.035133021555996034,-0.028745199454905845,-0.02235737735381566,-0.10220515361744302,0.16116786456972199,0.09124479544860654,0.06475938173264616,0.6828279582490253
-0.05110257680872151,-0.038326932606541124,-0.03193911050545094,-0.019163466303270562,0.16115470306605756,0.09127540626211941,0.06471775578881847,0.6828521348830046
-0.03193911050545094,-0.038326932606541124,-0.019163466303270562,-0.06707213206144698,0.16114149199844066,0.09130605555054226,0.06467668160961107,0.682875770841406
-0.035133021555996034,-0.03193911050545094,-0.019163466303270562,0.22996159563924676,0.1611282316652421,0.09133674277009671,0.06463615951018273,0.6828988660544785
-0.03193911050545094,-0.028745199454905845,-0.01596955525272547,0.22996159563924676,0.16111492232311878,0.09136746743449244,0.06459618986989712,0.6829214203724917
0.0,-0.019163466303270562,-0.009581733151635281,-0.019163466303270562,0.16110156411504867,0.09139822905288128,0.0645567730248316,0.6829434338072384
0.019163466303270562,0.012775644202180378,-0.025551288404360755,-0.2587067950941526,0.16108815704738633,0.09142902707773042,0.06451790921543073,0.6829649066594526
0.012775644202180378,0.01596955525272547,-0.02235737735381566,-0.2139920403865213,0.16107470097958326,0.09145986085310785,0.06447959861405589,0.6829858395532531
-0.04471475470763132,-0.0031939110505450944,-0.0031939110505450944,0.2491250619425173,0.16106119558915785,0.09149072954045032,0.06444184136344584,0.683006233506946
-0.05749039890981169,-0.02235737735381566,-0.0031939110505450944,-0.05429648785926659,0.16104764039618485,0.0915216320721793,0.06440463751024937,0.6830260900213865
-0.01596955525272547,-0.047908665758176414,0.0,-0.12775644202180375,0.16103403487731877,0.091552567204627,0.0643679868571207,0.6830454110609335
0.04471475470763132,-0.04471475470763132,0.0031939110505450944,-0.047908665758176414,0.16102037855312823,0.09158353367623316,0.06433188886199703,0.6830641989086416
0.05749039890981169,-0.06387822101090188,-0.019163466303270562,-0.19163466303270565,0.1610066709913861,0.09161453037576564,0.06429634263560047,0.6830824559972478
0.05110257680872151,-0.07984777626362735,-0.038326932606541124,0.01596955525272547,0.16099291177931543,0.0916455564508653,0.06426134705801269,0.6831001847118066
0.012775644202180378,-0.012775644202180378,-0.02235737735381566,0.08623559836471753,0.16097910049518907,0.0916766113602957,0.06422690100244349,0.6831173871420718
-0.02235737735381566,0.07345995416253714,0.0031939110505450944,0.28425808349851334,0.16096523666755924,0.09170769483800759,0.06419300347734028,0.6831340650170928
-0.025551288404360755,0.038326932606541124,-0.006387822101090189,0.05749039890981169,0.16095131971738127,0.09173880681414726,0.06415965351517382,0.6831502199532977
-0.06387822101090188,0.0031939110505450944,-0.012775644202180378,0.04471475470763132,0.16093734895650247,0.09176994737454967,0.06412684997161194,0.683165853697336
-0.07984777626362735,0.0,-0.006387822101090189,0.07026604311199207,0.1609233237162424,0.09180111666822523,0.06409459147422195,0.6831809681413105
-0.06707213206144698,0.0,0.006387822101090189,0.060684309960356786,0.16090924351925046,0.09183231473191947,0.06406287646365214,0.683195565285178
-0.035133021555996034,-0.03193911050545094,0.009581733151635281,0.019163466303270562,0.16089510815995017,0.09186354139173333,0.06403170319772981,0.6832096472505866
0.05429648785926659,-0.04152084365708622,-0.028745199454905845,-0.047908665758176414,0.1608809176725142,0.09189479632961282,0.06400106977256309,0.6832232162253099
0.006387822101090189,-0.08304168731417244,-0.06387822101090188,-0.14372599727452925,0.16086667221622744,0.09192607925025939,0.06397097428944747,0.6832362742440656
-0.006387822101090189,-0.07345995416253714,-0.038326932606541124,-0.14372599727452925,0.16085237188687304,0.09195739005813706,0.06394141516524117,0.6832488228897486
0.0,0.038326932606541124,-0.0031939110505450944,-0.06707213206144698,0.16083801653898744,0.09198872897428581,0.06391239131446405,0.6832608631722628
0.06387822101090188,0.05429648785926659,-0.01596955525272547,-0.1053990646679881,0.16082360577027383,0.09202009654131298,0.06388390197374906,0.6832723957146641
0.09262342046580772,0.0031939110505450944,-0.009581733151635281,-0.047908665758176414,0.1608091390791675,0.09205149353021072,0.06385594638955512,0.6832834210010668
0.09581733151635283,-0.01596955525272547,-0.047908665758176414,0.13733817517343905,0.16079461606223672,0.09208292078362833,0.06382852372039502,0.6832939394337401
0.07665386521308225,-0.025551288404360755,-0.01596955525272547,0.009581733151635281,0.1607800365328604,0.09211437905001536,0.06380163317648627,0.6833039512406379
0.038326932606541124,-0.028745199454905845,0.0031939110505450944,-0.14053208622398414,0.16076540053388905,0.09214586892816931,0.06377527412687511,0.6833134564110664
-0.08304168731417244,-0.03193911050545094,-0.0031939110505450944,-0.10859297571853319,0.1607507082957767,0.09217739093424786,0.06374944596475918,0.6833224548052163
-0.18524684093161545,-0.047908665758176414,-0.006387822101090189,-0.01596955525272547,0.1607359602433707,0.09220894558321084,0.06372414787414285,0.6833309462992756
-0.17885901883052527,-0.038326932606541124,-0.009581733151635281,-0.0031939110505450944,0.1607211571509007,0.09224053345272612,0.06369937873112247,0.6833389306652506
-0.07984777626362735,-0.02235737735381566,-0.006387822101090189,0.05110257680872151,0.1607063003457614,0.09227215522316248,0.06367513713185516,0.6833464072992209
-0.025551288404360755,-0.012775644202180378,0.0,0.006387822101090189,0.1606913917209717,0.09230381164908669,0.06365142142830003,0.6833533752016416
-0.060684309960356786,-0.028745199454905845,-0.012775644202180378,-0.06707213206144698,0.16067643354931588,0.09233550348960703,0.06362822973012193,0.6833598332309552
-0.060684309960356786,-0.05429648785926659,-0.01596955525272547,-0.04152084365708622,0.160661428306579,0.09236723149278203,0.06360555992732485,0.683365780273314
0.009581733151635281,-0.05110257680872151,-0.012775644202180378,-0.02235737735381566,0.16064637858597614,0.09239899647872592,0.063583409766193,0.6833712151691049
0.028745199454905845,-0.05110257680872151,-0.012775644202180378,-0.1053990646679881,0.16063128702997395,0.09243079945851128,0.06356177691358206,0.6833761365979327
0.05749039890981169,-0.02235737735381566,-0.02235737735381566,0.035133021555996034,0.16061615626268366,0.09246264167493921,0.06354065897718238,0.6833805430851947
0.1053990646679881,-0.02235737735381566,-0.035133021555996034,0.2682885282457879,0.16060098888467925,0.09249452450893952,0.0635200535559484,0.6833844330504328
0.13095035307234884,-0.04471475470763132,-0.03193911050545094,0.2810641724479683,0.16058578751619415,0.09252644931301747,0.0634999583534381,0.6833878048173503
0.13733817517343905,-0.03193911050545094,-0.02235737735381566,0.14372599727452925,0.1605705548389421,0.09255841730664784,0.06348037125997348,0.6833906565944364
0.09901124256689792,-0.0031939110505450944,-0.006387822101090189,0.1565016414767096,0.16055529366416904,0.09259042956667124,0.06346129031098234,0.6833929864581774
-0.019163466303270562,0.02235737735381566,-0.01596955525272547,-0.32258501610505447,0.16054000697967663,0.09262248700654281,0.06344271354526211,0.6833947924685184
-0.18524684093161545,0.0031939110505450944,-0.019163466303270562,-0.2587067950941526,0.16052469788210982,0.09265459030207501,0.06342463888165126,0.6833960729341639
-0.2555128840436075,0.012775644202180378,-0.009581733151635281,-0.18844075198216054,0.1605093695713366,0.0926867398144758,0.06340706408623643,0.6833968265279512
-0.17566510777998018,0.028745199454905845,0.0031939110505450944,-0.11498079781962338,0.16049402559097303,0.09271893556368421,0.0633899867550419,0.6833970520903009
-0.14053208622398414,0.038326932606541124,-0.0031939110505450944,-0.06387822101090188,0.16047867007947006,0.09275117730829784,0.06337340424239439,0.6833967483698378
-0.028745199454905845,-0.009581733151635281,-0.03193911050545094,-0.05110257680872151,0.16046330775723003,0.09278346469116171,0.06335731363451295,0.6833959139170953
0.060684309960356786,0.0,-0.01596955525272547,0.1117868867690783,0.16044794370883267,0.0928157972938637,0.06334171188105749,0.6833945471162461
0.060684309960356786,-0.0031939110505450944,-0.009581733151635281,-0.04471475470763132,0.16043258317215145,0.09284817455669515,0.06332659595877345,0.68339264631238
0.07026604311199207,0.012775644202180378,-0.009581733151635281,-0.17566510777998018,0.160417231464459,0.09288059569328068,0.06331196287074434,0.683390209971516
0.060684309960356786,-0.019163466303270562,-0.02235737735381566,0.0,0.1604018939940311,0.09291305969083864,0.06329780955561003,0.6833872367595203
0.05429648785926659,-0.04152084365708622,-0.012775644202180378,0.060684309960356786,0.16038657626333208,0.0929455653858796,0.06328413288473567,0.6833837254660526
0.07984777626362735,-0.006387822101090189,0.0031939110505450944,0.09262342046580772,0.1603712838665223,0.09297811156627474,0.06327092969877085,0.6833796748684321
0.047908665758176414,-0.02235737735381566,0.006387822101090189,-0.04152084365708622,0.16035602250350806,0.09301069701290914,0.0632581967525809,0.6833750837310019
-0.07026604311199207,-0.05110257680872151,-0.025551288404360755,0.01596955525272547,0.1603407979937621,0.09304332049072528,0.06324593064550593,0.6833699508700067
-0.09262342046580772,0.006387822101090189,-0.02235737735381566,0.07665386521308225,0.16032561627493713,0.09307598078106334,0.06323412788840367,0.6833642750555959
-0.04471475470763132,0.012775644202180378,-0.01596955525272547,0.1565016414767096,0.16031048339449847,0.093108676684517,0.06322278503993897,0.6833580548810455
-0.060684309960356786,-0.025551288404360755,-0.025551288404360755,0.13095035307234884,0.16029540547253732,0.09314140692625102,0.06321189875652937,0.6833512888446823
-0.06387822101090188,-0.047908665758176414,-0.01596955525272547,0.035133021555996034,0.16028038863499916,0.09317417011301912,0.06320146577503954,0.6833439754769423
-0.038326932606541124,-0.05429648785926659,-0.01596955525272547,-0.0031939110505450944,0.1602654389882794,0.09320696484774145,0.06319148289921583,0.6833361132647632
0.03193911050545094,-0.05429648785926659,-0.01596955525272547,-0.05429648785926659,0.16025056263287377,0.09323978990841647,0.06318194697615392,0.6833277004825559
0.04152084365708622,-0.047908665758176414,-0.012775644202180378,-0.11498079781962338,0.16023576564205091,0.09327264435758516,0.06317285485876266,0.6833187351416012
0.038326932606541124,-0.04471475470763132,-0.006387822101090189,-0.047908665758176414,0.16022105401679348,0.09330552754596616,0.06316420335896733,0.683309215078273
0.02235737735381566,-0.02235737735381566,-0.025551288404360755,0.06387822101090188,0.1602064336710563,0.09333843905555957,0.0631559892074722,0.6832991380659119
0.04152084365708622,-0.02235737735381566,0.0,0.03193911050545094,0.16019191044496467,0.09337137861324844,0.06314820906431116,0.6832885018774757
0.02235737735381566,-0.035133021555996034,-0.006387822101090189,-0.2587067950941526,0.1601774901130431,0.09340434600014597,0.06314085951438013,0.683277304372431
0.02235737735381566,-0.038326932606541124,-0.01596955525272547,-0.06707213206144698,0.16016317835072702,0.09343734100917525,0.0631339369879118,0.6832655436521858
0.02235737735381566,-0.02235737735381566,-0.01596955525272547,0.16608337462834488,0.16014898066909883,0.09347036345388822,0.06312743773459235,0.6832532181424206
-0.01596955525272547,-0.006387822101090189,-0.025551288404360755,0.05429648785926659,0.16013490238299732,0.0935034131541189,0.06312135792151992,0.6832403265413638
-0.047908665758176414,0.0,-0.03193911050545094,-0.07984777626362735,0.16012094863391396,0.09353648984901944,0.06311569377770697,0.6832268677393597
-0.05110257680872151,-0.012775644202180378,-0.01596955525272547,-0.14053208622398414,0.16010712444361264,0.09356959308805836,0.06311044171572462,0.6832128407526045
-0.03193911050545094,-0.012775644202180378,0.006387822101090189,-0.06707213206144698,0.1600934347694694,0.09360272218568336,0.06310559833416012,0.6831982447106871
-0.025551288404360755,-0.012775644202180378,-0.012775644202180378,0.0031939110505450944,0.16007988453939823,0.09363587625912374,0.06310116028296484,0.6831830789185132
0.009581733151635281,0.0,-0.02235737735381566,0.006387822101090189,0.16006647866939078,0.09366905428685741,0.06309712416559973,0.6831673428781521
0.047908665758176414,0.01596955525272547,-0.01596955525272547,-0.028745199454905845,0.16005322206945052,0.09370225512548433,0.06309348658448748,0.6831510362205776
0.035133021555996034,0.0031939110505450944,-0.012775644202180378,-0.17566510777998018,0.16004011964120535,0.09373547749221223,0.06309024420724114,0.6831341586593412
0.009581733151635281,-0.019163466303270562,-0.006387822101090189,-0.012775644202180378,0.16002717626227242,0.09376871994882875,0.06308739372982865,0.6831167100590702
0.0031939110505450944,-0.05749039890981169,-0.012775644202180378,0.025551288404360755,0.16001439674973372,0.0938019809478831,0.0630849317873253,0.6830986905150578
-0.012775644202180378,-0.060684309960356786,-0.028745199454905845,-0.006387822101090189,0.16000178581435118,0.09383525900069106,0.06308285493719853,0.6830801002477592
-0.04471475470763132,-0.047908665758176414,-0.02235737735381566,-0.10859297571853319,0.15998934802161027,0.0938685528732192,0.06308115975622645,0.6830609393489441
-0.06707213206144698,-0.035133021555996034,-0.02235737735381566,-0.2810641724479683,0.1599770877734688,0.09390186163014289,0.06307984294552134,0.683041207650867
-0.05749039890981169,-0.04471475470763132,-0.012775644202180378,-0.028745199454905845,0.1599650093197246,0.09393518452739927,0.0630789013257219,0.6830209048271542
0.009581733151635281,-0.019163466303270562,-0.0031939110505450944,0.3098093719028741,0.15995311678331164,0.09396852090542683,0.06307833173404916,0.6830000305772123
0.038326932606541124,0.025551288404360755,0.019163466303270562,0.34174848240832506,0.15994141413132806,0.09400187011556549,0.06307813089640905,0.6829785848566974
0.028745199454905845,-0.0031939110505450944,0.012775644202180378,0.23954332879088208,0.1599299050741895,0.09403523140846108,0.06307829535774191,0.6829565681596075
-0.01596955525272547,-0.038326932606541124,-0.019163466303270562,-0.060684309960356786,0.1599185930138942,0.094068603840131,0.06307882151686907,0.6829339816291058
-0.08942950941526263,-0.03193911050545094,-0.019163466303270562,-0.1628894635777998,0.15990748111283865,0.09410198630639939,0.06307970571232761,0.6829108268684343
-0.07665386521308225,-0.035133021555996034,-0.028745199454905845,-0.03193911050545094,0.15989657242490193,0.09413537765823723,0.06308094430541007,0.6828871056114508
-0.028745199454905845,-0.05429648785926659,-0.02235737735381566,0.0031939110505450944,0.1598858700120619,0.09416877679557982,0.06308253376469569,0.6828628194276627
0.012775644202180378,-0.0031939110505450944,0.0,0.2203798624876115,0.15987537696925042,0.09420218272168557,0.06308447069909935,0.6828379696099646
0.025551288404360755,0.035133021555996034,-0.02235737735381566,-0.3800754150148662,0.1598650963206956,0.09423559450709718,0.06308675175710769,0.6828125574150995
0.04471475470763132,0.01596955525272547,-0.0031939110505450944,-0.08623559836471753,0.1598550308754715,0.09426901116319449,0.06308937348005692,0.6827865844812772
0.009581733151635281,0.0,-0.03193911050545094,0.09581733151635283,0.15984518319367025,0.09430243155746117,0.06309233227421883,0.6827600529746498
0.0031939110505450944,-0.02235737735381566,-0.02235737735381566,0.05110257680872151,0.15983555565948385,0.09433585439800204,0.06309562452645882,0.6827329654160553
0.009581733151635281,-0.012775644202180378,-0.038326932606541124,-0.41201452552031714,0.1598261504898162,0.09436927822366285,0.06309924677005348,0.6827053245164675
0.038326932606541124,-0.012775644202180378,-0.02235737735381566,-0.07984777626362735,0.15981696963694225,0.09440270137830417,0.06310319578725532,0.6826771331974982
-0.025551288404360755,-0.025551288404360755,-0.006387822101090189,0.1565016414767096,0.1598080147501671,0.09443612199387677,0.06310746858821824,0.682648394667738
-0.0031939110505450944,-0.038326932606541124,0.0,0.05429648785926659,0.15979928726635467,0.0944695380557737,0.06311206225796032,0.6826191124199112
0.012775644202180378,-0.01596955525272547,0.0,0.035133021555996034,0.15979078850759704,0.09450294753802153,0.06311697374288479,0.6825892902114966
0.009581733151635281,-0.019163466303270562,0.0031939110505450944,0.02235737735381566,0.15978251972941934,0.09453634848600706,0.06312219971467681,0.6825589320698969
0.02235737735381566,-0.02235737735381566,0.006387822101090189,-0.009581733151635281,0.1597744821623443,0.09456973900931516,0.06312773655819245,0.6825280422701481
0.02235737735381566,0.0031939110505450944,-0.006387822101090189,0.0,0.1597666770524527,0.09460311724885295,0.06313358042393344,0.6824966252747608
0.035133021555996034,-0.0031939110505450944,-0.03193911050545094,-0.06387822101090188,0.15975910568931237,0.0946364813272723,0.06313972731802327,0.6824646856653921
0.009581733151635281,-0.009581733151635281,-0.035133021555996034,-0.07026604311199207,0.15975176939635974,0.0946698292619952,0.06314617327425427,0.6824322280673908
-0.08623559836471753,-0.03193911050545094,-0.035133021555996034,-0.1565016414767096,0.15974466947486907,0.09470315890275721,0.06315291457882556,0.6823992570435482
-0.11498079781962338,-0.05429648785926659,-0.04152084365708622,-0.22676768458870167,0.15973780716831346,0.09473646796173005,0.0631599479141816,0.6823657769557748
-0.07665386521308225,-0.03193911050545094,-0.038326932606541124,-0.1628894635777998,0.1597311836834527,0.09476975410321245,0.06316727039293128,0.6823317918204036
0.009581733151635281,-0.035133021555996034,-0.012775644202180378,0.02235737735381566,0.15972480020951282,0.09480301501347874,0.06317487953261425,0.6822973052443941
-0.012775644202180378,-0.05429648785926659,-0.01596955525272547,-0.13414426412289396,0.15971865789022932,0.09483624845221462,0.06318277313987745,0.6822623205176787
-0.02235737735381566,-0.04152084365708622,-0.006387822101090189,-0.028745199454905845,0.15971275777106134,0.0948694523337791,0.06319094911694875,0.6822268407782108
-0.047908665758176414,-0.012775644202180378,-0.0031939110505450944,0.35452412661050536,0.15970710076832212,0.09490262477008612,0.06319940528474928,0.6821908691768426
-0.08304168731417244,0.0,0.0031939110505450944,0.4184023476214073,0.159701687661691,0.09493576394275922,0.06320813923602289,0.6821544091595269
-0.05110257680872151,-0.0031939110505450944,0.0,0.18205292988107036,0.15969651909203625,0.09496886785342383,0.06321714820921678,0.6821174648453231
0.01596955525272547,-0.01596955525272547,-0.012775644202180378,0.14372599727452925,0.15969159558719073,0.09500193417702803,0.06322642904776506,0.6820800411880164
0.028745199454905845,-0.006387822101090189,-0.0031939110505450944,0.2107981293359762,0.1596869175917082,0.09503496030052277,0.06323597826687684,0.6820421438408921
0.019163466303270562,0.01596955525272547,-0.006387822101090189,0.10220515361744302,0.15968248545715433,0.09506794340917525,0.06324579213318793,0.6820037790004826
-0.012775644202180378,0.025551288404360755,0.006387822101090189,-0.18524684093161545,0.15967829942433442,0.09510088053984583,0.0632558666849536,0.681964953350866
0.0031939110505450944,-0.012775644202180378,0.0,-0.21718595143706637,0.1596743596037535,0.09513376862872111,0.06326619771833057,0.6819256740491948
0.03193911050545094,-0.04471475470763132,-0.012775644202180378,-0.12456253097125865,0.15967066593727847,0.09516660455340314,0.06327678077072242,0.681885948738596
0.028745199454905845,-0.03193911050545094,-0.019163466303270562,-0.1469199083250743,0.15966721818503915,0.09519938518428461,0.06328761115002794,0.6818457854806483
-0.012775644202180378,-0.02235737735381566,-0.025551288404360755,-0.08942950941526263,0.1596640159512339,0.09523210744429979,0.06329868406005976,0.6818051925444066
-0.035133021555996034,0.01596955525272547,-0.01596955525272547,0.0,0.1596610587184209,0.09526476831375214,0.06330999475932632,0.6817641782085007
0.0031939110505450944,0.04152084365708622,-0.01596955525272547,0.20121639618434092,0.15965834588342795,0.09529736479838329,0.06332153863540281,0.6817227506827861
0.01596955525272547,-0.012775644202180378,-0.028745199454905845,-0.1469199083250743,0.15965587674920806,0.09532989392180924,0.06333331118684868,0.6816809181421339
0.04152084365708622,-0.05429648785926659,-0.028745199454905845,-0.18524684093161545,0.15965365045453256,0.09536235272422076,0.06334530802832171,0.681638688792925
0.04471475470763132,-0.07665386521308225,-0.02235737735381566,-0.23954332879088208,0.15965166592209548,0.09539473829659056,0.06335752494951909,0.6815960708317947
0.0,-0.07345995416253714,-0.02235737735381566,-0.11817470887016848,0.15964992184189433,0.09542704792064093,0.06336995792481818,0.6815530723126465
-0.028745199454905845,-0.07345995416253714,-0.009581733151635281,0.12136861992071357,0.15964841665355448,0.0954592792475265,0.06338260304637322,0.6815097010525458
0.006387822101090189,-0.060684309960356786,-0.012775644202180378,0.019163466303270562,0.15964714856222895,0.09549143040111645,0.06339545643444094,0.6814659646022136
-0.047908665758176414,-0.07026604311199207,-0.02235737735381566,0.07026604311199207,0.15964611560838754,0.09552349999793616,0.06340851417814733,0.681421870215529
-0.038326932606541124,-0.035133021555996034,-0.012775644202180378,0.04152084365708622,0.1596453157512692,0.09555548711307991,0.06342177235086727,0.6813774247847835
-0.009581733151635281,0.035133021555996034,-0.0031939110505450944,0.025551288404360755,0.15964474693742123,0.09558739119003229,0.06343522703548884,0.6813326348370576
0.08942950941526263,0.07345995416253714,0.0,-0.07026604311199207,0.15964440715435516,0.09561921194844913,0.06344887425117052,0.6812875066460252
0.12456253097125865,0.0,-0.025551288404360755,-0.11817470887016848,0.1596442945021008,0.0956509493475224,0.06346270984584697,0.6812420463045298
0.05429648785926659,0.01596955525272547,-0.0031939110505450944,-0.047908665758176414,0.1596444072971091,0.09568260349678985,0.06347672950227051,0.6811962597038305
0.05110257680872151,0.009581733151635281,-0.012775644202180378,0.05110257680872151,0.15964474413274476,0.09571417447724036,0.06349092881421799,0.6811501525757969
0.04152084365708622,0.0031939110505450944,-0.012775644202180378,0.0,0.15964530385070838,0.09574566223144003,0.06350530331383293,0.6811037306040187
-0.1117868867690783,-0.0031939110505450944,-0.019163466303270562,-0.06707213206144698,0.15964608550730283,0.09577706654135136,0.063519848492857,0.6810569994584889
-0.25231897299306244,-0.03193911050545094,-0.02235737735381566,-0.09901124256689792,0.159647088448424,0.09580838700525053,0.06353455986442808,0.6810099646818973
-0.2139920403865213,-0.02235737735381566,-0.006387822101090189,-0.05749039890981169,0.15964831252446068,0.09583962303915115,0.06354943299457767,0.6809626314418105
-0.1469199083250743,-0.009581733151635281,-0.02235737735381566,-0.07984777626362735,0.1596497583080048,0.09587077391436065,0.06356446346360783,0.6809150043140266
-0.06387822101090188,0.019163466303270562,-0.02235737735381566,0.07026604311199207,0.15965142709739835,0.09590183876918255,0.06357964684520297,0.6808670872882162
-0.028745199454905845,0.019163466303270562,-0.019163466303270562,0.19163466303270565,0.15965332067007076,0.0959328165958895,0.06359497876937317,0.6808188839646667
-0.009581733151635281,-0.012775644202180378,-0.025551288404360755,0.18524684093161545,0.15965544094788278,0.09596370623926108,0.06361045498788259,0.6807703978249735
0.047908665758176414,-0.04152084365708622,-0.0031939110505450944,0.09901124256689792,0.1596577897538669,0.09599450641003794,0.06362607136617231,0.6807216324699228
0.07665386521308225,-0.047908665758176414,-0.0031939110505450944,-0.04152084365708622,0.15966036876965564,0.09602521576194022,0.06364182378830853,0.6806725916800956
0.035133021555996034,-0.012775644202180378,0.009581733151635281,-0.1596955525272547,0.15966317964617524,0.09605583302020743,0.0636577080124202,0.6806232793211971
0.006387822101090189,-0.025551288404360755,-0.012775644202180378,-0.17247119672943506,0.15966622406466083,0.09608635700826623,0.06367371959837155,0.6805736993287014
-0.0031939110505450944,-0.05429648785926659,-0.028745199454905845,-0.03193911050545094,0.15966950364696944,0.096116786580546,0.06368985397362888,0.6805238557988558
0.025551288404360755,-0.07026604311199207,-0.028745199454905845,-0.13733817517343905,0.15967301983054008,0.09614712066378264,0.06370610659360768,0.6804737529120696
0.01596955525272547,-0.060684309960356786,-0.009581733151635281,-0.02235737735381566,0.159676773820677,0.09617735842649613,0.06372247308206105,0.6804233946707657
0.038326932606541124,-0.028745199454905845,0.006387822101090189,0.18524684093161545,0.15968076661845892,0.09620749938865895,0.06373894920870386,0.6803727847841782
0.02235737735381566,-0.028745199454905845,-0.0031939110505450944,-0.0031939110505450944,0.15968499908750092,0.09623754336501326,0.06375553072215091,0.6803219268253349
0.012775644202180378,0.006387822101090189,-0.025551288404360755,0.0031939110505450944,0.15968947202672445,0.09626749031831625,0.06377221324010643,0.6802708244148529
0.028745199454905845,0.028745199454905845,-0.012775644202180378,-0.07345995416253714,0.1596941862178825,0.09629734024121445,0.06378899231491676,0.6802194812259863
0.02235737735381566,-0.009581733151635281,-0.047908665758176414,-0.13414426412289396,0.15969914241820765,0.09632709308871575,0.06380586359502041,0.6801679008980563
-0.02235737735381566,-0.047908665758176414,-0.025551288404360755,-0.05110257680872151,0.15970434130026365,0.0963567487438519,0.06382282299439652,0.6801160869614878
-0.038326932606541124,-0.04152084365708622,-0.009581733151635281,0.14053208622398414,0.1597097833985572,0.09638630705308775,0.06383986678105881,0.6800640427672962
-0.028745199454905845,-0.025551288404360755,-0.006387822101090189,0.13095035307234884,0.15971546911309953,0.0964157679186574,0.0638569914536198,0.6800117715146232
-0.012775644202180378,0.019163466303270562,0.006387822101090189,-0.12136861992071357,0.15972139874062793,0.09644513132725586,0.06387419349404701,0.6799592764380692
0.0031939110505450944,0.0,-0.019163466303270562,-0.1117868867690783,0.1597275724804411,0.09647439727021934,0.06389146923645082,0.6799065610128887
0.038326932606541124,-0.038326932606541124,-0.012775644202180378,-0.13733817517343905,0.15973399041533565,0.09650356564692658,0.06390881490290927,0.6798536290348284
-0.01596955525272547,-0.05110257680872151,-0.006387822101090189,-0.03193911050545094,0.15974065250699934,0.09653263627228681,0.06392622666880479,0.6798004845519089
-0.02235737735381566,-0.04471475470763132,-0.019163466303270562,0.32258501610505447,0.15974755859837242,0.096561609006326,0.06394370065386464,0.679747131741437
-0.012775644202180378,0.006387822101090189,-0.012775644202180378,0.24593115089197226,0.1597547083579048,0.09659048382618772,0.06396123288866502,0.6796935749272425
0.03193911050545094,0.025551288404360755,0.0031939110505450944,-0.0031939110505450944,0.15976210121324327,0.09661926072813537,0.06397881930840606,0.6796398187502153
0.07026604311199207,0.01596955525272547,0.0031939110505450944,-0.12136861992071357,0.15976973642240716,0.09664793962382624,0.06399645572383347,0.679585868229933
0.025551288404360755,0.006387822101090189,-0.009581733151635281,-0.1501138193756194,0.15977761323957168,0.09667652033043855,0.06401413776313619,0.6795317286668535
-0.028745199454905845,-0.028745199454905845,-0.035133021555996034,-0.32258501610505447,0.15978573095760548,0.09670500254577272,0.06403186088483365,0.6794774056117882
-0.03193911050545094,-0.047908665758176414,-0.028745199454905845,-0.16927728567888997,0.1597940887716658,0.09673338580862668,0.06404962053022827,0.6794229048894792
-0.012775644202180378,-0.05749039890981169,-0.025551288404360755,0.13733817517343905,0.1598026856335554,0.09676166956852375,0.06406741231558402,0.6793682324823367
0.0031939110505450944,-0.02235737735381566,-0.035133021555996034,-0.06387822101090188,0.15981152021896922,0.09678985333466637,0.06408523213332881,0.6793133943130355
-0.012775644202180378,-0.04152084365708622,-0.035133021555996034,-0.18844075198216054,0.15982059095128337,0.09681793674056689,0.06410307620408863,0.6792583961040611
-0.035133021555996034,-0.028745199454905845,-0.025551288404360755,0.07026604311199207,0.1598298960164082,0.09684591949680167,0.06412094113135061,0.6792032433554395
-0.07665386521308225,0.0031939110505450944,-0.01596955525272547,0.27148243929633303,0.15983943340656454,0.09687380131694145,0.06413882387430961,0.6791479414021845
-0.09901124256689792,-0.009581733151635281,-0.009581733151635281,0.2587067950941526,0.1598492010231083,0.09690158180496479,0.06415672158997265,0.6790924955819543
-0.08304168731417244,-0.01596955525272547,0.012775644202180378,0.05749039890981169,0.15985919679947191,0.09692926032546044,0.06417463143641826,0.6790369114386494
-0.01596955525272547,-0.028745199454905845,0.02235737735381566,-0.20441030723488604,0.15986941878173327,0.09695683598641353,0.06419255047916782,0.6789811947526854
-0.012775644202180378,-0.035133021555996034,0.0031939110505450944,-0.17885901883052527,0.1598798650862261,0.09698430774052778,0.0642104757145506,0.6789253514586956
-0.035133021555996034,-0.035133021555996034,-0.0031939110505450944,0.019163466303270562,0.15989053377393966,0.09701167450547454,0.06422840406221743,0.6788693876583685
0.012775644202180378,-0.028745199454905845,-0.01596955525272547,0.11498079781962338,0.15990142281171188,0.09703893525823763,0.06424633228943112,0.6788133096406194
0.047908665758176414,-0.009581733151635281,-0.028745199454905845,0.035133021555996034,0.15991253012602652,0.09706608906138561,0.0642642570295613,0.6787571237830266
0.02235737735381566,-0.0031939110505450944,-0.03193911050545094,-0.060684309960356786,0.15992385364147985,0.09709313498387476,0.06428217496416608,0.6787008364104792
-0.006387822101090189,0.0,-0.02235737735381566,-0.08942950941526263,0.1599353912866644,0.09712007197133365,0.06430008302547546,0.6786444537165264
-0.012775644202180378,0.0031939110505450944,-0.012775644202180378,-0.13095035307234884,0.1599471409667042,0.09714689875211914,0.06431797845003559,0.678587981831141
0.012775644202180378,-0.019163466303270562,-0.0031939110505450944,-0.08942950941526263,0.15995910052058332,0.09717361381717933,0.06433585865226701,0.6785314270099704
0.009581733151635281,-0.0031939110505450944,-0.006387822101090189,0.060684309960356786,0.15997126771596537,0.09720021546764818,0.06435372102800282,0.6784747957883837
0.009581733151635281,0.006387822101090189,-0.012775644202180378,0.12775644202180375,0.15998364027407108,0.0972267018666772,0.06437156283034415,0.6784180950289076
-0.006387822101090189,-0.038326932606541124,-0.025551288404360755,-0.03193911050545094,0.15999621587184837,0.09725307105797637,0.06438938118974094,0.6783613318804343
0.019163466303270562,-0.047908665758176414,-0.012775644202180378,-0.16608337462834488,0.16000899210611336,0.09727932103046602,0.06440717322791363,0.678304513635507
0.0,-0.038326932606541124,-0.028745199454905845,-0.047908665758176414,0.16002196644680922,0.0973054498525964,0.0644249361474856,0.6782476475531088
0.019163466303270562,0.0,-0.025551288404360755,0.12775644202180375,0.16003513620884596,0.09733145573652786,0.06444266728307714,0.6781907407715491
0.05110257680872151,0.028745199454905845,-0.019163466303270562,0.060684309960356786,0.16004849857205003,0.09735733695334496,0.0644603641609072,0.6781338003136977
0.01596955525272547,0.019163466303270562,-0.009581733151635281,-0.012775644202180378,0.16006205066005907,0.09738309173193566,0.06447802450183492,0.6780768331061703
-0.0031939110505450944,0.0031939110505450944,-0.012775644202180378,-0.07984777626362735,0.1600757896201702,0.0974087182532132,0.06449564612688304,0.6780198459997335
-0.04471475470763132,-0.025551288404360755,-0.0031939110505450944,-0.11498079781962338,0.16008971263943578,0.09743421465974118,0.06451322684289255,0.6779628458579304
-0.07345995416253714,-0.025551288404360755,0.0031939110505450944,0.0,0.16010381695095807,0.09745957904637796,0.06453076434407544,0.6779058396585886
-0.1117868867690783,-0.025551288404360755,-0.019163466303270562,0.04152084365708622,0.16011809992873757,0.09748480949715597,0.06454825614694053,0.6778488344271658
-0.038326932606541124,-0.060684309960356786,-0.03193911050545094,-0.10220515361744302,0.1601325592045128,0.09750990415296232,0.06456569964807751,0.6777918369944473
0.028745199454905845,-0.09901124256689792,-0.025551288404360755,-0.060684309960356786,0.1601471926294846,0.09753486132494031,0.06458309230587896,0.6777348537396961
0.1053990646679881,-0.07984777626362735,-0.012775644202180378,-0.0031939110505450944,0.1601619981218137,0.09755967971144296,0.06460043177176882,0.6776778903949746
0.09901124256689792,-0.006387822101090189,0.0031939110505450944,-0.04152084365708622,0.16017697365632422,0.09758435855763672,0.06461771583549848,0.6776209519505406
0.08942950941526263,0.025551288404360755,0.0031939110505450944,-0.16927728567888997,0.16019211742820214,0.09760889752706932,0.06463494224387062,0.6775640428008578
0.06707213206144698,-0.035133021555996034,-0.02235737735381566,-0.047908665758176414,0.16020742795191412,0.09763329641559285,0.06465210856341862,0.6775071670690744
0.035133021555996034,-0.03193911050545094,-0.02235737735381566,0.3449423934588701,0.16022290397530348,0.0976575550032985,0.06466921220878422,0.6774503288126138
-0.05749039890981169,-0.028745199454905845,-0.02235737735381566,0.1565016414767096,0.16023854429008375,0.09768167303695181,0.0646862505767296,0.6773935320962348
-0.12136861992071357,-0.012775644202180378,-0.019163466303270562,-0.019163466303270562,0.1602543476253709,0.097705650203004,0.06470322113937937,0.6773367810322457
-0.06707213206144698,0.047908665758176414,0.0031939110505450944,-0.2619007061446977,0.1602703127439172,0.0977294861072728,0.06472012144010855,0.6772800797087013
-0.09901124256689792,0.009581733151635281,-0.0031939110505450944,-0.1596955525272547,0.1602864385751056,0.09775318029459416,0.06473694897881785,0.6772234321514824
-0.17566510777998018,-0.02235737735381566,-0.012775644202180378,0.07665386521308225,0.16030272426494402,0.09777673224999628,0.06475370105498525,0.6771668424300744
-0.1469199083250743,-0.01596955525272547,-0.025551288404360755,0.12456253097125865,0.160319169284624,0.09780014135238499,0.06477037474493268,0.6771103146180583
-0.08942950941526263,0.0,-0.035133021555996034,0.08304168731417244,0.16033577356198314,0.09782340681687075,0.06478696706959797,0.6770538525515482
-0.038326932606541124,-0.025551288404360755,-0.028745199454905845,0.03193911050545094,0.160352537442129,0.09784652765305611,0.06480347523113254,0.6769974596736824
0.035133021555996034,-0.05110257680872151,-0.04152084365708622,-0.1501138193756194,0.16036946149452044,0.09786950269726251,0.06481989678709978,0.6769411390211172
0.09581733151635283,-0.03193911050545094,-0.025551288404360755,0.028745199454905845,0.16038654632814858,0.09789233074438439,0.06483622972297673,0.6768848932044902
0.07026604311199207,-0.03193911050545094,-0.02235737735381566,0.012775644202180378,0.16040379255650247,0.09791501066651546,0.064852472431682,0.6768287243453002
0.04152084365708622,-0.047908665758176414,0.0,-0.13733817517343905,0.1604212008874841,0.0979375414521118,0.06486862358342134,0.6767726340769827
0.07345995416253714,-0.06387822101090188,-0.009581733151635281,-0.17566510777998018,0.16043877215131183,0.09795992224380413,0.064884681895409,0.676716623709475
0.060684309960356786,-0.019163466303270562,-0.0031939110505450944,0.23315550668979185,0.16045650722463065,0.0979821523864471,0.06490064590801176,0.6766606944809105
-0.05110257680872151,-0.012775644202180378,-0.006387822101090189,0.2619007061446977,0.16047440696188373,0.09800423136545403,0.06491651387001647,0.6766048478026457
-0.13414426412289396,-0.006387822101090189,-0.009581733151635281,0.01596955525272547,0.16049247220248836,0.09802615862501338,0.06493228372574987,0.6765490854467483
-0.06707213206144698,0.0031939110505450944,0.0031939110505450944,-0.306615460852329,0.16051070387504707,0.09804793341406946,0.06494795314945054,0.6764934095614329
-0.04471475470763132,0.02235737735381566,-0.0031939110505450944,-0.306615460852329,0.16052910306769108,0.09806955471989225,0.06496351955548019,0.6764378226569364
0.012775644202180378,0.035133021555996034,-0.006387822101090189,0.10220515361744302,0.16054767091526018,0.09809102127795068,0.06497898005617483,0.6763823277506142
0.038326932606541124,0.02235737735381566,-0.019163466303270562,0.04152084365708622,0.160566408450597,0.09811233168106058,0.06499433147276126,0.6763269283955813
0.025551288404360755,-0.009581733151635281,0.0,0.08304168731417244,0.1605853166028002,0.09813348450299345,0.06500957044726474,0.6762716284469417
0.035133021555996034,-0.012775644202180378,0.0,0.06387822101090188,0.16060439627893186,0.09815447831460719,0.06502469350379572,0.6762164319026651
0.06387822101090188,-0.05749039890981169,-0.012775644202180378,-0.060684309960356786,0.16062364842572247,0.09817531166398759,0.06503969699025065,0.6761613429200393
0.10220515361744302,-0.09262342046580772,-0.025551288404360755,-0.11817470887016848,0.16064307406088996,0.09819598318654946,0.0650545770670705,0.6761063656854901
0.13733817517343905,-0.06387822101090188,-0.01596955525272547,-0.08942950941526263,0.16066267430370393,0.09821649183208407,0.06506932982464853,0.6760515040395636
0.1117868867690783,-0.04471475470763132,-0.019163466303270562,-0.060684309960356786,0.16068245044498114,0.09823683700097648,0.06508395139299336,0.675996761161049
0.08942950941526263,0.0031939110505450944,-0.019163466303270562,-0.09262342046580772,0.1607024040363191,0.09825701845355067,0.06509843797014875,0.6759421395399815
-0.019163466303270562,0.009581733151635281,-0.02235737735381566,-0.06707213206144698,0.16072253690153349,0.09827703606965124,0.06511278584228804,0.6758876411865271
-0.17885901883052527,-0.01596955525272547,-0.035133021555996034,-0.028745199454905845,0.16074285107567782,0.09829688963353861,0.06512699145291835,0.6758332678378651
-0.21718595143706637,-0.038326932606541124,-0.028745199454905845,-0.06387822101090188,0.16076334885441554,0.09831657875961007,0.06514105150913005,0.6757790208768444
-0.19163466303270565,-0.028745199454905845,-0.012775644202180378,0.08942950941526263,0.16078403301395655,0.09833610293797478,0.0651549630311427,0.675724901016926
-0.1053990646679881,0.009581733151635281,0.006387822101090189,0.19802248513379583,0.16080490696876007,0.09835546158624071,0.06516872323869573,0.6756709082063035
-0.01596955525272547,0.01596955525272547,0.0,0.019163466303270562,0.16082597467514786,0.09837465403316387,0.06518232932828517,0.675617041963403
-0.038326932606541124,0.038326932606541124,0.006387822101090189,-0.006387822101090189,0.1608472403830975,0.09839367951136004,0.06519577830595523,0.6755633017995872
-0.05429648785926659,-0.012775644202180378,-0.04152084365708622,0.19163466303270565,0.16086870843246243,0.098412537226822,0.06520906699635329,0.6755096873443622
-0.035133021555996034,-0.006387822101090189,-0.02235737735381566,0.2555128840436075,0.1608903831232391,0.0984312263647006,0.06522219223766587,0.6754561982743945
0.04471475470763132,-0.0031939110505450944,-0.006387822101090189,-0.19163466303270565,0.16091226860691693,0.09844974594975199,0.0652351510540701,0.6754028343892611
0.11498079781962338,-0.019163466303270562,-0.009581733151635281,-0.35452412661050536,0.16093436884596252,0.09846809471569083,0.0652479405785375,0.6753495958598092
0.08942950941526263,-0.019163466303270562,-0.006387822101090189,-0.09262342046580772,0.16095668768781618,0.09848627109226711,0.06526055783825581,0.6752964833816609
0.11817470887016848,0.0031939110505450944,0.012775644202180378,0.3161971940039643,0.16097922899170622,0.09850427325215638,0.06527299964021585,0.6752434981159215
0.09901124256689792,-0.0031939110505450944,0.012775644202180378,-0.03193911050545094,0.1610019967309633,0.09852209912330362,0.06528526258705754,0.6751906415586755
0.009581733151635281,-0.0031939110505450944,-0.0031939110505450944,-0.18205292988107036,0.16102499503416307,0.09853974636227504,0.06529734313233183,0.67513791547123
-0.19163466303270565,-0.04152084365708622,-0.028745199454905845,-0.012775644202180378,0.16104822817751985,0.09855721237998015,0.06530923762599214,0.6750853218165078
-0.20441030723488604,-0.06387822101090188,-0.03193911050545094,0.01596955525272547,0.16107170065561904,0.09857449447998035,0.06532094241034593,0.6750328624540546
-0.10220515361744302,-0.07026604311199207,-0.025551288404360755,0.019163466303270562,0.16109541736775557,0.0985915900829432,0.06533245399523743,0.6749805385540637
-0.012775644202180378,-0.07026604311199207,-0.025551288404360755,0.01596955525272547,0.16111938365972536,0.09860849695093621,0.0653437691826811,0.6749283502066574
0.08304168731417244,-0.05429648785926659,-0.019163466303270562,0.10220515361744302,0.1611436051012539,0.0986252133173232,0.06535488506409329,0.6748762965173296
0.13733817517343905,-0.04471475470763132,-0.019163466303270562,0.02235737735381566,0.16116808729240334,0.09864173787773477,0.06536579895063814,0.6748243758792238
0.0,-0.028745199454905845,-0.0031939110505450944,-0.05749039890981169,0.16119283588966932,0.09865806967879386,0.06537650827732829,0.6747725861542085
-0.12775644202180375,-0.006387822101090189,-0.012775644202180378,-0.25231897299306244,0.16121785666367416,0.09867420796561055,0.06538701048226771,0.6747209248884476
-0.09581733151635283,-0.02235737735381566,-0.012775644202180378,-0.10859297571853319,0.16124315547072995,0.09869015200074877,0.06539730290140582,0.6746693896271154
0.0,-0.02235737735381566,-0.01596955525272547,0.12775644202180375,0.161268738225819,0.09870590092524069,0.06540738274775533,0.674617978101185
0.02235737735381566,-0.019163466303270562,-0.019163466303270562,0.09262342046580772,0.16129461083835323,0.0987214537519914,0.06541724717659478,0.6745666882330605
0.035133021555996034,-0.019163466303270562,-0.019163466303270562,-0.05429648785926659,0.1613207790907517,0.09873680942222021,0.06542689337511093,0.6745155181119171
0.04471475470763132,-0.025551288404360755,-0.012775644202180378,-0.19482857408325072,0.1613472485901382,0.09875196682832688,0.06543631861650832,0.6744644659650265
0.03193911050545094,-0.01596955525272547,-0.01596955525272547,-0.18205292988107036,0.16137402478341903,0.09876692480394868,0.06544552024001528,0.6744135301726172
0.05110257680872151,-0.012775644202180378,-0.009581733151635281,-0.19482857408325072,0.16140111294351775,0.09878168208835561,0.06545449558272973,0.674362709385397
0.06387822101090188,0.019163466303270562,-0.01596955525272547,0.17247119672943506,0.16142851816049297,0.09879623727693392,0.06546324192467202,0.674312002637901
0.04471475470763132,0.01596955525272547,-0.009581733151635281,0.12136861992071357,0.1614562453805117,0.09881058879975399,0.06547175646850632,0.6742614093512279
0.0031939110505450944,0.02235737735381566,-0.009581733151635281,0.14053208622398414,0.16148429943998496,0.09882473494664772,0.06548003633533755,0.6742109292780297
0.0,-0.006387822101090189,-0.006387822101090189,0.01596955525272547,0.16151268504261798,0.09883867391298122,0.06548807855201895,0.6741605624923819
-0.028745199454905845,-0.04152084365708622,-0.009581733151635281,-0.06387822101090188,0.16154140672564687,0.0988524038491652,0.06549588003609284,0.674110309389095
-0.08304168731417244,-0.03193911050545094,-0.01596955525272547,0.038326932606541124,0.1615704688940194,0.09886592293472661,0.06550343760566468,0.6740601705655893
-0.08623559836471753,-0.025551288404360755,-0.025551288404360755,-0.0031939110505450944,0.16159987593039535,0.098879229454263,0.06551074804242675,0.6740101465729148
-0.06707213206144698,-0.012775644202180378,-0.01596955525272547,-0.0031939110505450944,0.16162963232424024,0.09889232180096529,0.0655178082056929,0.6739602376691016
-0.025551288404360755,0.028745199454905845,-0.006387822101090189,0.05749039890981169,0.16165974273356595,0.09890519842064081,0.06552461509822598,0.6739104437475674
0.025551288404360755,-0.006387822101090189,-0.025551288404360755,-0.035133021555996034,0.1616902119308658,0.09891785777258265,0.06553116582373994,0.6738607644728116
0.025551288404360755,0.0,-0.012775644202180378,-0.09901124256689792,0.16172104469110027,0.09893029828969381,0.06553745755307569,0.6738111994661302
0.0,-0.028745199454905845,-0.009581733151635281,-0.04471475470763132,0.16175224570760396,0.0989425183123585,0.06554348754227744,0.6737617484377602
-0.012775644202180378,-0.038326932606541124,-0.01596955525272547,-0.07345995416253714,0.1617838195405667,0.09895451609781475,0.06554925310418597,0.6737124112574325
-0.012775644202180378,-0.02235737735381566,-0.01596955525272547,-0.11498079781962338,0.1618157705689035,0.09896628993098734,0.06555475156149561,0.6736631879386136
0.01596955525272547,-0.025551288404360755,-0.01596955525272547,-0.14053208622398414,0.16184810294963248,0.09897783818708569,0.06555998025403924,0.6736140786092425
0.035133021555996034,-0.06387822101090188,-0.01596955525272547,-0.1117868867690783,0.16188082059533762,0.09898915932010889,0.06556493655683562,0.6735650835277178
0.047908665758176414,-0.05749039890981169,-0.02235737735381566,0.17247119672943506,0.16191392717069467,0.09900025191957577,0.06556961788021226,0.6735162030295172
0.025551288404360755,-0.035133021555996034,-0.03193911050545094,0.22996159563924676,0.16194742608731452,0.09901111481084242,0.06557402170066548,0.6734674374011775
-0.012775644202180378,-0.006387822101090189,-0.038326932606541124,0.19482857408325072,0.1619813204595089,0.0990217470110664,0.06557814566952504,0.6734187868598998
-0.04152084365708622,0.012775644202180378,-0.012775644202180378,-0.17885901883052527,0.16201561305250153,0.09903214752957348,0.06558198773805285,0.6733702516798722
-0.06387822101090188,0.0031939110505450944,-0.01596955525272547,-0.18524684093161545,0.16205030631630457,0.09904231518897946,0.06558554614194649,0.6733218323527694
-0.060684309960356786,-0.01596955525272547,-0.019163466303270562,-0.02235737735381566,0.16208540251855114,0.09905224856548338,0.06558881925407964,0.6732735296618859
-0.05110257680872151,-0.019163466303270562,0.0031939110505450944,0.05749039890981169,0.16212090389565031,0.09906194602986401,0.06559180547967668,0.6732253445948091
-0.019163466303270562,-0.012775644202180378,0.009581733151635281,-0.012775644202180378,0.16215681274667804,0.09907140584209885,0.06559450320563676,0.6731772782055864
-0.02235737735381566,-0.025551288404360755,0.0,-0.03193911050545094,0.1621931314424213,0.09908062623683796,0.06559691072586336,0.6731293315948774
-0.019163466303270562,0.01596955525272547,-0.0031939110505450944,0.060684309960356786,0.16222986238264256,0.09908960547250886,0.06559902616485937,0.6730815059799892
-0.012775644202180378,-0.03193911050545094,-0.0031939110505450944,-0.06387822101090188,0.16226700794985138,0.09909834186023574,0.06560084742456491,0.673033802765348
0.04152084365708622,-0.07665386521308225,0.0031939110505450944,-0.2555128840436075,0.16230457045267097,0.09910683381349329,0.06560237214895916,0.6729862235848766
0.035133021555996034,-0.060684309960356786,0.006387822101090189,-0.09262342046580772,0.16234255204558712,0.09911507997037461,0.06560359769653544,0.6729387702875029
0.0,-0.012775644202180378,-0.012775644202180378,-0.038326932606541124,0.16238095467958102,0.09912307930955862,0.06560452114829318,0.6728914448625671
0.028745199454905845,-0.006387822101090189,-0.028745199454905845,-0.012775644202180378,0.1624197801284729,0.0991308310907674,0.06560513942821192,0.6728442493525478
0.047908665758176414,-0.02235737735381566,-0.012775644202180378,0.12136861992071357,0.16245903005258217,0.09913833465204763,0.06560544950564753,0.6727971857897228
0.038326932606541124,-0.028745199454905845,-0.02235737735381566,0.13733817517343905,0.16249870604044386,0.09914558927153407,0.06560544851387932,0.6727502561741427
0.012775644202180378,-0.02235737735381566,-0.03193911050545094,0.009581733151635281,0.16253880960024464,0.09915259416622457,0.06560513376185761,0.6727034624716731
-0.019163466303270562,-0.028745199454905845,-0.05110257680872151,0.17885901883052527,0.16257934210277575,0.09915934853022706,0.06560450282738198,0.6726568065396152
-0.009581733151635281,-0.025551288404360755,-0.05749039890981169,0.13414426412289396,0.16262030468306996,0.09916585153063497,0.06560355380753669,0.6726102899787583
-0.07026604311199207,0.0,-0.04471475470763132,0.23954332879088208,0.16266169814178438,0.0991721022425128,0.06560228557059498,0.672563914045108
-0.11817470887016848,0.028745199454905845,-0.012775644202180378,-0.1501138193756194,0.16270352296534205,0.09917809954771484,0.06560069778624106,0.6725176797007021
-0.060684309960356786,0.0,0.012775644202180378,-0.18524684093161545,0.16274577950174465,0.09918384207675751,0.06559879064847982,0.6724715877730181
0.025551288404360755,-0.028745199454905845,0.019163466303270562,-0.17566510777998018,0.16278846810959102,0.09918932822846364,0.06559656450714935,0.6724256391547959
0.1117868867690783,-0.006387822101090189,-0.009581733151635281,-0.28425808349851334,0.16283158914115084,0.09919455620468852,0.06559401967431855,0.6723798349798421
0.09901124256689792,0.02235737735381566,-0.0031939110505450944,0.13095035307234884,0.16287514290672095,0.09919952401589838,0.06559115635606093,0.6723341767213198
0.05110257680872151,-0.012775644202180378,-0.06387822101090188,0.060684309960356786,0.16291912974561742,0.0992042294818319,0.06558797465449231,0.6722886661180584
0.01596955525272547,-0.02235737735381566,-0.035133021555996034,-0.028745199454905845,0.1629635500608964,0.09920867025968802,0.0655844748223149,0.6722433048571006
-0.09901124256689792,-0.009581733151635281,0.0,-0.13414426412289396,0.1630084042568152,0.09921284388808468,0.06558065758167696,0.6721980942734231
-0.27148243929633303,0.01596955525272547,0.0,-0.012775644202180378,0.1630536928184595,0.09921674780940735,0.0655765240086876,0.6721530353634455
-0.2203798624876115,0.012775644202180378,0.019163466303270562,0.13733817517343905,0.1630994166733995,0.09922037935402693,0.06557207512010185,0.6721081288524717
-0.09581733151635283,0.0031939110505450944,0.01596955525272547,-0.02235737735381566,0.1631455775275649,0.09922373569939409,0.06556731169942334,0.6720633750736176
0.0,0.0,-0.0031939110505450944,0.08623559836471753,0.16319217780822676,0.09922681383486877,0.06556223439171505,0.6720187739651895
0.02235737735381566,-0.038326932606541124,-0.02235737735381566,-0.025551288404360755,0.16323922030235716,0.09922961058170451,0.06555684378011384,0.6719743253358245
0.07345995416253714,-0.09262342046580772,-0.01596955525272547,-0.11817470887016848,0.16328670783016447,0.09923212274563936,0.06555114040706861,0.6719300290171276
0.07665386521308225,-0.07984777626362735,-0.009581733151635281,-0.09901124256689792,0.1633346431175303,0.09923434741310708,0.06554512479748666,0.671885884671876
0.07026604311199207,-0.05429648785926659,-0.006387822101090189,0.035133021555996034,0.163383028820122,0.09923628221584034,0.06553879741652263,0.6718418915475151
0.12456253097125865,-0.0031939110505450944,-0.009581733151635281,0.0031939110505450944,0.16343186763073592,0.09923792534657425,0.06553215858060508,0.6717980484420849
0.12136861992071357,0.0031939110505450944,-0.019163466303270562,0.009581733151635281,0.16348116245401534,0.09923927531526545,0.06552520844538098,0.6717543537853383
0.09581733151635283,-0.009581733151635281,-0.009581733151635281,0.025551288404360755,0.1635309165736089,0.09924033064979339,0.06551794708429491,0.6717108056923027
0.0031939110505450944,-0.025551288404360755,-0.02235737735381566,-0.05429648785926659,0.16358113366497126,0.09924108975439642,0.06551037456738998,0.6716674020132424
-0.12456253097125865,-0.038326932606541124,-0.03193911050545094,-0.09901124256689792,0.16363181763139215,0.09924155095070046,0.06550249102813789,0.6716241403897695
-0.14372599727452925,-0.04152084365708622,-0.038326932606541124,-0.19163466303270565,0.16368297245444124,0.0992417125697934,0.06549429678393755,0.6715810181918278
-0.1565016414767096,-0.019163466303270562,-0.009581733151635281,0.08942950941526263,0.1637346022199901,0.09924157298406432,0.0654857924421282,0.6715380323538175
-0.16927728567888997,-0.019163466303270562,-0.006387822101090189,0.1501138193756194,0.16378671126783992,0.09924113056460494,0.06547697882162769,0.6714951793459275
-0.060684309960356786,-0.05749039890981169,-0.009581733151635281,0.10220515361744302,0.16383930430676955,0.09924038364639885,0.06546785671724038,0.6714524553295913
0.03193911050545094,-0.060684309960356786,-0.012775644202180378,-0.02235737735381566,0.1638923863501823,0.09923933062401606,0.065458426736247,0.6714098562895545
0.07984777626362735,-0.006387822101090189,-0.019163466303270562,-0.2076042182854311,0.1639459625072233,0.09923797011449997,0.0654486893138104,0.6713673780644663
0.047908665758176414,0.01596955525272547,-0.028745199454905845,-0.11817470887016848,0.16400003782537992,0.0992363009322183,0.06543864482741168,0.67132501641499
0.012775644202180378,-0.028745199454905845,-0.028745199454905845,0.047908665758176414,0.16405461723390613,0.09923432189212464,0.06542829374681071,0.6712827671271585
0.02235737735381566,-0.04471475470763132,-0.025551288404360755,-0.12775644202180375,0.16410970548966397,0.09923203174045271,0.06541763677583588,0.6712406259940473
0.03193911050545094,-0.028745199454905845,-0.012775644202180378,0.07665386521308225,0.1641653071114092,0.09922942926037223,0.06540667489201892,0.6711985887361996
0.028745199454905845,0.009581733151635281,-0.006387822101090189,0.3002276387512388,0.16422142635353082,0.0992265133331699,0.06539540923023358,0.6711566510830658
0.01596955525272547,0.01596955525272547,0.0,0.10859297571853319,0.16427806720579197,0.09922328285389581,0.06538384086849582,0.6711148090718164
0.0,0.04471475470763132,-0.009581733151635281,-0.13095035307234884,0.16433523338466727,0.09921973664424653,0.06537197064598244,0.6710730593251039
-0.038326932606541124,0.07984777626362735,-0.01596955525272547,-0.10859297571853319,0.16439292832081132,0.09921587354760965,0.06535979912202514,0.6710313990095539
0.009581733151635281,0.03193911050545094,-0.009581733151635281,-0.012775644202180378,0.1644511551602804,0.09921169265704466,0.06534732665897271,0.6709898255237023
-0.006387822101090189,-0.025551288404360755,-0.012775644202180378,-0.09262342046580772,0.1645099167978372,0.09920719343267513,0.06533455351293785,0.6709483362565499
-0.028745199454905845,-0.04471475470763132,-0.01596955525272547,-0.035133021555996034,0.16456921592037532,0.09920237562493701,0.06532147987709108,0.6709069285775966
-0.02235737735381566,-0.03193911050545094,-0.009581733151635281,0.1533077304261645,0.16462905502466543,0.099197239175324,0.06530810590155972,0.6708655998984508
0.02235737735381566,-0.009581733151635281,-0.006387822101090189,-0.11498079781962338,0.16468943641686473,0.0991917841706158,0.06529443167743512,0.6708243477350844
0.02235737735381566,-0.04152084365708622,-0.019163466303270562,-0.08623559836471753,0.16475036220955724,0.09918601077430174,0.06528045719032209,0.6707831698258189
0.012775644202180378,-0.04471475470763132,-0.012775644202180378,-0.12775644202180375,0.16481183431312185,0.09917991919322,0.06526618232502579,0.6707420641686322
0.05749039890981169,-0.04471475470763132,-0.012775644202180378,-0.12775644202180375,0.1648738544189554,0.0991735097501091,0.06525160691398593,0.6707010289169496
0.05110257680872151,-0.038326932606541124,-0.012775644202180378,-0.02235737735381566,0.16493642402096634,0.09916678296471104,0.0652367307445225,0.6706600622698
0.009581733151635281,-0.035133021555996034,-0.019163466303270562,0.1469199083250743,0.1649995444847585,0.09915973956708489,0.06522155355042357,0.6706191623977331
0.0,-0.009581733151635281,-0.019163466303270562,0.2139920403865213,0.1650632170414837,0.09915238044008653,0.06520607504948742,0.6705783274689424
0.019163466303270562,-0.02235737735381566,-0.012775644202180378,-0.03193911050545094,0.1651274426793384,0.09914470649814529,0.06519029499310806,0.6705375558294082
-0.04152084365708622,-0.04152084365708622,-0.019163466303270562,0.01596955525272547,0.16519222211145956,0.09913671861168467,0.06517421318314955,0.6704968460937063
-0.12456253097125865,-0.05110257680872151,-0.03193911050545094,0.038326932606541124,0.16525755590651972,0.09912841768373779,0.06515782950099522,0.6704561969087474
-0.09901124256689792,-0.05429648785926659,-0.012775644202180378,0.03193911050545094,0.16532344468038382,0.09911980479684197,0.06514114398076089,0.6704156065420134
-0.028745199454905845,-0.047908665758176414,0.0,-0.07984777626362735,0.16538988922101716,0.09911088131269519,0.06512415680176403,0.6703750726645237
0.006387822101090189,-0.019163466303270562,-0.019163466303270562,-0.08623559836471753,0.1654568904529567,0.09910164889109467,0.0651068681360647,0.670334592519884
0.04152084365708622,0.006387822101090189,-0.01596955525272547,-0.1565016414767096,0.16552444927781487,0.09909210938718582,0.06508927804718037,0.6702941632878189
0.060684309960356786,-0.009581733151635281,-0.01596955525272547,-0.1469199083250743,0.16559256646062195,0.09908226464419856,0.0650713865446422,0.6702537823505373
0.04152084365708622,-0.01596955525272547,-0.01596955525272547,-0.06387822101090188,0.16566124264277513,0.09907211632644398,0.06505319364964028,0.6702134473811406
0.009581733151635281,-0.012775644202180378,-0.01596955525272547,0.03193911050545094,0.16573047839985175,0.09906166589469238,0.06503469940924565,0.6701731562962101
-0.05429648785926659,0.0031939110505450944,-0.019163466303270562,0.21718595143706637,0.16580027425097463,0.09905091464747737,0.06501590391282877,0.6701329071887193
-0.14372599727452925,0.0031939110505450944,-0.0031939110505450944,0.17247119672943506,0.16587063065482313,0.09903986369218246,0.06499680728146548,0.670092698371529
-0.13414426412289396,-0.01596955525272547,0.006387822101090189,0.0031939110505450944,0.16594154812847906,0.09902851386667884,0.06497740957101654,0.6700525284338255
0.0,-0.03193911050545094,-0.009581733151635281,-0.1628894635777998,0.16601302743498,0.0990168657583183,0.06495771065366278,0.6700123961530389
0.06707213206144698,-0.028745199454905845,-0.01596955525272547,-0.11817470887016848,0.16608506956762,0.0990049198358176,0.06493771019625118,0.6699723004003113
0.08942950941526263,-0.0031939110505450944,-0.012775644202180378,-0.2235737735381566,0.1661576755543973,0.09899267653470555,0.06491740772474892,0.6699322401861483
0.08623559836471753,0.0,-0.0031939110505450944,0.009581733151635281,0.16623084639666233,0.09898013619517045,0.06489680266661275,0.6698922147415546
-0.01596955525272547,-0.0031939110505450944,-0.02235737735381566,0.1053990646679881,0.16630458316824845,0.09896729894594879,0.06487589434635178,0.669852223539451
-0.1469199083250743,-0.019163466303270562,-0.03193911050545094,-0.10220515361744302,0.166378887067491,0.09895416466180519,0.06485468204856296,0.669812266222141
-0.11817470887016848,-0.02235737735381566,-0.025551288404360755,-0.1117868867690783,0.16645375942243584,0.09894073299220021,0.06483316519116433,0.6697723423941997
-0.060684309960356786,-0.02235737735381566,-0.019163466303270562,0.17247119672943506,0.1665292017285917,0.09892700341087671,0.06481134344967297,0.6697324514108587
-0.047908665758176414,-0.01596955525272547,-0.012775644202180378,0.16608337462834488,0.16660521561469366,0.0989129752578844,0.06478921671390635,0.6696925924135155
-0.06707213206144698,-0.012775644202180378,-0.0031939110505450944,0.1053990646679881,0.16668180271809788,0.09889864775296357,0.06476678493786946,0.669652764591069
-0.02235737735381566,-0.01596955525272547,-0.01596955525272547,0.02235737735381566,0.16675896462974188,0.098884019998158,0.06474404799808066,0.6696129673740194
0.047908665758176414,-0.02235737735381566,-0.0031939110505450944,-0.08942950941526263,0.16683670292211883,0.09886909100883458,0.06472100563930831,0.6695732004297383
0.04471475470763132,-0.028745199454905845,0.0,-0.10220515361744302,0.16691501916190976,0.09885385977396641,0.06469765745862818,0.6695334636054956
0.047908665758176414,-0.02235737735381566,-0.01596955525272547,0.05110257680872151,0.16699391490348026,0.09883832531311419,0.06467400285201007,0.6694937569313953
0.025551288404360755,-0.0031939110505450944,-0.02235737735381566,-0.12456253097125865,0.16707339167858953,0.09882248668236528,0.06465004103103518,0.6694540806080099
0.035133021555996034,-0.038326932606541124,-0.019163466303270562,-0.373687592913776,0.16715345092603784,0.09880634290324651,0.06462577116671758,0.6694144350039981
0.04152084365708622,-0.04471475470763132,-0.006387822101090189,-0.09581733151635283,0.16723409384891785,0.09878989290793146,0.06460119247480187,0.6693748207683489
0.025551288404360755,-0.009581733151635281,-0.012775644202180378,0.04152084365708622,0.16731532134487556,0.09877313560226514,0.06457630415159758,0.6693352389012617
0.009581733151635281,-0.009581733151635281,-0.02235737735381566,0.16608337462834488,0.16739713407955856,0.09875606992999758,0.06455110532206415,0.6692956906683797
0.009581733151635281,-0.03193911050545094,-0.038326932606541124,0.05110257680872151,0.16747953253377562,0.0987386948199368,0.06452559514401526,0.6692561775022723
-0.025551288404360755,-0.047908665758176414,-0.02235737735381566,0.019163466303270562,0.16756251695350052,0.09872100916329903,0.0644997730149115,0.669216700868289
-0.047908665758176414,-0.02235737735381566,-0.0031939110505450944,0.05110257680872151,0.1676460873519052,0.09870301192870394,0.06447363866804294,0.669177262051348
-0.038326932606541124,-0.0031939110505450944,0.0,0.05429648785926659,0.16773024362424793,0.09868470224438636,0.06444719200860186,0.6691378621227638
-0.01596955525272547,0.012775644202180378,-0.0031939110505450944,0.05749039890981169,0.16781498566746741,0.09866607932035122,0.06442043283459928,0.6690985021775822
-0.047908665758176414,-0.01596955525272547,-0.02235737735381566,0.028745199454905845,0.16790031341344572,0.09864714233393625,0.06439336071290883,0.6690591835397093
-0.028745199454905845,-0.01596955525272547,-0.025551288404360755,-0.01596955525272547,0.16798622680609468,0.09862789039971304,0.06436597509744937,0.6690199076967429
-0.0031939110505450944,-0.012775644202180378,-0.02235737735381566,-0.012775644202180378,0.16807272577438312,0.09860832258672414,0.06433827555687908,0.6689806760820137
-0.0031939110505450944,-0.006387822101090189,-0.0031939110505450944,0.11498079781962338,0.16815981018531034,0.09858843792019317,0.06431026188957009,0.6689414900049264
-0.01596955525272547,-0.0031939110505450944,-0.0031939110505450944,0.04471475470763132,0.1682474797853537,0.09856823535245685,0.06428193401394659,0.668902350848243
0.038326932606541124,-0.006387822101090189,-0.009581733151635281,-0.1565016414767096,0.16833573418860487,0.09854771371570045,0.06425329176164628,0.6688632603340483
0.03193911050545094,-0.019163466303270562,-0.019163466303270562,-0.13095035307234884,0.16842457289914517,0.09852687168559883,0.06422433478774228,0.6688242206275137
0.0,-0.01596955525272547,0.0031939110505450944,0.12456253097125865,0.16851399529754882,0.09850570778597777,0.06419506262109854,0.6687852342953748
-0.0031939110505450944,-0.04152084365708622,-0.02235737735381566,-0.2555128840436075,0.1686040005641818,0.09848422044377382,0.0641654747129694,0.6687463042790749
0.0,-0.05749039890981169,-0.035133021555996034,-0.27148243929633303,0.16869458753631245,0.09846240807938485,0.06413557047838482,0.6687074339059178
-0.0031939110505450944,-0.03193911050545094,-0.01596955525272547,-0.10220515361744302,0.16878575455346737,0.09844026920677114,0.0641053494184456,0.6686686268213158
0.019163466303270562,-0.028745199454905845,0.0,0.06387822101090188,0.16887749944417593,0.0984178024999822,0.06407481119248534,0.6686298868633566
0.0031939110505450944,-0.02235737735381566,0.006387822101090189,0.17885901883052527,0.168969819679094,0.09839500679286435,0.0640439554832717,0.66859121804477
-0.035133021555996034,-0.028745199454905845,-0.009581733151635281,0.14053208622398414,0.169062712503617,0.09837188102842896,0.06401278180346683,0.6685526246644873
-0.02235737735381566,-0.028745199454905845,-0.0031939110505450944,-0.06707213206144698,0.169156174974207,0.0983484242133896,0.06398128943004217,0.6685141113823613
-0.009581733151635281,-0.038326932606541124,-0.009581733151635281,-0.04471475470763132,0.1692502039941764,0.0983246354347872,0.06394947742506259,0.6684756831459738
0.009581733151635281,-0.01596955525272547,-0.025551288404360755,-0.05749039890981169,0.16934479635432087,0.09830051391531286,0.0639173446952177,0.6684373450351486
0.012775644202180378,0.01596955525272547,-0.009581733151635281,-0.12136861992071357,0.1694399487236761,0.09827605900493078,0.06388489011683733,0.6683991021545557
0.0031939110505450944,-0.025551288404360755,-0.02235737735381566,-0.1053990646679881,0.169535657609269,0.09825127009508078,0.0638521126427406,0.6683609596529096
-0.028745199454905845,-0.009581733151635281,-0.035133021555996034,0.04471475470763132,0.16963191932436553,0.09822614655070654,0.06381901135737884,0.6683229227675491
-0.04471475470763132,0.009581733151635281,-0.028745199454905845,0.0031939110505450944,0.16972873000894553,0.09820068767939538,0.06378558560105309,0.668284996710606
-0.038326932606541124,0.009581733151635281,-0.01596955525272547,0.04152084365708622,0.16982608572630922,0.09817489269677614,0.06375183510589112,0.6682471864710235
-0.025551288404360755,0.006387822101090189,-0.0031939110505450944,0.05429648785926659,0.1699239825686228,0.09814876070405995,0.06371775993939632,0.6682094967879209
-0.025551288404360755,0.0,-0.009581733151635281,0.08942950941526263,0.17002241669349985,0.09812229068063265,0.06368336027570896,0.6681719323501585
0.009581733151635281,-0.009581733151635281,-0.009581733151635281,0.05110257680872151,0.17012138429819443,0.09809548146455631,0.06364863620717602,0.6681344980300733
0.02235737735381566,-0.03193911050545094,-0.019163466303270562,-0.03193911050545094,0.17022088157396578,0.09806833176162896,0.06361358771626574,0.6680971989481395
0.009581733151635281,-0.04152084365708622,-0.019163466303270562,-0.08304168731417244,0.17032090465943042,0.09804084024634754,0.06357821476076486,0.6680600403334572
0.006387822101090189,-0.035133021555996034,-0.01596955525272547,-0.06387822101090188,0.17042144958528932,0.0980130057102648,0.06354251736725489,0.668023027337191
-0.04152084365708622,-0.02235737735381566,-0.028745199454905845,-0.09901124256689792,0.17052251222549575,0.09798482713786229,0.06350649568249134,0.6679861649541505
-0.06707213206144698,0.0031939110505450944,-0.01596955525272547,0.3257789271555996,0.17062408828964384,0.09795630363208631,0.0634701500031557,0.6679494580751142
-0.04471475470763132,-0.0031939110505450944,-0.019163466303270562,-0.038326932606541124,0.17072617335188103,0.09792743422095516,0.06343348077271953,0.6679129116544443
-0.025551288404360755,-0.025551288404360755,-0.02235737735381566,-0.08942950941526263,0.17082876290036222,0.09789821771454431,0.06339648854743771,0.6678765308376556
0.012775644202180378,-0.025551288404360755,-0.02235737735381566,-0.1533077304261645,0.17093185236384795,0.097868652742791,0.06335917400604903,0.667840320887312
0.07665386521308225,-0.05749039890981169,-0.02235737735381566,0.2139920403865213,0.1710354370601019,0.09783873789360734,0.06332153798790296,0.6678042870583878
0.1117868867690783,-0.012775644202180378,-0.012775644202180378,-0.17566510777998018,0.1711395121567487,0.09780847181328267,0.06328358147016791,0.6677684345598008
0.09262342046580772,-0.035133021555996034,0.0031939110505450944,-0.22996159563924676,0.17124407276498194,0.09777785320827312,0.06324530545544584,0.6677327685712992
0.05429648785926659,-0.025551288404360755,0.0,-0.27787026139742316,0.17134911405750053,0.09774688078138767,0.0632067107875307,0.6676972943735812
0.0031939110505450944,-0.025551288404360755,-0.006387822101090189,0.13414426412289396,0.17145463123880914,0.09771555319832177,0.0631677979775232,0.6676620175853458
-0.08304168731417244,-0.01596955525272547,-0.009581733151635281,0.28425808349851334,0.17156061942251494,0.09768386909105539,0.06312856715401452,0.6676269443324152
-0.1469199083250743,-0.012775644202180378,0.0031939110505450944,0.3641058597621407,0.1716670735951996,0.09765182700985572,0.06308901810921251,0.6675920812857322
-0.19163466303270565,0.009581733151635281,0.0,0.07984777626362735,0.17177398876402977,0.09761942531234286,0.06304915030062318,0.6675574356230041
-0.11817470887016848,-0.0031939110505450944,-0.01596955525272547,-0.2107981293359762,0.17188136023352532,0.09758666208345954,0.0630089628166542,0.6675230148663608
0.0,-0.019163466303270562,-0.025551288404360755,-0.22996159563924676,0.17198918373468036,0.0975535351270364,0.06296845445994248,0.6674888266783408
0.012775644202180378,-0.028745199454905845,-0.02235737735381566,-0.1501138193756194,0.1720974551888145,0.09752004200771354,0.06292762396604952,0.6674548788374225
0.060684309960356786,-0.038326932606541124,-0.025551288404360755,-0.09581733151635283,0.17220617036706165,0.09748618016117405,0.06288647020420145,0.667421179267563
0.04152084365708622,-0.01596955525272547,-0.02235737735381566,0.038326932606541124,0.17231532481522396,0.09745194703541814,0.06284499227248248,0.6673877358768754
0.019163466303270562,0.0031939110505450944,0.0,-0.0031939110505450944,0.17242491399437226,0.09741734014956004,0.06280318949298447,0.6673545563630832
0.05749039890981169,-0.012775644202180378,-0.006387822101090189,-0.10859297571853319,0.1725349334133361,0.09738235704722292,0.0627610612843889,0.6673216482550521
0.028745199454905845,-0.025551288404360755,-0.02235737735381566,0.03193911050545094,0.17264537867890722,0.09734699524178173,0.06271860700058783,0.6672890190787232
-0.025551288404360755,-0.038326932606541124,-0.02235737735381566,-0.02235737735381566,0.17275624547370627,0.09731125224610267,0.0626758259406369,0.6672566763395541
-0.16608337462834488,-0.03193911050545094,-0.02235737735381566,0.18205292988107036,0.17286752952669152,0.09727512566520587,0.06263271750503117,0.6672246273030715
-0.16608337462834488,-0.04152084365708622,-0.01596955525272547,0.2587067950941526,0.17297922668404792,0.09723861323473959,0.0625892812668617,0.6671928788143506
-0.05110257680872151,-0.038326932606541124,-0.009581733151635281,-0.18205292988107036,0.17309133302271731,0.09720171278022084,0.0625455168813651,0.6671614373156969
0.07345995416253714,-0.05110257680872151,-0.009581733151635281,-0.14372599727452925,0.17320384482295065,0.09716442221454127,0.06250142394337771,0.6671303090191303
0.12456253097125865,-0.025551288404360755,0.0,-0.02235737735381566,0.17331675847207842,0.09712673961278377,0.06245700188260529,0.6670995000325326
0.08623559836471753,-0.019163466303270562,-0.0031939110505450944,-0.006387822101090189,0.17343007053588913,0.0970886632575747,0.06241224989482804,0.667069016311708
0.019163466303270562,-0.02235737735381566,-0.060684309960356786,-0.2203798624876115,0.17354377787899972,0.09705019157960365,0.06236716699221712,0.6670388635491796
-0.038326932606541124,-0.03193911050545094,-0.025551288404360755,-0.14372599727452925,0.173657877519624,0.09701132304220117,0.062321752310794946,0.66700904712738
-0.05429648785926659,-0.012775644202180378,-0.006387822101090189,0.1565016414767096,0.17377236634579032,0.09697205606703707,0.06227600541042369,0.6669795721767489
-0.05110257680872151,0.009581733151635281,0.0031939110505450944,0.19482857408325072,0.17388724104333875,0.0969323890102212,0.06222992615825241,0.6669504437881878
-0.02235737735381566,-0.009581733151635281,0.009581733151635281,-0.04152084365708622,0.174002498199241,0.09689232012961374,0.062183514380628975,0.6669216672905163
0.01596955525272547,-0.028745199454905845,0.0,-0.009581733151635281,0.17411813437653786,0.09685184758178574,0.06213676968979441,0.6668932483518819
0.047908665758176414,-0.009581733151635281,-0.009581733151635281,0.17566510777998018,0.17423414613855137,0.09681096949663404,0.06208969147858686,0.6668651928862278
0.04471475470763132,0.01596955525272547,-0.01596955525272547,0.02235737735381566,0.1743505300561676,0.09676968402572396,0.062042278948013466,0.6668375069700951
-0.05749039890981169,0.035133021555996034,-0.009581733151635281,0.009581733151635281,0.17446728273013376,0.096727989328766,0.06199453117903949,0.6668101967620608
-0.08304168731417244,0.009581733151635281,-0.012775644202180378,0.019163466303270562,0.17458440086761032,0.09668588360367944,0.061946447216879134,0.6667832683118311
-0.07026604311199207,0.02235737735381566,-0.012775644202180378,-0.22996159563924676,0.17470188136533732,0.09664336511900164,0.06189802609192797,0.6667567274237332
-0.038326932606541124,-0.0031939110505450944,-0.009581733151635281,-0.06387822101090188,0.17481972129805054,0.09660043214726159,0.061849266793728236,0.6667305797609596
0.009581733151635281,-0.012775644202180378,-0.02235737735381566,0.047908665758176414,0.17493791782030202,0.09655708287422254,0.06180016826669379,0.6667048310387815
0.02235737735381566,-0.04152084365708622,-0.03193911050545094,0.03193911050545094,0.1750564680698819,0.09651331540059459,0.061750729505425546,0.6666794870240981
0.0031939110505450944,-0.05110257680872151,-0.02235737735381566,0.04471475470763132,0.17517536908888143,0.09646912786832748,0.061700949736471396,0.6666545533063197
-0.009581733151635281,-0.06387822101090188,-0.012775644202180378,-0.019163466303270562,0.17529461775347902,0.09642451866782989,0.06165082851572583,0.6666300350629653
0.0031939110505450944,-0.04471475470763132,-0.0031939110505450944,0.0031939110505450944,0.17541421074855873,0.09637948662604177,0.06160036562577727,0.6666059369996223
0.038326932606541124,-0.028745199454905845,-0.012775644202180378,0.009581733151635281,0.17553414461296343,0.09633403107317012,0.06154956087973659,0.6665822634341299
0.07026604311199207,-0.025551288404360755,-0.019163466303270562,-0.01596955525272547,0.17565441584474625,0.0962881517530241,0.06149841402539258,0.6665590183768371
0.035133021555996034,-0.038326932606541124,-0.025551288404360755,-0.06707213206144698,0.17577502100807216,0.09624184866930387,0.06144692481803652,0.6665362055045874
0.019163466303270562,-0.025551288404360755,-0.006387822101090189,-0.1053990646679881,0.17589595674559705,0.09619512199405683,0.061395093135080694,0.6665138281252654
0.03193911050545094,-0.006387822101090189,-0.009581733151635281,-0.1565016414767096,0.17601721968883088,0.09614797201947928,0.06134291895781371,0.666491889333876
0.01596955525272547,-0.019163466303270562,-0.009581733151635281,-0.04471475470763132,0.17613880638021603,0.09610039906965857,0.06129040223830509,0.6664703923118204
0.009581733151635281,-0.02235737735381566,-0.01596955525272547,0.07345995416253714,0.1762607132628421,0.09605240342676125,0.061237542827078974,0.6664493404833177
0.0031939110505450944,-0.05429648785926659,-0.02235737735381566,0.08304168731417244,0.1763829366700216,0.09600398537452931,0.0611843405307275,0.6664287374247218
-0.012775644202180378,-0.025551288404360755,-0.01596955525272547,-0.009581733151635281,0.17650547277589426,0.0959551453280576,0.06113079522164367,0.6664085866744045
0.012775644202180378,0.04152084365708622,0.0,0.08942950941526263,0.1766283175745264,0.09590588393417453,0.06107690687627695,0.6663888916150221
0.0,0.038326932606541124,0.006387822101090189,-0.08942950941526263,0.17675146691076377,0.09585620209787732,0.061022675464031124,0.6663696555273279
-0.019163466303270562,0.0031939110505450944,-0.006387822101090189,-0.2076042182854311,0.17687491648327494,0.09580610094785733,0.060968100782768264,0.6663508817860995
-0.04471475470763132,-0.006387822101090189,-0.028745199454905845,-0.047908665758176414,0.17699866182032384,0.09575558170273905,0.06091318242926499,0.6663325740476721
-0.03193911050545094,-0.01596955525272547,-0.025551288404360755,-0.01596955525272547,0.17712269832006367,0.09570464549014765,0.060857919969857406,0.6663147362199313
-0.012775644202180378,-0.01596955525272547,-0.012775644202180378,0.07026604311199207,0.17724702134020698,0.09565329328509051,0.06080231316242715,0.6662973722122753
-0.10220515361744302,-0.012775644202180378,-0.012775644202180378,0.14053208622398414,0.17737162625392758,0.09560152595730972,0.06074636200001779,0.6662804857887449
-0.09262342046580772,-0.009581733151635281,-0.01596955525272547,0.08623559836471753,0.17749650850924517,0.09554934428072662,0.06069006658024447,0.6662640806297837
0.012775644202180378,-0.006387822101090189,-0.02235737735381566,0.0,0.1776216637236948,0.09549674888921689,0.060633427024618346,0.66624816036247
0.07026604311199207,-0.07345995416253714,-0.035133021555996034,-0.1053990646679881,0.1777470876959598,0.09544374030166598,0.06057644356308046,0.6662327284392939
0.09901124256689792,-0.09901124256689792,-0.025551288404360755,-0.09581733151635283,0.17787277630154774,0.09539031913891258,0.06051911669359177,0.6662177878659481
0.08304168731417244,-0.05749039890981169,-0.0031939110505450944,-0.08304168731417244,0.17799872542515874,0.0953364864624944,0.06046144722260592,0.6662033408897409
0.03193911050545094,-0.035133021555996034,-0.012775644202180378,-0.060684309960356786,0.17812493099872304,0.09528224394975542,0.060403436096767606,0.6661893889547539
-0.05429648785926659,-0.06707213206144698,-0.0031939110505450944,0.16927728567888997,0.1782513890283172,0.0952275938010859,0.06034508418284962,0.6661759329877475
-0.12775644202180375,-0.03193911050545094,0.012775644202180378,0.04152084365708622,0.17837809557148876,0.09517253859793269,0.06028639215668977,0.6661629736738888
-0.1565016414767096,0.07026604311199207,0.03193911050545094,-0.17247119672943506,0.1785050468005919,0.09511708124171846,0.06022736052376984,0.6661505114339197
-0.17885901883052527,0.028745199454905845,-0.01596955525272547,-0.1628894635777998,0.1786322391651347,0.09506122490503363,0.06016798975614376,0.666138546173688
-0.1053990646679881,-0.0031939110505450944,-0.05110257680872151,-0.01596955525272547,0.1787596695126759,0.09500497291876916,0.0601082804780428,0.6661270770905122
-0.01596955525272547,-0.006387822101090189,-0.060684309960356786,0.047908665758176414,0.17888733507623805,0.09494832857310419,0.060048233732436805,0.6661161026182211
0.028745199454905845,-0.03193911050545094,-0.05110257680872151,-0.23634941774033696,0.1790152332649172,0.09489129494027713,0.059987851364760286,0.6661056204300453
0.06387822101090188,-0.06387822101090188,-0.03193911050545094,-0.14053208622398414,0.17914336134038536,0.09483387487737534,0.059927136239071324,0.6660956275431679
0.08623559836471753,-0.047908665758176414,-0.012775644202180378,0.3353606603072349,0.1792717162346224,0.09477607120294612,0.059866092041499015,0.6660861205209325
0.05429648785926659,-0.038326932606541124,-0.01596955525272547,0.23954332879088208,0.17940029456912485,0.09471788685721044,0.05980472283737788,0.6660770957362868
0.06387822101090188,-0.035133021555996034,-0.009581733151635281,0.19802248513379583,0.17952909271746115,0.09465932490928033,0.05974303269899788,0.6660685496742607
0.04152084365708622,-0.019163466303270562,0.0,-0.10859297571853319,0.1796581068628818,0.09460038848967645,0.0596810255227517,0.6660604791246901
0.038326932606541124,-0.025551288404360755,0.0031939110505450944,-0.06387822101090188,0.17978733309386843,0.0945410807519774,0.05961870493339018,0.6660528812207639
0.019163466303270562,-0.025551288404360755,-0.0031939110505450944,-0.060684309960356786,0.17991676749777982,0.09448140487291455,0.05955607421532681,0.6660457534139789
-0.01596955525272547,-0.02235737735381566,-0.006387822101090189,0.035133021555996034,0.18004640619142467,0.09442136407859007,0.05949313631020113,0.6660390934197841
-0.05749039890981169,0.019163466303270562,-0.02235737735381566,-0.02235737735381566,0.18017624531487905,0.09436096166130784,0.059429893895806475,0.6660328991280066
-0.035133021555996034,0.07345995416253714,-0.0031939110505450944,-0.28425808349851334,0.18030628102005394,0.09430020098834756,0.059366349504831044,0.6660271684867676
-0.012775644202180378,0.08623559836471753,-0.006387822101090189,-0.25231897299306244,0.18043650936903946,0.09423908560388064,0.059302505544177965,0.6660218994829019
-0.025551288404360755,0.009581733151635281,-0.01596955525272547,0.08623559836471753,0.1805669261446894,0.09417761939598689,0.05923836419279309,0.6660170902665307
-0.04152084365708622,-0.009581733151635281,-0.01596955525272547,0.2491250619425173,0.18069752677886428,0.09411580656405504,0.05917392739043179,0.666012739266649
-0.07345995416253714,-0.009581733151635281,-0.006387822101090189,0.35771803766105054,0.18082830643349285,0.09405365131887519,0.059109196935980074,0.6660088453116518
-0.09581733151635283,-0.04152084365708622,-0.0031939110505450944,-0.06707213206144698,0.1809592600941156,0.09399115763049304,0.05904417448108943,0.6660054077943021
-0.047908665758176414,-0.06707213206144698,-0.019163466303270562,-0.2938398166501486,0.18109038265921099,0.09392832927851467,0.05897886143405242,0.666002426628222
-0.006387822101090189,-0.06387822101090188,-0.01596955525272547,-0.11498079781962338,0.18122166895500438,0.09386517011736752,0.05891325896799446,0.6659999019596334
0.009581733151635281,-0.04471475470763132,-0.012775644202180378,0.17885901883052527,0.18135311359997575,0.09380168430484552,0.058847368134079425,0.6659978339610992
0.01596955525272547,-0.05110257680872151,-0.02235737735381566,0.11498079781962338,0.1814847108779438,0.09373787636011095,0.05878118994906158,0.6659962228128836
0.060684309960356786,-0.04471475470763132,-0.0031939110505450944,0.09262342046580772,0.18161645475539823,0.09367375111733561,0.05871472542365671,0.6659950687036094
0.060684309960356786,-0.038326932606541124,-0.009581733151635281,-0.07665386521308225,0.1817483390206553,0.0936093136825572,0.05864797552642419,0.6659943717703634
0.009581733151635281,-0.02235737735381566,-0.019163466303270562,-0.08304168731417244,0.18188035744372605,0.09354456938977006,0.058580941117115204,0.6659941320493888
0.012775644202180378,-0.03193911050545094,-0.03193911050545094,-0.07984777626362735,0.1820125038083749,0.09347952371500177,0.058513623002834456,0.6659943494737889
0.0031939110505450944,-0.006387822101090189,-0.012775644202180378,-0.006387822101090189,0.1821447718238265,0.09341418217996632,0.05844602212692693,0.6659950238692801
0.012775644202180378,-0.025551288404360755,-0.05110257680872151,-0.17566510777998018,0.18227715505451508,0.09334855027327436,0.058378139730510106,0.6659961549417006
0.01596955525272547,-0.03193911050545094,-0.01596955525272547,-0.07026604311199207,0.18240964687533204,0.09328263339416011,0.05830997746164295,0.665997742268865
-0.02235737735381566,0.009581733151635281,0.0,-0.11498079781962338,0.18254224044219378,0.09321643685101216,0.058241537371983565,0.6659997853348105
-0.012775644202180378,0.009581733151635281,0.0031939110505450944,-0.012775644202180378,0.18267492875975164,0.09314996588115655,0.05817282166305928,0.6660022836960325
0.009581733151635281,0.006387822101090189,0.009581733151635281,0.012775644202180378,0.18280770481381559,0.09308322562830675,0.05810383238382923,0.6660052371740484
0.02235737735381566,0.012775644202180378,0.006387822101090189,-0.019163466303270562,0.1829405616595295,0.09301622111148987,0.05803457135487562,0.666008645874105
0.019163466303270562,-0.012775644202180378,-0.012775644202180378,0.0,0.18307349245505078,0.09294895722881363,0.057965040236516455,0.6660125100796193
-0.009581733151635281,-0.047908665758176414,-0.025551288404360755,0.05749039890981169,0.18320649045569146,0.09288143880408727,0.05789524061521065,0.6660168301250108
-0.025551288404360755,-0.07345995416253714,-0.025551288404360755,0.03193911050545094,0.18333954894221677,0.09281367072269989,0.05782517413836087,0.6660216061967225
-0.019163466303270562,-0.05429648785926659,-0.01596955525272547,-0.07026604311199207,0.18347266111519808,0.09274565815279254,0.057754842649693376,0.6660268380823159
-0.012775644202180378,0.006387822101090189,-0.02235737735381566,-0.18524684093161545,0.18360582002913145,0.09267740665791858,0.05768424821080693,0.6660325251021431
-0.0031939110505450944,0.03193911050545094,-0.012775644202180378,0.08304168731417244,0.18373901855912123,0.09260892204494371,0.05761339303488869,0.6660386663610465
-0.04152084365708622,0.0,-0.025551288404360755,0.019163466303270562,0.18387224940101674,0.09254021012189687,0.057542279441641364,0.666045261035445
-0.06707213206144698,-0.0031939110505450944,-0.02235737735381566,-0.27148243929633303,0.1840055051483377,0.09247127654732529,0.0574709098791009,0.6660523084252361
-0.035133021555996034,0.009581733151635281,-0.006387822101090189,0.060684309960356786,0.18413877838434395,0.09240212671264203,0.05739928694604039,0.6660598079569735
-0.0031939110505450944,0.035133021555996034,0.01596955525272547,0.3800754150148662,0.1842720616733792,0.09233276568140789,0.05732741330759616,0.6660677593376167
-0.060684309960356786,0.012775644202180378,-0.012775644202180378,0.1469199083250743,0.18440534743798587,0.09226319824938967,0.057255291556452266,0.6660761627561722
-0.08304168731417244,-0.019163466303270562,-0.012775644202180378,0.0031939110505450944,0.18453862790799022,0.09219342902215014,0.05718292416042385,0.6660850189094357
-0.01596955525272547,-0.05749039890981169,-0.012775644202180378,-0.13095035307234884,0.18467189528054812,0.09212346248691526,0.0571103134914829,0.6660943287410537
0.07984777626362735,-0.05110257680872151,-0.009581733151635281,-0.08304168731417244,0.18480514186708236,0.09205330317181601,0.05703746184307006,0.6661040931180315
0.12136861992071357,-0.04471475470763132,-0.012775644202180378,-0.21718595143706637,0.1849383600887908,0.09198295582084379,0.05696437140004403,0.6661143126903214
0.08623559836471753,-0.025551288404360755,0.0,-0.009581733151635281,0.18507154251542784,0.09191242542389814,0.05689104418003221,0.6661249878806419
0.05110257680872151,-0.038326932606541124,-0.019163466303270562,0.047908665758176414,0.18520468198640483,0.09184171713507494,0.05681748198985022,0.66613611888867
-0.04471475470763132,-0.03193911050545094,-0.025551288404360755,0.035133021555996034,0.18533777164763401,0.09177083622262651,0.056743686488370915,0.6661477056413686
-0.1596955525272547,-0.035133021555996034,-0.04152084365708622,0.02235737735381566,0.18547080489974657,0.09169978806363384,0.05666965941123816,0.6661597476253815
-0.12456253097125865,-0.04471475470763132,-0.035133021555996034,-0.08942950941526263,0.18560377542388432,0.09162857812585397,0.056595402857090506,0.6661722435931712
-0.035133021555996034,-0.03193911050545094,-0.03193911050545094,0.035133021555996034,0.18573667725912454,0.09155721195028146,0.05652091946926797,0.6661851913213261
0.006387822101090189,-0.01596955525272547,-0.01596955525272547,0.16608337462834488,0.18586950471635147,0.0914856951375492,0.05644621242897353,0.6661985877171258
0.047908665758176414,0.0,-0.0031939110505450944,0.19163466303270565,0.18600225215044353,0.09141403326521955,0.05637128526118258,0.6662124293231544
0.035133021555996034,0.009581733151635281,-0.0031939110505450944,-0.08623559836471753,0.18613491383128158,0.09134223173390112,0.05629614152571993,0.6662267129090973
0.0,-0.025551288404360755,-0.025551288404360755,-0.11498079781962338,0.18626748396711176,0.09127029567858354,0.05622078459507739,0.6662414357592273
-0.08942950941526263,-0.028745199454905845,-0.025551288404360755,-0.05110257680872151,0.1863999567353683,0.09119823002583759,0.0561452177074052,0.6662565955313888
-0.10220515361744302,-0.009581733151635281,-0.009581733151635281,0.07984777626362735,0.18653232633370437,0.09112603959299147,0.05606944416657963,0.6662721899067245
-0.006387822101090189,-0.012775644202180378,0.009581733151635281,-0.08942950941526263,0.18666458711766534,0.09105372910217849,0.055993467387370745,0.6662882163927853
0.07984777626362735,-0.028745199454905845,0.025551288404360755,-0.11498079781962338,0.18679673366042784,0.09098130313837585,0.05591729078952597,0.6663046724116704
0.10859297571853319,-0.060684309960356786,-0.012775644202180378,-0.1117868867690783,0.18692876068321262,0.09090876618060259,0.05584091776724068,0.6663215553689442
0.060684309960356786,-0.06387822101090188,-0.025551288404360755,0.035133021555996034,0.1870606630331463,0.09083612277000498,0.05576435174546507,0.6663388624513836
0.012775644202180378,-0.028745199454905845,-0.009581733151635281,0.06387822101090188,0.187192435701194,0.09076337771171271,0.05568759621141233,0.6663565903756811
-0.03193911050545094,0.0,-0.01596955525272547,0.035133021555996034,0.18732407377469806,0.09069053610037263,0.05561065470448551,0.6663747354204438
-0.10220515361744302,-0.028745199454905845,-0.025551288404360755,0.012775644202180378,0.1874555724145547,0.09061760313288647,0.05553353080494924,0.6663932936476097
-0.08942950941526263,-0.03193911050545094,-0.04152084365708622,0.028745199454905845,0.1875869269498662,0.09054458394222209,0.05545622822286941,0.6664122608850424
-0.028745199454905845,-0.009581733151635281,-0.028745199454905845,-0.05429648785926659,0.18771813296748538,0.090471483582097,0.05537875100797185,0.6664316324424457
-0.0031939110505450944,0.03193911050545094,-0.025551288404360755,-0.35771803766105054,0.18784918620845867,0.09039830702443018,0.05530110368792351,0.6664514030791875
0.0031939110505450944,0.028745199454905845,-0.028745199454905845,0.009581733151635281,0.18798008228383217,0.09032505911239454,0.05522329121136797,0.6664715673924052
0.006387822101090189,0.012775644202180378,-0.028745199454905845,0.3098093719028741,0.1881108164406561,0.09025174455206385,0.05514531884450038,0.6664921201627796
-0.04152084365708622,0.01596955525272547,-0.02235737735381566,-0.047908665758176414,0.18824138352189837,0.09017836790480352,0.055067192143530785,0.6665130564297672
-0.08623559836471753,-0.02235737735381566,-0.02235737735381566,-0.18524684093161545,0.18837177807749603,0.09010493353905785,0.054988916927589074,0.666534371455857
0.006387822101090189,-0.019163466303270562,0.006387822101090189,0.03193911050545094,0.18850199454605726,0.09003144562604573,0.05491049918618741,0.6665560606417095
0.07026604311199207,-0.025551288404360755,0.012775644202180378,-0.01596955525272547,0.18863202740551396,0.08995790820759116,0.05483194493846249,0.6665781194484325
0.060684309960356786,-0.035133021555996034,0.006387822101090189,-0.025551288404360755,0.18876187127320596,0.08988432529137767,0.054753260102216504,0.6666005433331997
0.04471475470763132,-0.028745199454905845,0.006387822101090189,-0.12456253097125865,0.18889152098508846,0.08981070093792132,0.054674450411433685,0.6666233276655564
0.02235737735381566,-0.025551288404360755,-0.006387822101090189,-0.11817470887016848,0.18902097157836842,0.08973703929342927,0.05459552135347426,0.6666464677747279
0.03193911050545094,-0.025551288404360755,-0.012775644202180378,-0.060684309960356786,0.18915021817624156,0.089663344559537,0.05451647813314737,0.666669959131074
-0.0031939110505450944,-0.019163466303270562,-0.012775644202180378,-0.06707213206144698,0.18927925589943245,0.08958962095241098,0.054437325713080686,0.666693797435076
-0.047908665758176414,-0.0031939110505450944,-0.02235737735381566,0.10859297571853319,0.18940807984323532,0.0895158726580641,0.054358068918050964,0.6667179785806497
-0.1117868867690783,-0.025551288404360755,-0.028745199454905845,0.2746763503468781,0.18953668508180335,0.0894421037372013,0.05427871256343245,0.6667424986175629
-0.08942950941526263,-0.012775644202180378,-0.01596955525272547,0.14053208622398414,0.1896650666976897,0.08936831801528426,0.054199261562774104,0.6667673537242518
-0.01596955525272547,-0.009581733151635281,-0.01596955525272547,0.060684309960356786,0.18979321983465527,0.08929451904249917,0.05411972094458479,0.6667925401782608
0.02235737735381566,-0.0031939110505450944,-0.009581733151635281,-0.05110257680872151,0.18992113972831368,0.08922071011639222,0.05404009578130999,0.6668180543739841
0.03193911050545094,-0.025551288404360755,-0.012775644202180378,-0.16608337462834488,0.19004882168110962,0.08914689431489035,0.05396039110457782,0.6668438928994224
0.04152084365708622,-0.035133021555996034,-0.01596955525272547,-0.11498079781962338,0.19017626099932217,0.0890730745503973,0.05388061184742315,0.6668700526028573
0.038326932606541124,-0.04471475470763132,-0.02235737735381566,-0.10859297571853319,0.19030345293243653,0.08899925367907946,0.05380076284707132,0.6668965305414126
0.02235737735381566,-0.038326932606541124,-0.012775644202180378,0.009581733151635281,0.19043039265175582,0.08892543463927435,0.053720848911577364,0.6669233237973925
0.006387822101090189,-0.025551288404360755,-0.0031939110505450944,0.025551288404360755,0.1905570752802189,0.08885162054979011,0.05364087484676123,0.6669504293232298
-0.0031939110505450944,-0.025551288404360755,-0.01596955525272547,0.07345995416253714,0.19068349593192024,0.0887778147197557,0.05356084538068573,0.6669778439676383
-0.05110257680872151,-0.03193911050545094,-0.025551288404360755,0.04471475470763132,0.19080964971182074,0.08870402058917853,0.05348076512310286,0.6670055645758978
-0.09901124256689792,-0.012775644202180378,-0.025551288404360755,0.20121639618434092,0.1909355317147065,0.08863024164789617,0.05340063867994242,0.6670335879574549
-0.07026604311199207,0.025551288404360755,0.0,0.13733817517343905,0.19106113708192257,0.08855648133700038,0.053320470760414726,0.6670619108206622
0.025551288404360755,0.006387822101090189,-0.009581733151635281,-0.32258501610505447,0.1911864610400156,0.0884827429474708,0.0532402660653118,0.6670905299472019
0.04152084365708622,-0.012775644202180378,-0.006387822101090189,-0.08304168731417244,0.19131149882778228,0.08840902954769256,0.053160029065168965,0.6671194425593561
0.028745199454905845,-0.019163466303270562,-0.02235737735381566,-0.06387822101090188,0.1914362456146208,0.08833534395841808,0.053079763934003134,0.6671486464929579
0.028745199454905845,-0.006387822101090189,-0.012775644202180378,-0.07665386521308225,0.19156069653143692,0.08826168879095914,0.05299947467580558,0.6671781400017983
0.05110257680872151,-0.03193911050545094,-0.009581733151635281,-0.11498079781962338,0.19168484673720207,0.08818806650540474,0.052919165249583455,0.6672079215078097
0.07984777626362735,-0.047908665758176414,-0.0031939110505450944,-0.06707213206144698,0.1918086914588346,0.08811447948359355,0.05283883953866142,0.6672379895189106
0.047908665758176414,-0.019163466303270562,0.0,0.07345995416253714,0.19193222605519777,0.0880409301547732,0.05275850120521738,0.6672683425848117
-0.047908665758176414,-0.038326932606541124,-0.006387822101090189,-0.1053990646679881,0.19205544608142414,0.08796742108268972,0.05267815356206172,0.6672989792738243
-0.09581733151635283,-0.028745199454905845,-0.009581733151635281,0.24593115089197226,0.19217834727542432,0.0878939549441467,0.05259779953679308,0.6673298982436358
-0.16608337462834488,-0.025551288404360755,-0.028745199454905845,0.2619007061446977,0.19230092550506311,0.08782053444619392,0.05251744174390468,0.6673610983048383
-0.10859297571853319,-0.047908665758176414,-0.025551288404360755,-0.035133021555996034,0.19242317679193657,0.08774716223965101,0.05243708266491192,0.6673925783035006
-0.019163466303270562,-0.038326932606541124,-0.01596955525272547,-0.40243279236868185,0.19254509734551842,0.08767384091682266,0.05235672484586138,0.6674243368917977
0.038326932606541124,-0.04471475470763132,-0.019163466303270562,-0.17566510777998018,0.1926666833966562,0.087600573086991,0.05227637094618935,0.6674563725701634
0.0,-0.025551288404360755,-0.012775644202180378,-0.09581733151635283,0.19278793092831598,0.0875273614219508,0.05219602365613194,0.6674886839936013
-0.012775644202180378,-0.006387822101090189,0.0,0.18524684093161545,0.19290883560072294,0.08745420863912977,0.052115685608811434,0.6675212701513358
0.006387822101090189,0.03193911050545094,-0.006387822101090189,0.06387822101090188,0.1930293928427238,0.08738111743649588,0.05203535927035275,0.6675541304504277
0.02235737735381566,0.01596955525272547,-0.01596955525272547,-0.02235737735381566,0.19314959794281886,0.08730809045059351,0.051955046846978416,0.6675872647596091
0.019163466303270562,0.01596955525272547,-0.006387822101090189,-0.05429648785926659,0.1932694461371492,0.08723513028217506,0.051874750325884615,0.6676206732547911
0.02235737735381566,0.012775644202180378,0.0,-0.05110257680872151,0.19338893269788243,0.08716223950497562,0.05179447154287168,0.6676543562542703
0.019163466303270562,-0.019163466303270562,-0.009581733151635281,0.09581733151635283,0.1935080529788886,0.08708942063297814,0.05171421213305689,0.6676883142550764
0.006387822101090189,-0.006387822101090189,-0.028745199454905845,0.18524684093161545,0.19362680237948876,0.08701667608330212,0.05163397350468282,0.6677225480325262
-0.02235737735381566,-0.01596955525272547,-0.02235737735381566,0.24273723984142714,0.19374517620565535,0.08694400810801248,0.051553756994119466,0.6677570586922127
-0.06707213206144698,-0.028745199454905845,-0.07345995416253714,0.18524684093161545,0.193863169500247,0.0868714187114257,0.05147356416131643,0.6677918476270107
-0.08304168731417244,-0.02235737735381566,-0.047908665758176414,0.060684309960356786,0.19398077698354133,0.08679890963305668,0.05139339719312113,0.6678269161902807
-0.05749039890981169,-0.03193911050545094,-0.006387822101090189,-0.2203798624876115,0.19409799315755777,0.08672648240763343,0.05131325919052855,0.6678622652442803
-0.028745199454905845,-0.019163466303270562,0.006387822101090189,-0.6547517653617443,0.1942148123847904,0.08665413841649597,0.05123315391586057,0.6678978952828529
0.01596955525272547,-0.02235737735381566,0.01596955525272547,-0.373687592913776,0.19433122869975644,0.0865818788369622,0.051153085175153205,0.6679338072881281
0.04471475470763132,-0.025551288404360755,0.0031939110505450944,0.18844075198216054,0.19444723554605947,0.08650970455560418,0.05107305645007453,0.6679700034482619
0.01596955525272547,-0.03193911050545094,-0.0031939110505450944,0.47908665758176416,0.19456282578158018,0.08643761619542248,0.05099307084807598,0.6680064871749214
-0.0031939110505450944,-0.038326932606541124,-0.006387822101090189,0.2650946171952428,0.19467799178814524,0.08636561422214012,0.0509131310690774,0.6680432629206373
-0.02235737735381566,0.038326932606541124,-0.006387822101090189,-0.14372599727452925,0.19479272547028365,0.08629369904131388,0.050833239364297296,0.6680803361241051
0.009581733151635281,0.028745199454905845,-0.02235737735381566,-0.4152084365708622,0.19490701827422457,0.08622187108064724,0.050753397602505884,0.6681177130426224
0.06387822101090188,-0.006387822101090189,-0.01596955525272547,-0.23954332879088208,0.1950208612364966,0.08615013077328074,0.050673607422632765,0.66815540056759
0.08942950941526263,-0.047908665758176414,-0.01596955525272547,0.08623559836471753,0.1951342450540718,0.08607847844475114,0.050593870373970756,0.6681934061272065
0.07345995416253714,-0.06707213206144698,-0.025551288404360755,0.18844075198216054,0.19524716028993652,0.08600691434012495,0.05051418799569155,0.668231737374247
0.06387822101090188,-0.038326932606541124,-0.01596955525272547,0.07026604311199207,0.19535959757254087,0.08593543884781105,0.050434561873528044,0.66827040170612
-0.025551288404360755,-0.019163466303270562,-0.02235737735381566,-0.09262342046580772,0.19547154764069075,0.08586405264173445,0.05035499369128849,0.6683094060262863
-0.14372599727452925,-0.03193911050545094,-0.028745199454905845,-0.10859297571853319,0.19558300135834497,0.08579275659567581,0.050275485274476145,0.6683487567715032
-0.1565016414767096,-0.025551288404360755,-0.02235737735381566,0.07026604311199207,0.195693949835173,0.08572155163251731,0.0501960386536942,0.6683884598786155
-0.06387822101090188,-0.02235737735381566,-0.0031939110505450944,0.05429648785926659,0.195804384628649,0.08565043865717714,0.050116656074769644,0.6684285206394042
-0.08942950941526263,-0.02235737735381566,0.0,0.1117868867690783,0.1959142978566828,0.08557941855688454,0.05003733983355589,0.6684689437528767
-0.06387822101090188,-0.019163466303270562,-0.0031939110505450944,0.07665386521308225,0.19602368214640636,0.0855084922090473,0.04995809201099967,0.6685097336335467
0.035133021555996034,-0.025551288404360755,-0.009581733151635281,-0.0031939110505450944,0.19613253054003432,0.08543766048405743,0.04987891432522315,0.6685508946506852
