0.287601643,0.257846871,0.078834424,0.224548975
0.287601875,0.257829305,0.078831206,0.224554145
0.287602254,0.257811825,0.078827988,0.224559406
0.287602779,0.257794432,0.07882477,0.224564757
0.287603449,0.257777124,0.078821551,0.224570197
0.287604263,0.257759902,0.078818331,0.224575724
0.287605221,0.257742766,0.07881511,0.224581338
0.287606323,0.257725715,0.078811888,0.224587039
0.287607569,0.257708752,0.078808665,0.224592827
0.287608959,0.257691875,0.07880544,0.2245987
0.287610493,0.257675087,0.078802215,0.224604658
0.287612172,0.257658387,0.078798987,0.2246107
0.287613994,0.257641775,0.078795758,0.224616827
0.28761596,0.257625253,0.078792527,0.224623037
0.287618069,0.25760882,0.078789294,0.224629329
0.287620321,0.257592478,0.078786058,0.224635704
0.287622715,0.257576225,0.078782819,0.224642161
0.287625249,0.257560064,0.078779577,0.224648699
0.287627923,0.257543993,0.078776331,0.224655317
0.287630733,0.257528014,0.078773081,0.224662015
0.287633678,0.257512125,0.078769827,0.22466879
0.287636756,0.257496325,0.078766569,0.224675642
0.287639967,0.257480616,0.078763305,0.224682569
0.287643309,0.257464997,0.078760036,0.224689571
0.287646783,0.257449468,0.078756761,0.224696648
0.287650388,0.257434029,0.078753482,0.224703798
0.287654124,0.257418681,0.078750197,0.224711022
0.287657992,0.257403423,0.078746906,0.224718317
0.287661991,0.257388257,0.078743609,0.224725684
0.287666122,0.257373183,0.078740306,0.224733122
0.287670385,0.257358199,0.078736997,0.224740631
0.28767478,0.257343307,0.078733681,0.224748208
0.287679305,0.257328507,0.078730359,0.224755855
0.287683961,0.257313798,0.07872703,0.22476357
0.287688746,0.257299181,0.078723694,0.224771353
0.287693659,0.257284655,0.078720351,0.224779203
0.287698699,0.257270219,0.078717002,0.224787119
0.287703864,0.257255873,0.078713645,0.2247951
0.287709152,0.257241615,0.078710281,0.224803145
0.287714566,0.257227445,0.07870691,0.224811253
0.287720103,0.257213363,0.078703533,0.224819424
0.287725766,0.257199369,0.078700149,0.224827657
0.287731554,0.257185463,0.07869676,0.224835952
0.287737468,0.257171646,0.078693365,0.224844309
0.287743508,0.257157916,0.078689964,0.224852727
0.287749676,0.257144274,0.078686558,0.224861206
0.287755971,0.25713072,0.078683147,0.224869745
0.287762393,0.257117254,0.07867973,0.224878344
0.287768944,0.257103876,0.078676309,0.224887002
0.287775621,0.257090587,0.078672883,0.22489572
0.287782426,0.257077386,0.078669451,0.224904496
0.287789356,0.257064273,0.078666014,0.224913331
0.28779641,0.257051249,0.078662571,0.224922223
0.287803586,0.257038312,0.078659123,0.224931171
0.287810884,0.257025464,0.078655667,0.224940175
0.287818301,0.257012702,0.078652206,0.224949233
0.287825839,0.257000028,0.078648737,0.224958344
0.287833495,0.256987441,0.078645261,0.22496751
0.287841271,0.256974942,0.078641778,0.224976728
0.287849165,0.256962532,0.078638287,0.224985999
0.287857178,0.256950212,0.078634788,0.224995322
0.28786531,0.256937983,0.078631281,0.225004698
0.28787356,0.256925845,0.078627765,0.225014125
0.287881927,0.256913799,0.07862424,0.225023605
0.287890412,0.256901847,0.078620707,0.225033136
0.287899013,0.256889989,0.078617163,0.225042719
0.287907729,0.256878226,0.07861361,0.225052353
0.287916559,0.256866556,0.078610048,0.225062036
0.287925502,0.256854981,0.078606475,0.225071769
0.287934555,0.2568435,0.078602892,0.225081549
0.287943718,0.256832111,0.078599298,0.225091375
0.287952987,0.256820814,0.078595693,0.225101245
0.287962362,0.256809609,0.078592078,0.225111159
0.287971843,0.256798494,0.078588451,0.225121114
0.287981429,0.256787471,0.078584815,0.22513111
0.287991119,0.256776538,0.078581167,0.225141147
0.288000913,0.256765697,0.078577509,0.225151223
0.28801081,0.256754945,0.078573841,0.225161337
0.28802081,0.256744285,0.078570161,0.225171488
0.288030912,0.256733714,0.078566472,0.225181676
0.288041115,0.256723233,0.078562771,0.225191899
0.288051419,0.256712843,0.078559059,0.225202157
0.288061821,0.256702542,0.078555336,0.225212449
0.288072322,0.256692332,0.078551603,0.225222774
0.288082918,0.256682212,0.078547858,0.225233132
0.288093608,0.256672182,0.078544103,0.225243521
0.288104391,0.256662241,0.078540336,0.22525394
0.288115263,0.25665239,0.078536558,0.225264388
0.288126224,0.256642626,0.078532769,0.225274862
0.288137272,0.256632951,0.07852897,0.225285363
0.288148409,0.256623365,0.07852516,0.22529589
0.288159633,0.256613867,0.07852134,0.225306442
0.288170945,0.256604459,0.078517511,0.225317017
0.288182344,0.256595141,0.078513672,0.225327616
0.288193831,0.256585913,0.078509825,0.225338237
0.288205405,0.256576776,0.078505969,0.225348879
0.288217067,0.25656773,0.078502105,0.225359543
0.288228816,0.256558776,0.078498233,0.225370227
0.288240652,0.256549914,0.078494353,0.22538093
0.288252574,0.256541144,0.078490466,0.225391653
0.288264581,0.256532467,0.078486571,0.225402395
0.288276671,0.256523882,0.078482668,0.225413154
0.288288843,0.25651539,0.078478757,0.22542393
0.288301094,0.25650699,0.078474838,0.225434721
0.288313423,0.256498681,0.078470911,0.225445526
0.288325828,0.256490463,0.078466975,0.225456344
0.288338309,0.256482336,0.078463031,0.225467174
0.288350864,0.2564743,0.078459079,0.225478015
0.288363494,0.256466356,0.078455118,0.225488867
0.288376196,0.256458505,0.078451149,0.225499728
0.288388971,0.256450746,0.078447171,0.225510599
0.288401818,0.256443081,0.078443185,0.225521477
0.288414738,0.25643551,0.07843919,0.225532363
0.288427728,0.256428034,0.078435187,0.225543255
0.288440788,0.256420652,0.078431174,0.225554154
0.288453918,0.256413365,0.078427152,0.225565058
0.288467115,0.256406175,0.078423121,0.225575967
0.288480379,0.25639908,0.07841908,0.22558688
0.288493707,0.256392081,0.078415029,0.225597797
0.288507097,0.256385177,0.078410969,0.225608715
0.288520548,0.256378368,0.078406897,0.225619635
0.288534057,0.256371654,0.078402815,0.225630554
0.288547623,0.256365033,0.078398721,0.225641472
0.288561246,0.256358507,0.078394617,0.225652389
0.288574925,0.256352074,0.078390501,0.225663302
0.288588659,0.256345735,0.078386375,0.225674213
0.28860245,0.25633949,0.078382238,0.225685121
0.288616295,0.25633334,0.078378089,0.225696023
0.288630195,0.256327284,0.078373929,0.225706921
0.28864415,0.256321323,0.078369758,0.225717814
0.28865816,0.256315456,0.078365576,0.225728701
0.288672223,0.256309685,0.078361383,0.225739581
0.288686338,0.256304009,0.078357179,0.225750454
0.288700505,0.25629843,0.078352964,0.225761321
0.288714721,0.256292946,0.07834874,0.225772179
0.288728985,0.256287559,0.078344505,0.225783029
0.288743295,0.256282268,0.07834026,0.225793868
0.288757648,0.256277072,0.078336005,0.225804697
0.288772043,0.256271972,0.07833174,0.225815514
0.28878648,0.256266967,0.078327465,0.225826318
0.288800958,0.256262058,0.078323182,0.22583711
0.288815478,0.256257245,0.07831889,0.225847888
0.288830039,0.256252529,0.07831459,0.225858652
0.288844642,0.256247911,0.078310282,0.225869402
0.288859288,0.25624339,0.078305967,0.225880136
0.288873976,0.256238966,0.078301644,0.225890856
0.288888708,0.256234641,0.078297315,0.22590156
0.288903484,0.256230414,0.07829298,0.225912248
0.288918305,0.256226285,0.078288638,0.225922921
0.288933168,0.256222255,0.07828429,0.225933577
0.288948076,0.256218323,0.078279936,0.225944217
0.288963026,0.25621449,0.078275576,0.225954839
0.288978017,0.256210756,0.07827121,0.225965443
0.288993048,0.25620712,0.078266838,0.225976028
0.289008119,0.25620358,0.078262459,0.225986592
0.289023229,0.256200138,0.078258075,0.225997135
0.289038378,0.256196792,0.078253684,0.226007656
0.289053567,0.256193544,0.078249286,0.226018155
0.289068796,0.256190392,0.078244883,0.226028631
0.289084065,0.256187338,0.078240474,0.226039083
0.289099375,0.256184382,0.078236058,0.226049513
0.289114725,0.256181524,0.078231636,0.226059918
0.289130118,0.256178765,0.078227207,0.226070298
0.289145553,0.256176104,0.078222772,0.226080655
0.28916103,0.256173542,0.07821833,0.226090986
0.289176551,0.25617108,0.078213881,0.226101293
0.289192114,0.256168718,0.078209425,0.226111576
0.28920772,0.256166455,0.078204961,0.226121833
0.289223368,0.256164293,0.078200491,0.226132066
0.289239058,0.256162231,0.078196013,0.226142272
0.289254789,0.256160269,0.078191528,0.226152452
0.28927056,0.256158407,0.078187035,0.226162604
0.289286373,0.256156644,0.078182535,0.226172729
0.289302227,0.256154981,0.078178027,0.226182826
0.289318125,0.256153419,0.078173513,0.226192895
0.289334068,0.256151958,0.078168993,0.226202937
0.289350057,0.2561506,0.078164467,0.226212951
0.289366094,0.256149344,0.078159935,0.226222937
0.28938218,0.256148193,0.078155398,0.226232895
0.289398317,0.256147145,0.078150857,0.226242825
0.289414506,0.256146203,0.078146311,0.226252727
0.289430748,0.256145366,0.078141761,0.226262602
0.289447044,0.256144635,0.078137208,0.226272449
0.289463395,0.256144012,0.078132651,0.226282269
0.2894798,0.256143496,0.078128092,0.226292061
0.28949626,0.256143089,0.07812353,0.226301826
0.289512773,0.256142789,0.078118965,0.226311563
0.28952934,0.256142598,0.078114399,0.226321271
0.28954596,0.256142515,0.078109831,0.22633095
0.289562634,0.256142541,0.078105262,0.226340599
0.289579363,0.256142675,0.078100693,0.22635022
0.289596149,0.256142921,0.078096125,0.226359811
0.289612992,0.256143277,0.078091558,0.226369374
0.289629895,0.256143745,0.078086993,0.226378908
0.289646857,0.256144327,0.078082431,0.226388412
0.289663881,0.256145023,0.078077873,0.226397889
0.289680968,0.256145833,0.078073319,0.226407336
0.289698117,0.256146759,0.07806877,0.226416756
0.28971533,0.256147801,0.078064227,0.226426148
0.289732606,0.25614896,0.078059689,0.226435513
0.289749945,0.256150238,0.078055159,0.22644485
0.289767347,0.256151634,0.078050636,0.22645416
0.28978481,0.256153148,0.078046122,0.226463443
0.289802334,0.256154781,0.078041616,0.226472698
0.289819917,0.256156532,0.078037121,0.226481924
0.289837559,0.256158402,0.078032635,0.226491121
0.28985526,0.256160391,0.078028161,0.22650029
0.28987302,0.2561625,0.078023699,0.22650943
0.289890839,0.256164729,0.078019249,0.226518542
0.289908717,0.256167079,0.078014814,0.226527626
0.289926654,0.256169552,0.078010394,0.226536682
0.289944651,0.256172148,0.078005988,0.22654571
0.289962708,0.256174867,0.078001599,0.226554711
0.289980825,0.256177712,0.077997227,0.226563684
0.289999001,0.256180683,0.077992872,0.226572631
0.290017237,0.256183781,0.077988535,0.226581551
0.290035532,0.256187006,0.077984217,0.226590446
0.290053886,0.256190361,0.077979918,0.226599315
0.290072296,0.256193845,0.077975638,0.226608158
0.290090762,0.256197458,0.077971378,0.226616976
0.290109282,0.2562012,0.077967137,0.226625767
0.290127854,0.256205072,0.077962918,0.226634533
0.290146478,0.256209072,0.077958719,0.226643272
0.290165155,0.256213202,0.077954542,0.226651985
0.290183884,0.256217462,0.077950387,0.226660673
0.290202667,0.256221852,0.077946255,0.226669336
0.290221503,0.256226374,0.077942147,0.226677974
0.290240394,0.256231028,0.077938063,0.226686589
0.29025934,0.256235815,0.077934004,0.226695179
0.290278342,0.256240735,0.07792997,0.226703746
0.2902974,0.25624579,0.077925961,0.226712291
0.290316515,0.256250981,0.07792198,0.226720813
0.290335686,0.256256309,0.077918026,0.226729314
0.290354914,0.256261774,0.077914099,0.226737794
0.290374197,0.256267378,0.077910202,0.226746254
0.290393533,0.25627312,0.077906334,0.226754693
0.290412922,0.256279,0.077902496,0.226763111
0.290432362,0.256285019,0.077898689,0.22677151
0.290451853,0.256291176,0.077894914,0.226779887
0.290471393,0.256297472,0.077891172,0.226788245
0.290490985,0.256303906,0.077887463,0.226796583
0.290510627,0.25631048,0.077883789,0.226804901
0.290530321,0.256317194,0.07788015,0.226813202
0.290550066,0.25632405,0.077876549,0.226821484
0.290569864,0.256331048,0.077872985,0.226829749
0.290589715,0.256338188,0.077869459,0.226837997
0.290609619,0.256345472,0.077865973,0.226846229
0.290629578,0.256352901,0.077862527,0.226854445
0.29064959,0.256360475,0.077859122,0.226862647
0.290669656,0.256368195,0.077855758,0.226870835
0.290689775,0.256376061,0.077852437,0.226879009
0.290709947,0.256384075,0.077849159,0.22688717
0.29073017,0.256392237,0.077845924,0.226895318
0.290750445,0.256400545,0.077842733,0.226903452
0.290770769,0.256408999,0.077839586,0.226911573
0.290791145,0.256417601,0.077836485,0.226919681
0.290811571,0.256426349,0.077833429,0.226927775
0.290832049,0.256435244,0.077830419,0.226935857
0.29085258,0.256444286,0.077827455,0.226943927
0.290873163,0.256453477,0.07782454,0.226951985
0.2908938,0.256462816,0.077821672,0.226960032
0.290914491,0.256472304,0.077818852,0.226968068
0.290935237,0.25648194,0.077816081,0.226976094
0.290956038,0.256491725,0.07781336,0.226984111
0.290976894,0.25650166,0.077810688,0.226992118
0.290997805,0.256511745,0.077808066,0.227000118
0.291018771,0.256521979,0.077805495,0.22700811
0.291039791,0.256532364,0.077802975,0.227016095
0.291060865,0.2565429,0.077800507,0.227024074
0.291081989,0.256553585,0.077798091,0.227032046
0.291103165,0.25656442,0.077795727,0.227040012
0.291124389,0.256575404,0.077793417,0.227047972
0.291145664,0.256586537,0.07779116,0.227055926
0.291166988,0.256597819,0.077788959,0.227063875
0.291188363,0.25660925,0.077786814,0.227071819
0.29120979,0.256620832,0.077784725,0.22707976
0.291231268,0.256632563,0.077782694,0.227087697
0.291252799,0.256644446,0.077780721,0.227095633
0.291274385,0.256656479,0.077778807,0.227103566
0.291296025,0.256668663,0.077776952,0.227111499
0.291317721,0.256680999,0.077775157,0.227119431
0.291339473,0.256693487,0.077773422,0.227127365
0.291361282,0.256706127,0.077771749,0.2271353
0.291383148,0.25671892,0.077770137,0.227143238
0.29140507,0.256731866,0.077768588,0.227151179
0.291427047,0.256744964,0.077767102,0.227159124
0.291449079,0.256758213,0.077765679,0.227167073
0.291471165,0.256771614,0.077764319,0.227175026
0.291493306,0.256785166,0.077763023,0.227182984
0.291515502,0.256798868,0.077761792,0.227190946
0.291537754,0.256812721,0.077760626,0.227198914
0.291560064,0.256826724,0.077759526,0.227206888
0.291582433,0.256840879,0.077758492,0.22721487
0.291604861,0.256855185,0.077757526,0.227222859
0.291627351,0.256869643,0.077756628,0.227230856
0.291649904,0.256884253,0.077755798,0.227238863
0.291672521,0.256899014,0.077755036,0.227246879
0.291695202,0.256913929,0.077754344,0.227254906
0.29171795,0.256928995,0.077753722,0.227262945
0.291740763,0.256944215,0.07775317,0.227270996
0.291763643,0.256959587,0.077752688,0.227279061
0.291786588,0.256975112,0.077752278,0.22728714
0.291809598,0.256990788,0.07775194,0.227295234
0.291832673,0.257006616,0.077751674,0.227303342
0.291855812,0.257022594,0.077751479,0.227311465
0.291879016,0.257038722,0.077751358,0.227319602
0.291902285,0.257054999,0.077751309,0.227327756
0.291925619,0.257071425,0.077751334,0.227335926
0.291949021,0.257088001,0.077751432,0.227344114
0.29197249,0.257104726,0.077751604,0.22735232
0.291996027,0.2571216,0.07775185,0.227360545
0.292019634,0.257138623,0.077752171,0.22736879
0.292043312,0.257155795,0.077752565,0.227377056
0.292067062,0.257173115,0.077753035,0.227385343
0.292090884,0.257190583,0.077753579,0.227393653
0.292114779,0.2572082,0.077754198,0.227401986
0.292138747,0.257225965,0.077754892,0.227410344
0.292162787,0.257243877,0.077755662,0.227418728
0.2921869,0.257261936,0.077756506,0.227427137
0.292211085,0.257280142,0.077757425,0.227435572
0.292235341,0.257298492,0.07775842,0.227444033
0.292259669,0.257316987,0.07775949,0.22745252
0.292284068,0.257335624,0.077760635,0.227461035
0.29230854,0.257354404,0.077761856,0.227469578
0.292333087,0.257373326,0.077763152,0.22747815
0.29235771,0.25739239,0.077764526,0.227486751
0.292382411,0.257411594,0.077765975,0.227495383
0.292407192,0.25743094,0.077767502,0.227504047
0.292432054,0.257450426,0.077769105,0.227512743
0.292456998,0.257470051,0.077770785,0.227521472
0.292482027,0.257489817,0.077772543,0.227530236
0.292507141,0.257509722,0.077774378,0.227539035
0.292532342,0.257529766,0.077776291,0.22754787
0.292557629,0.25754995,0.077778281,0.227556743
0.292583005,0.257570272,0.077780349,0.227565653
0.292608468,0.257590732,0.077782495,0.227574603
0.292634018,0.25761133,0.077784719,0.22758359
0.292659658,0.257632063,0.07778702,0.227592617
0.292685386,0.257652932,0.077789398,0.227601682
0.292711205,0.257673936,0.077791853,0.227610787
0.292737117,0.257695075,0.077794386,0.227619933
0.292763124,0.257716348,0.077796996,0.227629119
0.292789227,0.257737757,0.077799684,0.227638348
0.29281543,0.257759301,0.077802449,0.227647618
0.292841733,0.257780981,0.077805292,0.227656932
0.292868139,0.257802796,0.077808212,0.227666288
0.292894651,0.257824746,0.077811209,0.22767569
0.29292127,0.257846832,0.077814284,0.227685136
0.292947997,0.257869054,0.077817436,0.227694628
0.292974834,0.257891412,0.077820666,0.227704168
0.293001782,0.257913906,0.077823972,0.227713755
0.293028841,0.257936535,0.077827355,0.227723389
0.293056011,0.257959299,0.077830814,0.227733073
0.293083292,0.257982197,0.07783435,0.227742804
0.293110685,0.258005227,0.077837961,0.227752584
0.293138189,0.25802839,0.077841648,0.227762412
0.293165805,0.258051685,0.07784541,0.227772289
0.293193536,0.258075112,0.077849248,0.227782216
0.29322138,0.25809867,0.077853161,0.227792193
0.29324934,0.258122359,0.077857149,0.227802221
0.293277416,0.258146179,0.077861211,0.227812301
0.29330561,0.25817013,0.077865348,0.227822432
0.293333922,0.258194211,0.077869558,0.227832616
0.293362352,0.258218423,0.077873842,0.227842853
0.293390902,0.258242764,0.0778782,0.227853144
0.29341957,0.258267235,0.07788263,0.22786349
0.293448358,0.258291836,0.077887133,0.227873891
0.293477263,0.258316565,0.077891707,0.227884349
0.293506287,0.258341424,0.077896353,0.227894862
0.293535427,0.258366409,0.07790107,0.227905432
0.293564683,0.258391521,0.077905857,0.227916058
0.293594053,0.258416759,0.077910713,0.22792674
0.293623539,0.25844212,0.077915638,0.227937479
0.29365314,0.258467605,0.077920632,0.227948276
0.293682857,0.258493213,0.077925695,0.22795913
0.293712692,0.258518945,0.077930827,0.227970044
0.293742645,0.258544799,0.077936027,0.227981016
0.293772715,0.258570776,0.077941295,0.227992049
0.293802905,0.258596875,0.077946631,0.228003142
0.293833215,0.258623095,0.077952034,0.228014297
0.293863644,0.258649437,0.077957504,0.228025513
0.293894194,0.2586759,0.077963042,0.228036793
0.293924864,0.258702485,0.077968646,0.228048136
0.293955654,0.25872919,0.077974317,0.228059543
0.293986564,0.258756015,0.077980056,0.228071015
0.294017593,0.25878296,0.077985863,0.228082552
0.29404874,0.258810024,0.077991738,0.228094154
0.294080004,0.258837205,0.077997681,0.22810582
0.294111385,0.258864502,0.078003692,0.228117552
0.294142884,0.258891914,0.078009771,0.228129349
0.294174502,0.258919442,0.07801592,0.228141213
0.29420624,0.258947084,0.078022138,0.228153143
0.294238099,0.258974842,0.078028426,0.22816514
0.294270081,0.259002716,0.078034783,0.228177205
0.294302187,0.259030704,0.078041211,0.228189338
0.294334419,0.259058808,0.07804771,0.228201539
0.294366778,0.259087027,0.078054279,0.22821381
0.294399267,0.259115362,0.078060919,0.228226152
0.294431885,0.259143812,0.07806763,0.228238564
0.294464633,0.259172377,0.078074413,0.228251047
0.294497511,0.259201059,0.078081267,0.228263603
0.294530519,0.259229856,0.078088192,0.228276231
0.294563656,0.259258768,0.078095189,0.228288931
0.294596921,0.259287794,0.078102257,0.228301704
0.294630314,0.259316935,0.078109397,0.228314549
0.294663834,0.259346189,0.078116608,0.228327465
0.294697481,0.259375556,0.078123892,0.228340454
0.294731256,0.259405037,0.078131247,0.228353516
0.294765157,0.259434631,0.078138674,0.228366651
0.294799187,0.259464339,0.078146174,0.22837986
0.294833344,0.25949416,0.078153745,0.228393143
0.294867629,0.259524095,0.078161389,0.2284065
0.294902042,0.259554144,0.078169105,0.228419932
0.294936584,0.259584307,0.078176892,0.228433439
0.294971253,0.259614584,0.078184751,0.228447022
0.295006049,0.259644975,0.078192682,0.228460682
0.295040972,0.25967548,0.078200684,0.228474419
0.29507602,0.259706101,0.078208758,0.228488233
0.295111192,0.259736835,0.078216902,0.228502125
0.295146485,0.259767682,0.078225116,0.228516094
0.295181898,0.259798643,0.0782334,0.228530141
0.29521743,0.259829715,0.078241754,0.228544264
0.295253081,0.259860898,0.078250176,0.228558466
0.295288849,0.259892192,0.078258668,0.228572745
0.295324736,0.259923597,0.078267229,0.228587103
0.295360741,0.259955112,0.078275858,0.22860154
0.295396863,0.259986738,0.078284556,0.228616056
0.295433104,0.260018474,0.078293322,0.228630652
0.295469463,0.260050319,0.078302156,0.228645328
0.29550594,0.260082274,0.078311057,0.228660086
0.295542536,0.260114339,0.078320027,0.228674924
0.29557925,0.260146512,0.078329063,0.228689845
0.295616081,0.260178794,0.078338167,0.228704848
0.29565303,0.260211185,0.078347337,0.228719934
0.295690094,0.260243684,0.078356574,0.228735104
0.295727273,0.260276291,0.078365878,0.228750356
0.295764565,0.260309003,0.078375247,0.228765691
0.295801969,0.26034182,0.078384681,0.228781109
0.295839485,0.260374741,0.078394181,0.22879661
0.295877111,0.260407765,0.078403746,0.228812193
0.295914849,0.260440892,0.078413377,0.228827858
0.295952699,0.260474121,0.078423073,0.228843607
0.29599066,0.260507452,0.078432834,0.22885944
0.296028733,0.260540885,0.078442661,0.228875356
0.296066918,0.260574419,0.078452554,0.228891356
0.296105215,0.260608055,0.078462511,0.228907439
0.296143625,0.260641792,0.078472535,0.228923608
0.296182146,0.260675629,0.078482623,0.228939861
0.296220778,0.260709567,0.078492777,0.228956199
0.296259521,0.260743604,0.078502996,0.228972623
0.296298373,0.260777742,0.078513279,0.228989132
0.296337331,0.260811979,0.078523627,0.229005728
0.296376395,0.260846314,0.078534039,0.229022409
0.296415561,0.260880746,0.078544515,0.229039175
0.296454828,0.260915275,0.078555055,0.229056026
0.296494194,0.260949899,0.078565659,0.229072962
0.296533658,0.260984619,0.078576325,0.229089982
0.29657322,0.261019432,0.078587056,0.229107086
0.296612877,0.261054341,0.078597849,0.229124276
0.29665263,0.261089343,0.078608705,0.229141551
0.296692478,0.261124439,0.078619625,0.229158911
0.296732419,0.261159627,0.078630607,0.229176356
0.296772453,0.261194909,0.07864165,0.229193886
0.29681258,0.261230282,0.078652756,0.229211502
0.296852797,0.261265748,0.078663923,0.229229204
0.296893104,0.261301306,0.078675151,0.229246992
0.296933499,0.261336956,0.07868644,0.229264867
0.29697398,0.261372696,0.078697789,0.229282828
0.297014543,0.261408526,0.078709197,0.229300876
0.297055187,0.261444444,0.078720664,0.22931901
0.297095908,0.261480449,0.078732189,0.229337229
0.297136704,0.261516539,0.078743772,0.229355534
0.297177573,0.261552714,0.078755412,0.229373925
0.297218515,0.261588971,0.078767108,0.229392401
0.297259527,0.26162531,0.078778861,0.229410962
0.297300609,0.26166173,0.078790671,0.229429611
0.297341759,0.261698231,0.078802536,0.229448345
0.297382978,0.261734811,0.078814456,0.229467166
0.297424264,0.26177147,0.078826432,0.229486075
0.297465617,0.261808207,0.078838462,0.22950507
0.297507035,0.261845022,0.078850546,0.229524153
0.297548518,0.261881914,0.078862683,0.229543324
0.297590063,0.261918882,0.078874873,0.229562583
0.297631668,0.261955926,0.078887116,0.22958193
0.297673333,0.261993046,0.07889941,0.229601366
0.297715053,0.262030239,0.078911755,0.22962089
0.297756828,0.262067504,0.078924151,0.229640502
0.297798653,0.26210484,0.078936597,0.2296602
0.297840528,0.262142246,0.078949092,0.229679985
0.297882452,0.262179719,0.078961635,0.229699857
0.297924424,0.26221726,0.078974227,0.229719815
0.297966443,0.262254868,0.078986868,0.229739859
0.298008507,0.262292541,0.078999556,0.22975999
0.298050617,0.26233028,0.079012292,0.229780207
0.29809277,0.262368083,0.079025076,0.22980051
0.298134967,0.262405949,0.079037906,0.229820899
0.298177205,0.262443877,0.079050783,0.229841374
0.298219485,0.262481866,0.079063706,0.229861935
0.298261803,0.262519915,0.079076674,0.229882583
0.298304159,0.262558022,0.079089687,0.229903317
0.298346551,0.262596188,0.079102745,0.229924138
0.298388974,0.262634409,0.079115846,0.229945046
0.298431428,0.262672685,0.079128991,0.229966039
0.298473907,0.262711013,0.079142177,0.229987118
0.298516409,0.262749391,0.079155405,0.230008282
0.298558931,0.262787818,0.079168674,0.23002953
0.298601472,0.262826291,0.079181983,0.230050862
0.29864403,0.262864809,0.079195332,0.230072278
0.298686601,0.262903372,0.07920872,0.230093779
0.298729184,0.262941978,0.079222147,0.230115363
0.298771778,0.262980626,0.079235611,0.230137032
0.29881438,0.263019314,0.079249114,0.230158784
0.298856989,0.263058041,0.079262653,0.23018062
0.298899602,0.263096806,0.079276229,0.23020254
0.298942219,0.263135608,0.07928984,0.230224543
0.298984835,0.263174446,0.079303486,0.230246631
0.299027449,0.263213319,0.079317166,0.230268802
0.299070057,0.263252225,0.079330879,0.230291056
0.299112657,0.263291164,0.079344625,0.230313393
0.299155244,0.263330132,0.079358403,0.230335813
0.299197815,0.263369129,0.079372211,0.230358314
0.299240367,0.263408151,0.079386048,0.230380895
0.299282898,0.263447198,0.079399915,0.230403557
0.299325405,0.263486268,0.079413811,0.230426298
0.299367888,0.263525359,0.079427735,0.230449119
0.299410344,0.26356447,0.079441686,0.23047202
0.299452773,0.263603601,0.079455665,0.230495
0.299495174,0.26364275,0.079469671,0.23051806
0.299537545,0.263681917,0.079483703,0.230541198
0.299579886,0.263721099,0.079497761,0.230564415
0.299622195,0.263760297,0.079511844,0.230587711
0.299664471,0.263799508,0.079525951,0.230611085
0.299706712,0.263838733,0.079540083,0.230634538
0.299748917,0.26387797,0.079554239,0.23065807
0.299791083,0.263917218,0.079568417,0.23068168
0.299833207,0.263956475,0.079582618,0.230705367
0.299875288,0.263995739,0.07959684,0.230729131
0.299917323,0.264035008,0.079611083,0.230752971
0.29995931,0.264074281,0.079625346,0.230776886
0.300001247,0.264113557,0.079639629,0.230800876
0.300043134,0.264152833,0.079653931,0.23082494
0.30008497,0.26419211,0.079668252,0.230849078
0.300126754,0.264231387,0.079682591,0.230873291
0.300168485,0.264270662,0.079696949,0.230897576
0.300210163,0.264309936,0.079711323,0.230921935
0.300251787,0.264349207,0.079725714,0.230946366
0.300293358,0.264388475,0.079740122,0.23097087
0.300334873,0.264427739,0.079754545,0.230995446
0.300376332,0.264466998,0.079768983,0.231020094
0.300417734,0.264506251,0.079783435,0.231044814
0.300459076,0.264545498,0.079797901,0.231069605
0.300500355,0.264584738,0.07981238,0.231094467
0.30054157,0.264623969,0.079826871,0.2311194
0.300582716,0.26466319,0.079841373,0.231144401
0.300623792,0.264702399,0.079855887,0.231169471
0.300664794,0.264741594,0.07987041,0.231194608
0.300705721,0.264780776,0.079884943,0.231219812
0.300746571,0.264819942,0.079899484,0.231245083
0.300787342,0.264859094,0.079914035,0.231270419
0.300828031,0.264898229,0.079928593,0.231295822
0.300868638,0.264937348,0.079943158,0.23132129
0.30090916,0.264976449,0.07995773,0.231346823
0.300949596,0.265015532,0.079972307,0.231372421
0.300989943,0.265054597,0.07998689,0.231398083
0.301030199,0.265093643,0.080001476,0.231423809
0.301070361,0.26513267,0.080016067,0.231449598
0.301110428,0.265171677,0.08003066,0.231475452
0.301150394,0.265210663,0.080045256,0.231501368
0.301190258,0.265249628,0.080059854,0.231527347
0.301230016,0.26528857,0.080074452,0.231553388
0.301269664,0.265327487,0.080089051,0.231579489
0.3013092,0.265366379,0.080103649,0.231605651
0.301348622,0.265405244,0.080118246,0.231631872
0.301387929,0.265444081,0.080132841,0.231658153
0.301427119,0.265482889,0.080147435,0.231684494
0.301466191,0.265521668,0.080162026,0.231710893
0.301505145,0.265560417,0.080176614,0.231737352
0.30154398,0.265599136,0.080191199,0.23176387
0.301582694,0.265637822,0.080205781,0.231790446
0.301621288,0.265676476,0.080220358,0.231817081
0.30165976,0.265715098,0.08023493,0.231843774
0.301698111,0.265753686,0.080249496,0.231870525
0.301736338,0.265792241,0.080264057,0.231897334
0.301774441,0.265830762,0.080278611,0.231924202
0.301812417,0.265869248,0.080293158,0.231951126
0.301850265,0.265907699,0.080307697,0.231978107
0.301887983,0.265946113,0.080322227,0.232005144
0.301925568,0.265984489,0.080336747,0.232032235
0.30196302,0.266022826,0.080351256,0.232059381
0.302000337,0.266061124,0.080365754,0.232086579
0.302037518,0.266099382,0.080380241,0.232113831
0.302074564,0.266137601,0.080394716,0.232141135
0.302111474,0.266175779,0.080409178,0.232168491
0.302148246,0.266213917,0.080423627,0.232195899
0.302184881,0.266252014,0.080438062,0.232223359
0.302221379,0.266290071,0.080452483,0.232250869
0.302257739,0.266328087,0.080466889,0.232278429
0.302293959,0.266366061,0.08048128,0.23230604
0.302330041,0.266403994,0.080495654,0.232333701
0.302365981,0.266441885,0.080510012,0.232361412
0.30240178,0.266479733,0.080524353,0.232389173
0.302437434,0.266517539,0.080538676,0.232416982
0.302472942,0.266555302,0.08055298,0.232444839
0.302508302,0.26659302,0.080567265,0.232472743
0.302543512,0.266630692,0.080581529,0.232500692
0.302578571,0.266668317,0.080595773,0.232528686
0.302613478,0.266705895,0.080609994,0.232556725
0.302648232,0.266743426,0.080624194,0.232584807
0.302682833,0.266780908,0.080638371,0.232612934
0.302717279,0.266818343,0.080652524,0.232641103
0.302751569,0.266855729,0.080666654,0.232669315
0.302785704,0.266893067,0.080680759,0.232697568
0.302819684,0.266930355,0.080694838,0.232725864
0.302853507,0.266967595,0.080708893,0.232754201
0.302887174,0.267004785,0.080722921,0.232782579
0.302920684,0.267041926,0.080736922,0.232810997
0.302954035,0.267079017,0.080750896,0.232839457
0.302987227,0.267116058,0.080764843,0.232867956
0.303020258,0.267153049,0.080778761,0.232896496
0.303053126,0.267189987,0.080792651,0.232925074
0.303085831,0.267226872,0.080806511,0.232953691
0.303118369,0.267263704,0.080820342,0.232982345
0.303150742,0.26730048,0.080834142,0.233011037
0.303182948,0.267337202,0.080847912,0.233039765
0.303214989,0.267373868,0.080861651,0.233068531
0.303246863,0.267410478,0.080875358,0.233097334
0.30327857,0.267447034,0.080889034,0.233126173
0.303310111,0.267483534,0.080902679,0.233155048
0.303341485,0.267519978,0.080916291,0.23318396
0.303372692,0.267556367,0.08092987,0.233212908
0.303403733,0.2675927,0.080943416,0.233241891
0.303434607,0.267628978,0.080956929,0.233270911
0.303465313,0.267665199,0.080970407,0.233299966
0.30349585,0.267701365,0.080983851,0.233329056
0.303526218,0.267737474,0.08099726,0.233358182
0.303556414,0.267773526,0.081010633,0.233387341
0.303586438,0.267809519,0.081023969,0.233416535
0.303616286,0.267845453,0.081037269,0.23344576
0.303645958,0.267881327,0.081050531,0.233475018
0.303675453,0.26791714,0.081063755,0.233504306
0.303704772,0.267952892,0.08107694,0.233533626
0.303733913,0.267988582,0.081090087,0.233562976
0.303762876,0.268024212,0.081103196,0.233592357
0.303791661,0.268059781,0.081116265,0.233621768
0.303820268,0.268095287,0.081129294,0.233651208
0.303848696,0.268130733,0.081142283,0.233680677
0.303876945,0.268166116,0.081155232,0.233710175
0.303905015,0.268201437,0.08116814,0.233739702
0.303932905,0.268236697,0.081181007,0.233769258
0.303960614,0.268271894,0.081193832,0.233798842
0.303988142,0.268307028,0.081206616,0.233828454
0.304015485,0.268342099,0.081219357,0.233858093
0.304042643,0.268377107,0.081232056,0.233887759
0.304069614,0.268412049,0.081244711,0.23391745
0.304096396,0.268446925,0.081257323,0.233947165
0.304122987,0.268481734,0.08126989,0.233976904
0.304149387,0.268516476,0.081282413,0.234006666
0.304175596,0.268551149,0.081294892,0.234036451
0.304201613,0.268585754,0.081307325,0.234066259
0.304227436,0.26862029,0.081319713,0.234096088
0.304253066,0.268654757,0.081332055,0.234125939
0.304278501,0.268689154,0.08134435,0.234155812
0.304303741,0.268723482,0.081356599,0.234185705
0.304328786,0.268757739,0.0813688,0.234215618
0.304353635,0.268791925,0.081380952,0.234245552
0.304378287,0.268826041,0.081393057,0.234275506
0.30440274,0.268860085,0.081405112,0.23430548
0.304426995,0.268894058,0.081417118,0.234335473
0.304451049,0.268927959,0.081429074,0.234365486
0.3044749,0.268961787,0.08144098,0.234395517
0.304498547,0.26899554,0.081452833,0.234425565
0.304521988,0.269029219,0.081464635,0.234455631
0.304545224,0.269062822,0.081476385,0.234485713
0.304568254,0.26909635,0.081488081,0.234515811
0.30459108,0.269129801,0.081499725,0.234545926
0.3046137,0.269163177,0.081511315,0.234576057
0.304636117,0.269196477,0.081522851,0.234606204
0.304658331,0.269229701,0.081534333,0.234636366
0.304680342,0.26926285,0.08154576,0.234666544
0.304702152,0.269295922,0.081557131,0.234696738
0.304723761,0.269328918,0.081568446,0.234726946
0.304745171,0.269361838,0.081579706,0.23475717
0.30476638,0.269394683,0.081590908,0.234787408
0.30478739,0.269427451,0.081602053,0.234817661
0.304808199,0.269460142,0.081613139,0.234847929
0.304828808,0.269492755,0.081624168,0.23487821
0.304849216,0.26952529,0.081635137,0.234908503
0.304869422,0.269557745,0.081646046,0.234938808
0.304889428,0.26959012,0.081656895,0.234969125
0.304909235,0.269622413,0.081667684,0.234999452
0.304928844,0.269654624,0.081678412,0.235029789
0.304948256,0.269686753,0.081689078,0.235060135
0.304967473,0.269718801,0.081699684,0.235090492
0.304986497,0.269750767,0.081710227,0.235120857
0.305005328,0.269782651,0.081720709,0.235151232
0.305023968,0.269814453,0.081731128,0.235181614
0.305042419,0.269846173,0.081741484,0.235212005
0.305060683,0.269877811,0.081751778,0.235242404
0.305078759,0.269909368,0.081762007,0.235272811
0.305096649,0.269940843,0.081772173,0.235303225
0.305114354,0.269972236,0.081782275,0.235333646
0.305131874,0.270003547,0.081792312,0.235364073
0.305149209,0.270034775,0.081802283,0.235394507
0.305166359,0.27006592,0.081812188,0.235424944
0.305183325,0.27009698,0.081822027,0.235455385
0.305200106,0.270127954,0.0818318,0.23548583
0.305216704,0.270158843,0.081841504,0.235516276
0.305233122,0.270189645,0.081851142,0.235546725
0.305249359,0.270220361,0.081860712,0.235577175
0.305265419,0.270250991,0.081870213,0.235607628
0.305281303,0.270281533,0.081879646,0.235638081
0.305297013,0.270311989,0.08188901,0.235668535
0.305312551,0.270342358,0.081898305,0.235698989
0.30532792,0.270372639,0.08190753,0.235729443
0.305343122,0.270402834,0.081916685,0.235759898
0.305358157,0.270432941,0.081925769,0.235790352
0.305373027,0.270462962,0.081934783,0.235820805
0.305387733,0.270492895,0.081943726,0.235851257
0.305402275,0.27052274,0.081952598,0.235881709
0.305416654,0.270552497,0.081961398,0.235912157
0.305430871,0.270582165,0.081970124,0.235942603
0.305444926,0.270611742,0.081978778,0.235973046
0.305458821,0.270641228,0.081987359,0.236003484
0.305472559,0.270670623,0.081995866,0.236033918
0.305486142,0.270699927,0.082004299,0.236064348
0.305499574,0.27072914,0.082012659,0.236094774
0.305512856,0.270758263,0.082020945,0.236125195
0.305525993,0.270787295,0.082029157,0.236155611
0.305538987,0.270816235,0.082037294,0.236186023
0.305551841,0.270845085,0.082045357,0.23621643
0.305564557,0.270873844,0.082053346,0.236246831
0.305577139,0.270902512,0.08206126,0.236277227
0.305589589,0.270931089,0.0820691,0.236307619
0.305601907,0.270959575,0.082076864,0.236338005
0.305614095,0.27098797,0.082084555,0.236368385
0.305626155,0.271016272,0.08209217,0.236398759
0.305638085,0.271044482,0.082099712,0.236429126
0.305649889,0.271072598,0.08210718,0.236459485
0.305661566,0.271100619,0.082114575,0.236489835
0.30567312,0.271128545,0.082121896,0.236520177
0.305684551,0.271156377,0.082129146,0.236550509
0.305695863,0.271184113,0.082136323,0.236580831
0.305707057,0.271211755,0.08214343,0.236611144
0.305718136,0.271239303,0.082150467,0.236641447
0.305729102,0.271266756,0.082157433,0.236671739
0.305739957,0.271294114,0.082164329,0.23670202
0.305750703,0.271321377,0.082171157,0.23673229
0.305761343,0.271348546,0.082177915,0.236762549
0.305771878,0.27137562,0.082184604,0.236792796
0.305782309,0.2714026,0.082191225,0.236823032
0.305792638,0.271429486,0.082197778,0.236853255
0.305802866,0.271456277,0.082204262,0.236883465
0.305812995,0.271482972,0.082210678,0.236913662
0.305823026,0.271509571,0.082217026,0.236943843
0.305832961,0.271536074,0.082223305,0.236974009
0.305842802,0.271562479,0.082229515,0.237004159
0.305852553,0.271588786,0.082235658,0.237034291
0.305862215,0.271614996,0.082241732,0.237064406
0.305871792,0.271641109,0.082247738,0.237094504
0.305881288,0.271667124,0.082253676,0.237124583
0.305890704,0.271693043,0.082259546,0.237154643
0.305900045,0.271718864,0.082265348,0.237184685
0.305909313,0.27174459,0.082271083,0.237214707
0.305918513,0.271770219,0.08227675,0.237244708
0.305927646,0.271795753,0.082282349,0.23727469
0.305936715,0.271821191,0.08228788,0.23730465
0.305945723,0.271846535,0.082293344,0.23733459
0.305954671,0.271871785,0.082298741,0.237364508
0.30596356,0.27189694,0.08230407,0.237394404
0.305972392,0.271922001,0.082309332,0.237424277
0.305981168,0.271946966,0.082314527,0.237454126
0.305989888,0.271971836,0.082319654,0.23748395
0.305998555,0.271996609,0.082324715,0.237513749
0.306007172,0.272021286,0.082329709,0.237543522
0.30601574,0.272045867,0.082334637,0.237573269
0.306024262,0.272070353,0.082339499,0.237602989
0.30603274,0.272094744,0.082344296,0.237632683
0.306041176,0.27211904,0.082349028,0.23766235
0.306049574,0.272143242,0.082353695,0.23769199
0.306057933,0.272167348,0.082358297,0.237721602
0.306066257,0.272191361,0.082362834,0.237751186
0.306074547,0.272215279,0.082367307,0.237780742
0.306082803,0.272239103,0.082371716,0.23781027
0.306091028,0.272262833,0.082376061,0.237839769
0.30609922,0.27228647,0.082380343,0.23786924
0.30610738,0.272310012,0.08238456,0.237898681
0.306115508,0.272333458,0.082388713,0.237928091
0.306123605,0.272356809,0.082392802,0.23795747
0.306131672,0.272380063,0.082396827,0.237986818
0.306139709,0.272403219,0.082400788,0.238016133
0.306147719,0.272426279,0.082404685,0.238045415
0.306155703,0.272449242,0.082408519,0.238074664
0.306163662,0.272472108,0.08241229,0.23810388
0.306171598,0.272494878,0.082415996,0.238133062
0.306179512,0.272517551,0.08241964,0.238162211
0.306187406,0.272540127,0.082423221,0.238191325
0.30619528,0.272562607,0.082426739,0.238220405
0.306203137,0.27258499,0.082430194,0.23824945
0.306210976,0.272607276,0.082433587,0.238278461
0.306218798,0.272629466,0.082436918,0.238307436
0.306226604,0.272651559,0.082440187,0.238336375
0.306234394,0.272673555,0.082443394,0.238365279
0.306242166,0.272695452,0.08244654,0.238394145
0.306249922,0.27271725,0.082449625,0.238422974
0.306257659,0.272738947,0.082452648,0.238451763
0.306265379,0.272760544,0.08245561,0.238480513
0.306273082,0.272782038,0.082458512,0.238509223
0.306280768,0.27280343,0.082461354,0.238537893
0.30628844,0.27282472,0.082464136,0.238566522
0.306296096,0.272845906,0.082466859,0.23859511
0.30630374,0.27286699,0.082469522,0.238623657
0.306311371,0.272887969,0.082472127,0.238652162
0.306318991,0.272908845,0.082474674,0.238680625
0.3063266,0.272929617,0.082477162,0.238709045
0.306334198,0.272950284,0.082479592,0.238737423
0.306341787,0.272970847,0.082481964,0.238765758
0.306349365,0.272991305,0.082484279,0.23879405
0.306356933,0.273011658,0.082486537,0.238822299
0.306364488,0.273031906,0.082488738,0.238850503
0.306372031,0.273052047,0.082490883,0.238878662
0.30637956,0.27307208,0.082492971,0.238906776
0.306387074,0.273092006,0.082495003,0.238934843
0.306394574,0.273111822,0.082496979,0.238962862
0.306402061,0.273131528,0.0824989,0.238990835
0.306409535,0.273151125,0.082500767,0.239018761
0.306416998,0.273170612,0.082502581,0.239046638
0.30642445,0.273189989,0.082504341,0.239074468
0.306431894,0.273209255,0.082506049,0.23910225
0.30643933,0.273228411,0.082507705,0.239129983
0.30644676,0.273247456,0.082509309,0.239157668
0.306454184,0.273266389,0.082510862,0.239185304
0.306461605,0.27328521,0.082512363,0.239212891
0.306469021,0.273303918,0.082513814,0.239240429
0.306476434,0.273322513,0.082515215,0.239267918
0.306483844,0.273340994,0.082516566,0.239295357
0.306491248,0.273359361,0.082517866,0.239322747
0.306498648,0.273377611,0.082519117,0.239350086
0.306506042,0.273395744,0.082520317,0.239377373
0.306513431,0.273413758,0.082521468,0.239404608
0.306520815,0.273431654,0.08252257,0.239431791
0.306528194,0.27344943,0.082523622,0.239458922
0.30653557,0.273467086,0.082524625,0.239486
0.306542943,0.273484622,0.082525579,0.239513026
0.306550313,0.273502038,0.082526484,0.239539998
0.306557681,0.273519334,0.082527341,0.239566917
0.306565048,0.273536508,0.082528148,0.239593783
0.306572413,0.273553561,0.082528908,0.239620596
0.306579777,0.273570493,0.082529618,0.239647355
0.306587139,0.273587304,0.082530281,0.23967406
0.306594498,0.273603992,0.082530896,0.239700711
0.306601854,0.273620559,0.082531462,0.239727308
0.306609205,0.273637005,0.082531981,0.239753851
0.30661655,0.273653328,0.082532452,0.239780337
0.306623888,0.273669529,0.082532874,0.239806768
0.306631218,0.273685607,0.082533249,0.23983314
0.30663854,0.273701562,0.082533577,0.239859455
0.306645855,0.273717395,0.082533857,0.23988571
0.306653162,0.273733106,0.082534091,0.239911907
0.306660463,0.273748694,0.082534278,0.239938044
0.306667758,0.273764162,0.082534419,0.239964122
0.306675049,0.273779509,0.082534514,0.239990139
0.306682336,0.273794735,0.082534564,0.240016096
0.30668962,0.273809842,0.082534568,0.240041991
0.306696903,0.27382483,0.082534527,0.240067825
0.306704184,0.2738397,0.082534442,0.240093597
0.306711464,0.273854452,0.082534312,0.240119307
0.306718742,0.273869088,0.08253414,0.240144955
0.306726018,0.273883607,0.082533923,0.24017054
0.30673329,0.273898009,0.082533665,0.240196062
0.306740558,0.273912295,0.082533363,0.240221519
0.306747821,0.273926462,0.082533019,0.240246911
0.306755078,0.273940512,0.082532633,0.240272237
0.306762332,0.273954444,0.082532206,0.240297497
0.306769582,0.273968259,0.082531737,0.240322689
0.306776831,0.273981958,0.082531228,0.240347815
0.306784081,0.273995541,0.082530679,0.240372873
0.306791333,0.274009009,0.082530091,0.240397864
0.306798591,0.274022362,0.082529465,0.240422786
0.306805855,0.274035602,0.082528801,0.24044764
0.30681313,0.27404873,0.0825281,0.240472425
0.306820417,0.274061745,0.082527363,0.240497141
0.306827719,0.274074649,0.08252659,0.240521788
0.306835037,0.274087444,0.082525781,0.240546366
0.306842372,0.274100128,0.082524938,0.240570873
0.306849727,0.274112704,0.08252406,0.240595311
0.306857103,0.274125171,0.082523148,0.240619678
0.3068645,0.274137529,0.082522203,0.240643974
0.306871921,0.274149779,0.082521224,0.240668196
0.306879365,0.274161921,0.082520213,0.240692345
0.306886836,0.274173954,0.082519169,0.240716421
0.306894335,0.274185881,0.082518094,0.240740423
0.306901863,0.2741977,0.082516988,0.24076435
0.306909423,0.274209415,0.082515852,0.240788203
0.306917015,0.274221025,0.082514685,0.240811981
0.306924642,0.274232532,0.08251349,0.240835684
0.306932305,0.274243936,0.082512266,0.240859312
0.306940005,0.274255239,0.082511014,0.240882864
0.306947743,0.274266442,0.082509734,0.24090634
0.30695552,0.274277546,0.082508428,0.24092974
0.306963336,0.274288552,0.082507095,0.240953064
0.30697119,0.274299461,0.082505737,0.240976311
0.306979081,0.274310272,0.082504352,0.240999481
0.306987009,0.274320985,0.082502942,0.241022571
0.306994972,0.2743316,0.082501507,0.24104558
0.307002971,0.274342116,0.082500046,0.241068508
0.307011004,0.274352533,0.08249856,0.241091354
0.307019073,0.27436285,0.08249705,0.241114116
0.307027178,0.274373067,0.082495517,0.241136795
0.30703532,0.274383184,0.08249396,0.241159389
0.307043499,0.2743932,0.08249238,0.241181898
0.307051717,0.274403116,0.082490778,0.241204322
0.307059974,0.27441293,0.082489155,0.24122666
0.30706827,0.274422643,0.082487511,0.241248911
0.307076605,0.274432255,0.082485846,0.241271075
0.307084981,0.274441767,0.082484162,0.241293151
0.307093395,0.27445118,0.082482458,0.24131514
0.307101848,0.274460494,0.082480736,0.24133704
0.307110339,0.27446971,0.082478996,0.241358852
0.307118865,0.274478828,0.082477239,0.241380574
0.307127426,0.274487849,0.082475465,0.241402206
0.307136019,0.274496773,0.082473673,0.241423745
0.307144644,0.2745056,0.082471866,0.241445193
0.307153298,0.27451433,0.082470042,0.241466547
0.307161983,0.274522963,0.082468204,0.241487807
0.307170697,0.274531501,0.082466351,0.241508974
0.307179441,0.274539946,0.082464485,0.241530047
0.307188214,0.274548299,0.082462607,0.241551024
0.307197016,0.27455656,0.082460716,0.241571906
0.307205848,0.274564731,0.082458815,0.241592692
0.30721471,0.274572813,0.082456904,0.241613381
0.307223601,0.274580808,0.082454984,0.241633974
0.307232521,0.274588717,0.082453054,0.24165447
0.30724147,0.274596541,0.082451117,0.241674869
0.307250446,0.274604282,0.082449172,0.24169517
0.307259448,0.274611939,0.08244722,0.241715372
0.307268476,0.274619515,0.082445261,0.241735476
0.307277526,0.274627009,0.082443296,0.24175548
0.307286598,0.274634422,0.082441324,0.241775382
0.307295692,0.274641754,0.082439346,0.241795182
0.307304806,0.274649007,0.082437363,0.24181488
0.307313941,0.27465618,0.082435374,0.241834474
0.307323096,0.274663277,0.082433381,0.241853966
0.307332272,0.274670297,0.082431383,0.241873353
0.307341468,0.274677243,0.082429381,0.241892637
0.307350685,0.274684116,0.082427376,0.241911815
0.307359922,0.274690917,0.082425366,0.241930888
0.30736918,0.274697647,0.082423354,0.241949856
0.30737846,0.274704309,0.082421339,0.241968718
0.307387759,0.274710902,0.082419321,0.241987475
0.307397078,0.274717429,0.082417301,0.242006125
0.307406416,0.27472389,0.082415278,0.242024668
0.307415771,0.274730286,0.082413254,0.242043105
0.307425142,0.274736619,0.082411228,0.242061433
0.307434529,0.274742887,0.082409199,0.242079652
0.307443929,0.274749091,0.082407167,0.242097762
0.307453343,0.274755232,0.082405134,0.242115761
0.307462772,0.274761311,0.082403098,0.24213365
0.307472215,0.274767328,0.082401061,0.242151427
0.307481672,0.274773285,0.082399022,0.242169094
0.307491145,0.274779183,0.082396982,0.242186649
0.307500633,0.274785023,0.08239494,0.242204093
0.307510137,0.274790805,0.082392897,0.242221424
0.307519658,0.274796531,0.082390854,0.242238644
0.307529196,0.274802202,0.08238881,0.242255751
0.307538751,0.274807819,0.082386766,0.242272746
0.307548324,0.274813382,0.082384722,0.242289628
0.307557913,0.274818893,0.08238268,0.242306398
0.307567519,0.274824353,0.082380639,0.242323055
0.307577141,0.274829762,0.0823786,0.242339598
0.307586777,0.274835121,0.082376563,0.242356026
0.307596427,0.274840429,0.082374528,0.242372339
0.307606091,0.274845686,0.082372495,0.242388536
0.307615769,0.274850894,0.082370466,0.242404615
0.307625462,0.274856053,0.08236844,0.242420578
0.307635171,0.274861165,0.082366418,0.242436423
0.307644898,0.27486623,0.082364401,0.24245215
0.307654642,0.27487125,0.082362389,0.242467759
0.307664407,0.274876227,0.082360383,0.242483249
0.307674192,0.27488116,0.082358383,0.242498619
0.307683999,0.274886051,0.082356389,0.242513871
0.30769383,0.274890902,0.082354403,0.242529002
0.307703685,0.274895714,0.082352425,0.242544014
0.307713563,0.274900488,0.082350455,0.242558906
0.307723465,0.274905224,0.082348493,0.242573677
0.307733391,0.274909924,0.08234654,0.242588327
0.307743339,0.274914587,0.082344595,0.242602856
0.307753309,0.274919213,0.08234266,0.242617263
0.307763299,0.274923803,0.082340735,0.242631546
0.307773311,0.274928356,0.082338819,0.242645705
0.307783343,0.274932873,0.082336913,0.242659739
0.307793398,0.274937353,0.082335019,0.242673649
0.307803475,0.274941798,0.082333135,0.242687434
0.307813575,0.274946207,0.082331263,0.242701094
0.307823701,0.274950582,0.082329402,0.242714629
0.307833852,0.274954923,0.082327553,0.242728038
0.307844031,0.27495923,0.082325717,0.242741322
0.307854238,0.274963504,0.082323893,0.242754481
0.307864473,0.274967746,0.082322081,0.242767514
0.307874737,0.274971958,0.082320282,0.242780422
0.307885029,0.274976139,0.082318496,0.242793204
0.307895349,0.27498029,0.082316724,0.242805862
0.307905696,0.274984412,0.082314964,0.242818394
0.307916069,0.274988505,0.082313217,0.242830799
0.307926466,0.274992569,0.082311482,0.242843077
0.307936887,0.274996604,0.082309761,0.242855228
0.307947333,0.27500061,0.082308052,0.24286725
0.307957803,0.275004587,0.082306357,0.242879144
0.307968299,0.275008537,0.082304675,0.24289091
0.307978821,0.27501246,0.082303007,0.242902548
0.307989371,0.275016357,0.082301353,0.242914058
0.307999951,0.275020228,0.082299713,0.242925439
0.308010561,0.275024076,0.082298087,0.242936691
0.308021202,0.275027899,0.082296475,0.242947815
0.308031876,0.2750317,0.082294878,0.24295881
0.308042584,0.275035479,0.082293296,0.242969677
0.308053326,0.275039237,0.082291729,0.242980415
0.308064101,0.275042975,0.082290178,0.242991025
0.308074912,0.275046694,0.082288643,0.243001506
0.308085756,0.275050394,0.082287124,0.243011857
0.308096635,0.275054074,0.082285621,0.243022078
0.308107549,0.275057736,0.082284135,0.243032168
0.308118499,0.275061379,0.082282667,0.243042127
0.308129488,0.275065003,0.082281215,0.243051953
0.308140517,0.27506861,0.082279782,0.243061646
0.308151591,0.275072199,0.082278367,0.243071208
0.308162712,0.275075773,0.082276971,0.243080636
0.308173883,0.275079331,0.082275594,0.243089931
0.308185107,0.275082875,0.082274238,0.243099093
0.308196387,0.275086406,0.082272902,0.243108121
0.308207727,0.275089924,0.082271586,0.243117015
0.30821913,0.27509343,0.082270292,0.243125776
0.308230597,0.275096925,0.082269019,0.243134402
0.308242132,0.275100411,0.082267768,0.243142895
0.308253737,0.275103887,0.082266538,0.243151254
0.308265412,0.275107354,0.082265329,0.243159478
0.308277159,0.275110813,0.082264143,0.243167567
0.308288979,0.275114263,0.082262977,0.24317552
0.308300874,0.275117705,0.082261833,0.243183336
0.308312843,0.275121139,0.08226071,0.243191014
0.308324891,0.275124564,0.082259608,0.243198554
0.30833702,0.275127982,0.082258527,0.243205955
0.308349232,0.275131393,0.082257467,0.243213218
0.30836153,0.275134799,0.082256427,0.243220342
0.308373916,0.275138198,0.082255408,0.243227327
0.308386394,0.275141593,0.082254409,0.243234173
0.308398965,0.275144984,0.08225343,0.243240878
0.308411633,0.275148372,0.08225247,0.243247444
0.3084244,0.275151756,0.08225153,0.243253869
0.308437266,0.275155139,0.082250608,0.243260154
0.308450233,0.27515852,0.082249704,0.243266299
0.308463303,0.2751619,0.082248818,0.243272304
0.308476477,0.275165279,0.08224795,0.243278167
0.308489753,0.275168658,0.082247098,0.243283888
0.308503133,0.275172036,0.082246262,0.243289466
0.308516617,0.275175413,0.082245442,0.2432949
0.308530206,0.275178788,0.082244637,0.243300189
0.308543904,0.275182163,0.082243848,0.243305334
0.308557711,0.275185537,0.082243074,0.243310334
0.308571631,0.27518891,0.082242315,0.243315189
0.308585665,0.275192283,0.082241571,0.243319899
0.308599819,0.275195657,0.082240842,0.243324463
0.308614094,0.275199033,0.082240127,0.243328881
0.308628493,0.275202409,0.082239426,0.243333154
0.308643021,0.275205788,0.082238739,0.243337281
0.308657678,0.275209169,0.082238066,0.243341262
0.308672467,0.275212553,0.082237407,0.243345097
0.308687389,0.275215939,0.082236761,0.243348787
0.308702446,0.275219329,0.082236128,0.243352331
0.308717638,0.275222722,0.082235508,0.243355729
0.308732967,0.275226116,0.082234901,0.243358979
0.308748431,0.275229513,0.082234307,0.243362081
0.308764033,0.27523291,0.082233725,0.243365035
0.308779774,0.275236307,0.082233156,0.243367841
0.308795657,0.275239705,0.0822326,0.243370497
0.308811683,0.275243103,0.082232056,0.243373005
0.308827856,0.275246502,0.082231526,0.243375364
0.308844177,0.275249902,0.082231008,0.243377573
0.308860649,0.275253302,0.082230503,0.243379633
0.308877274,0.275256704,0.082230011,0.243381543
0.308894056,0.275260107,0.082229531,0.243383304
0.308910995,0.275263511,0.082229064,0.243384915
0.308928094,0.275266917,0.082228609,0.243386377
0.308945354,0.275270324,0.082228165,0.24338769
0.308962777,0.275273734,0.082227733,0.243388853
0.308980362,0.275277145,0.082227311,0.243389867
0.308998112,0.275280557,0.082226899,0.243390731
0.309016026,0.27528397,0.082226496,0.243391444
0.309034105,0.275287383,0.082226102,0.243392005
0.309052351,0.275290796,0.082225716,0.243392414
0.309070764,0.275294207,0.082225338,0.243392671
0.309089347,0.275297618,0.082224966,0.243392776
0.309108101,0.275301028,0.082224601,0.243392728
0.309127027,0.275304439,0.082224242,0.243392527
0.309146126,0.275307849,0.082223888,0.243392174
0.309165401,0.275311258,0.082223538,0.243391667
0.309184852,0.275314668,0.082223191,0.243391007
0.309204482,0.275318078,0.082222847,0.243390194
0.309224292,0.275321489,0.082222506,0.243389229
0.309244282,0.2753249,0.082222165,0.24338811
0.309264453,0.275328311,0.082221825,0.243386838
0.309284804,0.275331723,0.082221484,0.243385414
0.309305336,0.275335135,0.082221141,0.243383836
0.309326048,0.275338546,0.082220795,0.243382104
0.30934694,0.275341956,0.082220445,0.243380218
0.30936801,0.275345364,0.08222009,0.243378177
0.309389259,0.275348768,0.082219729,0.243375981
0.309410687,0.275352169,0.082219361,0.24337363
0.309432296,0.275355565,0.082218986,0.243371123
0.309454085,0.275358958,0.082218602,0.243368462
0.309476055,0.275362346,0.082218209,0.243365647
0.309498206,0.275365729,0.082217806,0.243362676
0.30952054,0.275369107,0.082217392,0.243359552
0.309543057,0.27537248,0.082216967,0.243356273
0.309565757,0.275375846,0.082216528,0.24335284
0.30958864,0.275379207,0.082216077,0.243349253
0.309611707,0.275382561,0.08221561,0.243345514
0.309634956,0.275385908,0.082215129,0.243341621
0.309658388,0.275389249,0.08221463,0.243337575
0.309682002,0.27539258,0.082214114,0.243333377
0.309705796,0.275395903,0.082213579,0.243329025
0.309729771,0.275399214,0.082213024,0.24332452
0.309753925,0.275402514,0.082212447,0.24331986
0.30977826,0.2754058,0.082211848,0.243315047
0.309802776,0.275409072,0.082211226,0.243310081
0.309827477,0.27541233,0.08221058,0.243304961
0.309852362,0.275415573,0.08220991,0.243299688
0.309877433,0.275418801,0.082209214,0.243294262
0.309902694,0.275422013,0.082208491,0.243288683
0.309928144,0.275425209,0.082207741,0.243282952
0.309953787,0.275428388,0.082206962,0.243277068
0.309979625,0.275431551,0.082206155,0.243271033
0.310005657,0.275434698,0.082205317,0.243264846
0.310031885,0.275437827,0.082204448,0.243258509
0.310058309,0.275440938,0.082203547,0.24325202
0.31008493,0.275444032,0.082202613,0.243245381
0.310111746,0.275447107,0.082201644,0.243238591
0.310138758,0.275450161,0.08220064,0.243231649
0.310165966,0.275453195,0.082199599,0.243224556
0.310193369,0.275456206,0.08219852,0.243217312
0.310220968,0.275459194,0.082197403,0.243209915
0.310248764,0.275462158,0.082196245,0.243202368
0.310276757,0.275465098,0.082195047,0.243194669
0.310304947,0.275468013,0.082193808,0.243186821
0.310333336,0.275470903,0.082192525,0.243178821
0.310361922,0.275473767,0.082191199,0.243170672
0.310390707,0.275476604,0.082189827,0.243162374
0.31041969,0.275479414,0.082188409,0.243153926
0.310448872,0.275482196,0.082186945,0.243145329
0.31047825,0.275484949,0.082185432,0.243136584
0.310507825,0.275487673,0.082183871,0.243127691
0.310537595,0.275490367,0.08218226,0.243118651
0.310567558,0.275493029,0.082180598,0.243109464
0.310597714,0.275495658,0.082178885,0.243100128
0.310628061,0.275498253,0.082177119,0.243090645
0.310658599,0.275500811,0.082175301,0.243081014
0.310689327,0.275503331,0.08217343,0.243071236
0.310720246,0.275505813,0.082171504,0.243061309
0.310751358,0.275508254,0.082169525,0.243051236
0.310782662,0.275510656,0.082167492,0.243041016
0.310814161,0.275513016,0.082165404,0.243030651
0.310845854,0.275515335,0.082163262,0.243020139
0.310877744,0.275517611,0.082161065,0.243009481
0.310909831,0.275519845,0.082158812,0.242998679
0.310942117,0.275522036,0.082156504,0.242987731
0.310974601,0.275524182,0.082154141,0.242976639
0.311007285,0.275526285,0.082151722,0.242965403
0.311040168,0.275528344,0.082149246,0.242954024
0.311073249,0.275530357,0.082146714,0.242942501
0.31110653,0.275532323,0.082144126,0.242930835
0.311140008,0.275534243,0.08214148,0.242919025
0.311173683,0.275536113,0.082138777,0.24290707
0.311207556,0.275537933,0.082136017,0.242894971
0.311241625,0.275539701,0.082133198,0.242882728
0.311275893,0.275541417,0.082130322,0.242870341
0.311310359,0.27554308,0.082127389,0.24285781
0.311345025,0.275544691,0.082124398,0.242845135
0.31137989,0.275546249,0.082121349,0.242832317
0.311414955,0.275547753,0.082118243,0.242819356
0.311450222,0.275549204,0.082115079,0.242806251
0.31148569,0.275550601,0.082111858,0.242793005
0.31152136,0.275551944,0.082108579,0.242779616
0.311557232,0.275553232,0.082105242,0.242766086
0.311593306,0.275554466,0.082101846,0.242752415
0.311629581,0.275555644,0.082098393,0.242738604
0.311666055,0.275556767,0.082094881,0.242724652
0.311702728,0.275557832,0.082091309,0.24271056
0.311739598,0.27555884,0.082087679,0.242696328
0.311776663,0.275559788,0.082083989,0.242681955
0.311813921,0.275560677,0.082080239,0.242667441
0.311851373,0.275561504,0.08207643,0.242652786
0.311889016,0.275562269,0.082072561,0.242637992
0.31192685,0.275562973,0.082068632,0.242623057
0.311964874,0.275563614,0.082064643,0.242607984
0.312003086,0.275564191,0.082060594,0.242592771
0.312041484,0.275564704,0.082056485,0.242577419
0.312080069,0.275565152,0.082052316,0.24256193
0.312118838,0.275565533,0.082048087,0.242546302
0.31215779,0.275565848,0.082043799,0.242530538
0.312196923,0.275566095,0.082039453,0.242514637
0.312236234,0.275566275,0.08203505,0.242498599
0.312275723,0.275566386,0.08203059,0.242482426
0.312315385,0.275566428,0.082026075,0.242466116
0.312355217,0.2755664,0.082021504,0.24244967
0.312395217,0.275566301,0.08201688,0.242433087
0.312435381,0.275566129,0.082012202,0.242416367
0.312475706,0.275565883,0.082007471,0.242399509
0.312516191,0.275565563,0.082002688,0.242382514
0.312556833,0.275565166,0.081997853,0.24236538
0.31259763,0.275564691,0.081992968,0.242348108
0.312638578,0.275564138,0.081988032,0.242330695
0.312679677,0.275563504,0.081983046,0.242313143
0.312720923,0.275562789,0.081978011,0.242295451
0.312762316,0.275561991,0.081972928,0.242277618
0.312803851,0.275561108,0.081967796,0.242259644
0.312845527,0.27556014,0.081962617,0.24224153
0.312887341,0.275559085,0.081957392,0.242223274
0.312929289,0.275557942,0.081952122,0.242204878
0.312971368,0.275556709,0.081946806,0.24218634
0.313013574,0.275555384,0.081941446,0.24216766
0.313055902,0.275553966,0.081936042,0.242148837
0.313098347,0.275552453,0.081930594,0.24212987
0.313140904,0.275550841,0.081925103,0.242110758
0.313183567,0.27554913,0.081919569,0.242091501
0.313226332,0.275547318,0.081913992,0.242072096
0.313269191,0.275545401,0.081908373,0.242052543
0.313312138,0.275543377,0.081902712,0.24203284
0.313355167,0.275541244,0.081897009,0.242012985
0.313398271,0.275538999,0.081891264,0.241992976
0.313441442,0.275536639,0.081885477,0.241972813
0.313484672,0.27553416,0.081879648,0.241952493
0.313527954,0.27553156,0.081873778,0.241932015
0.31357128,0.275528836,0.081867865,0.241911377
0.31361464,0.275525983,0.081861909,0.241890576
0.313658027,0.275522998,0.081855911,0.24186961
0.313701431,0.275519877,0.081849869,0.241848477
0.313744845,0.275516616,0.081843785,0.241827174
0.313788258,0.275513211,0.081837656,0.241805699
0.313831663,0.275509658,0.081831482,0.24178405
0.31387505,0.275505953,0.081825263,0.241762223
0.313918409,0.27550209,0.081818999,0.241740216
0.31396173,0.275498066,0.081812689,0.241718026
0.314005004,0.275493876,0.081806331,0.241695649
0.314048221,0.275489514,0.081799926,0.241673083
0.314091371,0.275484975,0.081793472,0.241650324
0.314134443,0.275480255,0.081786968,0.241627371
0.314177427,0.275475349,0.081780414,0.24160422
0.314220313,0.275470251,0.081773808,0.241580869
0.314263089,0.275464956,0.081767149,0.241557313
0.314305744,0.275459459,0.081760437,0.241533549
0.314348268,0.275453753,0.08175367,0.241509576
0.314390651,0.275447835,0.081746847,0.241485388
0.314432882,0.275441698,0.081739966,0.241460984
0.314474952,0.275435338,0.081733028,0.241436359
0.314516849,0.275428749,0.08172603,0.241411511
0.314558563,0.275421927,0.081718972,0.241386436
0.314600083,0.275414866,0.081711852,0.24136113
0.314641399,0.275407561,0.08170467,0.24133559
0.3146825,0.275400005,0.081697426,0.241309812
0.314723375,0.275392194,0.08169012,0.241283792
0.314764014,0.275384123,0.081682753,0.241257526
0.314804406,0.275375787,0.081675326,0.24123101
0.314844539,0.275367181,0.081667841,0.241204241
0.314884403,0.2753583,0.081660298,0.241177214
0.314923985,0.275349139,0.0816527,0.241149925
0.314963276,0.275339691,0.081645047,0.241122369
0.315002264,0.275329953,0.081637341,0.241094544
0.315040938,0.27531992,0.081629584,0.241066443
0.315079288,0.275309588,0.081621775,0.241038065
0.315117302,0.275298951,0.081613918,0.241009404
0.31515497,0.275288006,0.081606013,0.240980455
0.315192281,0.275276748,0.081598062,0.240951216
0.315229225,0.275265173,0.081590065,0.240921681
0.315265788,0.275253277,0.081582023,0.240891846
0.315301962,0.275241054,0.081573939,0.240861705
0.315337733,0.2752285,0.081565813,0.240831256
0.315373091,0.275215611,0.081557646,0.240800493
0.315408022,0.275202382,0.081549441,0.240769413
0.315442517,0.275188809,0.0815412,0.24073801
0.315476561,0.275174886,0.081532922,0.24070628
0.315510144,0.27516061,0.081524611,0.24067422
0.315543253,0.275145976,0.081516268,0.240641824
0.315575878,0.275130978,0.081507893,0.240609088
0.315608006,0.275115612,0.081499489,0.240576009
0.315639628,0.275099874,0.081491056,0.240542582
0.315670733,0.275083759,0.081482597,0.240508802
0.315701312,0.275067265,0.081474112,0.240474667
0.315731353,0.275050386,0.081465604,0.240440171
0.315760847,0.27503312,0.081457072,0.240405309
0.315789784,0.275015461,0.081448519,0.240370078
0.315818154,0.274997405,0.081439945,0.240334474
0.315845946,0.274978949,0.081431351,0.240298491
0.315873151,0.274960088,0.081422739,0.240262126
0.315899757,0.274940818,0.081414109,0.240225374
0.315925754,0.274921134,0.081405464,0.240188232
0.315951132,0.274901033,0.081396803,0.240150695
0.315975881,0.27488051,0.081388129,0.240112761
0.315999989,0.27485956,0.081379442,0.240074423
0.316023448,0.274838178,0.081370745,0.24003568
0.316046246,0.274816361,0.081362036,0.239996526
0.316068376,0.274794104,0.081353319,0.239956959
0.316089827,0.274771403,0.081344594,0.239916974
0.316110591,0.274748254,0.081335863,0.239876568
0.316130658,0.274724653,0.081327125,0.239835738
0.31615002,0.274700597,0.081318383,0.239794479
0.316168667,0.274676081,0.081309638,0.239752788
0.316186591,0.274651101,0.081300889,0.23971066
0.316203783,0.274625653,0.081292137,0.239668092
0.316220232,0.274599733,0.081283384,0.239625081
0.31623593,0.274573337,0.08127463,0.239581622
0.316250867,0.27454646,0.081265875,0.239537713
0.316265033,0.2745191,0.081257119,0.239493349
0.316278419,0.274491252,0.081248365,0.239448528
0.316291015,0.274462912,0.081239611,0.239403245
0.316302811,0.274434076,0.081230858,0.239357497
0.316313798,0.274404739,0.081222108,0.239311281
0.316323967,0.274374898,0.081213359,0.239264594
0.31633331,0.27434455,0.081204613,0.239217432
0.316341817,0.274313691,0.081195871,0.239169793
0.31634948,0.274282317,0.081187132,0.239121674
0.316356289,0.274250425,0.081178398,0.239073071
0.316362237,0.274218011,0.081169667,0.239023981
0.316367313,0.274185071,0.081160942,0.238974402
0.316371511,0.274151602,0.081152221,0.238924329
0.31637482,0.2741176,0.081143505,0.23887376
0.316377234,0.274083062,0.081134795,0.238822692
0.316378743,0.274047984,0.08112609,0.238771123
0.31637934,0.274012363,0.081117392,0.238719049
0.316379015,0.273976196,0.0811087,0.238666468
0.316377761,0.27393948,0.081100016,0.238613378
0.31637557,0.273902211,0.081091341,0.238559774
0.316372435,0.273864386,0.081082674,0.238505655
0.31636835,0.273826003,0.081074018,0.238451019
0.316363309,0.273787058,0.081065372,0.238395862
0.316357307,0.273747549,0.081056739,0.238340183
0.316350337,0.273707475,0.081048118,0.23828398
0.316342394,0.273666832,0.081039511,0.23822725
0.316333473,0.27362562,0.081030919,0.238169991
0.316323569,0.273583835,0.081022342,0.2381122
0.316312676,0.273541476,0.08101378,0.238053876
0.31630079,0.273498541,0.081005234,0.237995015
0.316287905,0.273455027,0.080996704,0.237935616
0.316274017,0.273410933,0.080988193,0.237875677
0.31625912,0.273366256,0.080979701,0.237815196
0.316243208,0.273320996,0.080971229,0.237754172
0.316226275,0.273275149,0.080962779,0.237692601
0.316208316,0.273228715,0.080954353,0.237630483
0.316189326,0.273181691,0.080945951,0.237567815
0.316169298,0.273134076,0.080937576,0.237504595
0.316148228,0.273085868,0.080929229,0.237440823
0.316126112,0.273037065,0.080920912,0.237376496
0.316102944,0.272987667,0.080912625,0.237311614
0.316078722,0.272937673,0.08090437,0.237246174
0.31605344,0.272887082,0.08089615,0.237180176
0.316027094,0.272835892,0.080887964,0.237113617
0.315999681,0.272784103,0.080879814,0.237046497
0.315971198,0.272731712,0.080871701,0.236978812
0.315941639,0.272678718,0.080863626,0.236910564
0.315911002,0.272625122,0.08085559,0.236841749
0.315879283,0.272570921,0.080847595,0.236772368
0.315846476,0.272516114,0.080839641,0.23670242
0.315812577,0.272460701,0.080831729,0.236631903
0.315777582,0.272404681,0.080823862,0.236560817
0.315741486,0.272348051,0.080816041,0.236489161
0.315704286,0.272290811,0.080808268,0.236416934
0.315665976,0.27223296,0.080800542,0.236344135
0.315626555,0.272174497,0.080792867,0.236270764
0.315586018,0.272115422,0.080785244,0.236196822
0.315544362,0.272055734,0.080777674,0.236122306
0.315501585,0.271995432,0.080770159,0.236047218
0.315457683,0.271934517,0.0807627,0.235971556
0.315412654,0.271872988,0.080755298,0.235895321
0.315366495,0.271810844,0.080747954,0.235818511
0.315319204,0.271748084,0.08074067,0.235741127
0.315270778,0.271684708,0.080733447,0.235663169
0.315221215,0.271620716,0.080726285,0.235584636
0.315170513,0.271556108,0.080719187,0.235505529
0.315118668,0.271490883,0.080712152,0.235425847
0.315065677,0.271425042,0.080705182,0.235345592
0.315011539,0.271358584,0.080698278,0.235264763
0.314956249,0.27129151,0.080691442,0.23518336
0.314899807,0.271223818,0.080684675,0.235101384
0.31484221,0.27115551,0.080677978,0.235018835
0.314783459,0.271086586,0.080671353,0.234935714
0.314723552,0.271017047,0.080664801,0.234852021
0.31466249,0.270946894,0.080658323,0.234767758
0.314600272,0.270876129,0.080651921,0.234682925
0.3145369,0.270804752,0.080645596,0.234597522
0.314472373,0.270732764,0.080639349,0.23451155
0.314406692,0.270660166,0.080633181,0.23442501
0.314339859,0.270586959,0.080627093,0.234337902
0.314271874,0.270513145,0.080621086,0.234250227
0.314202737,0.270438724,0.080615161,0.234161987
0.314132449,0.270363697,0.080609319,0.234073183
0.31406101,0.270288067,0.080603563,0.233983815
0.313988421,0.270211834,0.080597895,0.233893884
0.313914681,0.270135,0.080592315,0.233803392
0.313839793,0.270057565,0.080586826,0.233712339
0.313763757,0.26997953,0.080581429,0.233620728
0.313686576,0.269900898,0.080576126,0.233528558
0.313608251,0.269821669,0.080570919,0.233435833
0.313528784,0.269741846,0.08056581,0.233342553
0.313448179,0.269661431,0.080560799,0.23324872
0.313366436,0.269580425,0.080555889,0.233154335
0.313283559,0.269498831,0.080551082,0.233059399
0.31319955,0.269416649,0.080546377,0.232963915
0.313114412,0.269333882,0.080541777,0.232867883
0.313028148,0.269250532,0.080537283,0.232771305
0.312940761,0.2691666,0.080532895,0.232674184
0.312852253,0.269082089,0.080528616,0.23257652
0.312762626,0.268997001,0.080524448,0.232478316
0.312671883,0.268911338,0.080520391,0.232379573
0.312580027,0.268825102,0.080516449,0.232280295
0.31248706,0.268738294,0.080512622,0.232180481
0.312392985,0.268650916,0.080508914,0.232080136
0.312297806,0.268562971,0.080505325,0.23197926
0.312201527,0.268474461,0.080501858,0.231877855
0.312104151,0.268385389,0.080498514,0.231775926
0.312005681,0.268295757,0.080495296,0.231673473
0.311906122,0.268205567,0.080492204,0.231570499
0.311805477,0.268114823,0.080489242,0.231467007
0.311703751,0.268023527,0.080486409,0.231362998
0.311600949,0.267931682,0.080483709,0.231258476
0.311497075,0.26783929,0.080481141,0.231153441
0.311392133,0.267746353,0.080478707,0.231047897
0.311286128,0.267652875,0.080476409,0.230941847
0.311179064,0.267558859,0.080474248,0.230835294
0.311070946,0.267464308,0.080472224,0.230728239
0.310961777,0.267369224,0.080470341,0.230620687
0.310851561,0.26727361,0.080468598,0.23051264
0.310740302,0.267177469,0.080466998,0.2304041
0.310628006,0.267080803,0.080465542,0.23029507
0.310514676,0.266983616,0.080464231,0.230185554
0.310400318,0.266885911,0.080463068,0.230075554
0.310284939,0.266787691,0.080462054,0.229965074
0.310168543,0.26668896,0.08046119,0.229854117
0.310051136,0.266589721,0.080460479,0.229742687
0.309932723,0.266489977,0.08045992,0.229630785
0.30981331,0.266389731,0.080459516,0.229518415
0.309692903,0.266288987,0.080459268,0.22940558
0.309571507,0.266187748,0.080459176,0.229292283
0.309449127,0.266086018,0.080459243,0.229178527
0.309325769,0.265983799,0.080459469,0.229064317
0.309201438,0.265881096,0.080459856,0.228949655
0.309076138,0.265777913,0.080460405,0.228834545
0.308949874,0.265674252,0.080461119,0.22871899
0.308822652,0.265570118,0.080461999,0.228602993
0.308694477,0.265465513,0.080463047,0.228486559
0.308565355,0.265360441,0.080464263,0.228369689
0.308435293,0.265254906,0.080465651,0.228252389
0.308304298,0.265148912,0.080467211,0.228134662
0.308172376,0.265042462,0.080468946,0.228016511
0.308039536,0.264935561,0.080470856,0.22789794
0.307905784,0.264828213,0.080472943,0.227778953
0.307771128,0.264720422,0.080475209,0.227659553
0.307635576,0.264612191,0.080477654,0.227539743
0.307499137,0.264503524,0.08048028,0.227419528
0.307361817,0.264394425,0.080483087,0.227298911
0.307223625,0.264284899,0.080486077,0.227177895
0.307084567,0.264174949,0.080489251,0.227056485
0.306944651,0.26406458,0.080492611,0.226934686
0.306803883,0.263953795,0.080496158,0.2268125
0.30666227,0.263842597,0.080499895,0.226689931
0.306519818,0.263730992,0.080503823,0.226566984
0.306376534,0.263618982,0.080507944,0.226443663
0.306232427,0.26350657,0.080512259,0.226319971
0.306087502,0.263393763,0.08051677,0.226195913
0.305941767,0.263280562,0.080521479,0.226071493
0.30579523,0.263166974,0.080526387,0.225946715
0.305647898,0.263053003,0.080531496,0.225821584
0.305499778,0.262938652,0.080536807,0.225696104
0.305350879,0.262823925,0.08054232,0.225570278
0.305201205,0.262708827,0.080548038,0.22544411
0.305050766,0.262593362,0.080553962,0.225317606
0.304899568,0.262477533,0.080560091,0.225190768
0.304747617,0.262361346,0.080566427,0.225063603
0.30459492,0.262244805,0.080572971,0.224936113
0.304441483,0.262127914,0.080579724,0.224808305
0.304287314,0.262010677,0.080586686,0.224680181
0.304132417,0.261893098,0.08059386,0.224551748
0.303976801,0.261775182,0.080601245,0.224423008
0.303820471,0.261656931,0.080608844,0.224293967
0.303663437,0.261538352,0.080616657,0.224164629
0.303505706,0.261419447,0.080624686,0.224034999
0.303347285,0.261300222,0.080632931,0.223905083
0.303188184,0.261180682,0.080641394,0.223774884
0.30302841,0.261060831,0.080650075,0.223644408
0.302867972,0.260940673,0.080658975,0.223513659
0.302706878,0.260820213,0.080668095,0.22338264
0.302545138,0.260699454,0.080677436,0.223251358
0.30238276,0.260578403,0.080686997,0.223119816
0.302219752,0.260457062,0.08069678,0.22298802
0.302056123,0.260335437,0.080706785,0.222855973
0.301891879,0.260213533,0.080717013,0.222723682
0.301727029,0.260091354,0.080727465,0.22259115
0.301561579,0.259968906,0.080738143,0.222458383
0.301395537,0.259846193,0.080749047,0.222325384
0.301228912,0.259723218,0.080760178,0.222192159
0.301061709,0.259599988,0.080771536,0.222058712
0.300893939,0.259476508,0.080783124,0.221925049
0.300725609,0.259352781,0.080794941,0.221791173
0.300556728,0.259228815,0.080806988,0.22165709
0.300387305,0.259104613,0.080819267,0.221522805
0.300217348,0.258980182,0.080831777,0.221388322
0.300046866,0.258855525,0.080844519,0.221253647
0.299875869,0.258730649,0.080857493,0.221118782
0.299704365,0.258605557,0.0808707,0.220983734
0.299532363,0.258480255,0.08088414,0.220848507
0.299359873,0.258354748,0.080897814,0.220713105
0.299186902,0.258229041,0.080911722,0.220577534
0.299013458,0.258103139,0.080925865,0.2204418
0.298839549,0.257977047,0.080940244,0.220305906
0.298665183,0.25785077,0.080954862,0.220169858
0.298490367,0.257724311,0.080969717,0.22003366
0.298315109,0.257597677,0.080984813,0.219897317
0.298139418,0.257470871,0.081000149,0.219760834
0.297963302,0.257343899,0.081015727,0.219624217
0.29778677,0.257216765,0.081031548,0.21948747
0.297609831,0.257089476,0.081047613,0.219350599
0.297432492,0.256962036,0.081063922,0.219213609
0.297254764,0.256834451,0.081080476,0.219076504
0.297076654,0.256706725,0.081097276,0.21893929
0.296898172,0.256578863,0.08111432,0.21880197
0.296719327,0.256450871,0.081131611,0.21866455
0.296540127,0.256322753,0.081149148,0.218527036
0.29636058,0.256194515,0.08116693,0.218389432
0.296180695,0.256066162,0.081184958,0.218251743
0.296000479,0.255937699,0.081203233,0.218113975
0.295819939,0.255809131,0.081221753,0.217976132
0.295639084,0.255680463,0.08124052,0.217838221
0.295457922,0.2555517,0.081259532,0.217700245
0.29527646,0.255422846,0.081278792,0.21756221
0.295094708,0.255293907,0.081298298,0.21742412
0.294912675,0.255164888,0.08131805,0.217285982
0.29473037,0.255035794,0.081338049,0.217147802
0.294547802,0.254906632,0.081358294,0.217009583
0.294364981,0.254777406,0.081378786,0.216871331
0.294181914,0.254648122,0.081399524,0.216733051
0.293998612,0.254518784,0.081420507,0.216594748
0.293815083,0.254389396,0.081441735,0.216456427
0.293631337,0.254259966,0.081463208,0.216318093
0.293447383,0.254130496,0.081484925,0.216179751
0.29326323,0.254000993,0.081506886,0.216041407
0.293078885,0.253871462,0.081529091,0.215903065
0.292894358,0.253741907,0.081551541,0.215764731
0.292709656,0.253612333,0.081574235,0.215626409
0.292524787,0.253482745,0.081597176,0.215488105
0.292339759,0.253353147,0.081620362,0.215349823
0.292154581,0.253223543,0.081643794,0.215211569
0.291969262,0.25309394,0.081667473,0.215073346
0.29178381,0.252964341,0.081691399,0.214935161
0.291598234,0.252834752,0.081715572,0.214797018
0.291412543,0.252705178,0.081739993,0.214658923
0.291226746,0.252575624,0.081764661,0.214520879
0.29104085,0.252446094,0.081789578,0.214382892
0.290854866,0.252316594,0.081814742,0.214244967
0.290668802,0.252187128,0.081840155,0.214107107
0.290482667,0.2520577,0.081865816,0.213969318
0.290296469,0.251928316,0.081891726,0.213831605
0.290110216,0.25179898,0.081917884,0.213693973
0.289923916,0.251669698,0.081944292,0.213556427
0.289737576,0.251540474,0.08197095,0.213418972
0.289551205,0.251411313,0.081997858,0.213281612
0.289364809,0.251282219,0.082025019,0.213144353
0.289178398,0.251153196,0.082052431,0.213007198
0.288991978,0.25102425,0.082080097,0.212870155
0.288805558,0.250895385,0.082108016,0.212733226
0.288619146,0.250766607,0.082136189,0.212596418
0.288432751,0.250637921,0.082164618,0.212459735
0.288246381,0.250509331,0.082193301,0.212323182
0.288060044,0.250380842,0.082222241,0.212186764
0.287873749,0.25025246,0.082251436,0.212050486
0.287687504,0.250124189,0.082280887,0.211914352
0.287501318,0.249996033,0.082310594,0.211778366
0.287315199,0.249867998,0.082340557,0.211642534
0.287129154,0.249740088,0.082370776,0.21150686
0.286943192,0.249612309,0.082401251,0.21137135
0.28675732,0.249484665,0.082431982,0.211236008
0.286571544,0.249357161,0.082462969,0.211100839
0.286385872,0.249229801,0.082494212,0.210965847
0.286200311,0.249102589,0.082525711,0.210831038
0.286014867,0.248975529,0.082557465,0.210696415
0.28582955,0.248848627,0.082589475,0.210561984
0.285644368,0.248721888,0.082621741,0.21042775
0.28545933,0.248595316,0.082654263,0.210293718
0.285274445,0.248468917,0.082687039,0.210159893
0.285089721,0.248342695,0.082720071,0.210026278
0.284905168,0.248216654,0.082753356,0.209892879
0.284720796,0.2480908,0.082786896,0.2097597
0.284536612,0.247965137,0.082820688,0.209626746
0.284352628,0.247839669,0.082854733,0.20949402
0.28416885,0.247714401,0.08288903,0.209361527
0.283985289,0.247589338,0.082923578,0.209229273
0.283801951,0.247464483,0.082958378,0.209097262
0.283618845,0.247339843,0.08299343,0.208965498
0.283435979,0.247215421,0.083028733,0.208833985
0.283253359,0.247091221,0.083064288,0.208702729
0.283070995,0.246967246,0.083100095,0.208571732
0.282888893,0.246843503,0.083136153,0.208440999
0.282707062,0.246719994,0.083172463,0.208310536
0.282525511,0.246596725,0.083209025,0.208180346
0.282344248,0.246473699,0.083245838,0.208050434
0.282163281,0.246350923,0.083282902,0.207920804
0.281982618,0.246228399,0.083320216,0.20779146
0.281802269,0.246106133,0.083357781,0.207662406
0.28162224,0.245984128,0.083395595,0.207533647
0.281442541,0.245862389,0.083433658,0.207405187
0.281263181,0.245740919,0.083471969,0.207277029
0.281084166,0.245619723,0.083510528,0.207149178
0.280905504,0.245498805,0.083549333,0.207021639
0.280727203,0.24537817,0.083588385,0.206894417
0.280549268,0.245257821,0.083627682,0.206767515
0.280371707,0.245137762,0.083667226,0.206640937
0.280194526,0.245017998,0.083707014,0.206514689
0.280017733,0.244898531,0.083747048,0.206388773
0.279841333,0.244779367,0.083787325,0.206263195
0.279665335,0.244660509,0.083827847,0.206137958
0.279489747,0.244541962,0.083868612,0.206013068
0.279314575,0.24442373,0.08390962,0.205888529
0.279139827,0.244305817,0.08395087,0.205764344
0.27896551,0.244188229,0.083992362,0.205640518
0.278791633,0.244070967,0.084034094,0.205517054
0.278618201,0.243954038,0.084076066,0.205393958
0.278445223,0.243837443,0.084118275,0.205271231
0.278272706,0.243721189,0.084160722,0.20514888
0.278100656,0.243605278,0.084203406,0.205026907
0.27792908,0.243489716,0.084246323,0.204905317
0.277757984,0.243374506,0.084289475,0.204784115
0.277587374,0.243259651,0.084332859,0.204663303
0.277417255,0.243145155,0.084376475,0.204542887
0.277247633,0.243031022,0.084420322,0.20442287
0.277078514,0.242917254,0.084464398,0.204303255
0.276909905,0.242803856,0.084508703,0.204184047
0.276741813,0.242690831,0.084553235,0.204065251
0.276574247,0.242578183,0.084597993,0.20394687
0.276407212,0.242465916,0.084642976,0.203828909
0.276240718,0.242354034,0.084688183,0.203711371
0.276074773,0.242242539,0.084733611,0.20359426
0.275909385,0.242131436,0.08477926,0.20347758
0.275744562,0.242020727,0.084825128,0.203361334
0.275580312,0.241910415,0.084871212,0.203245527
0.275416643,0.241800505,0.084917511,0.203130161
0.275253562,0.241690999,0.084964023,0.203015241
0.275091076,0.241581901,0.085010748,0.202900771
0.274929192,0.241473215,0.085057685,0.202786755
0.274767915,0.241364942,0.085104831,0.202673195
0.274607252,0.241257088,0.085152187,0.202560095
0.27444721,0.241149653,0.08519975,0.20244746
0.274287795,0.241042642,0.085247521,0.202335291
0.274129014,0.240936057,0.085295496,0.202223593
0.273970873,0.240829903,0.085343676,0.202112369
0.273813381,0.240724183,0.085392059,0.202001624
0.273656542,0.240618899,0.085440644,0.20189136
0.273500363,0.240514057,0.08548943,0.201781581
0.27334485,0.240409657,0.085538415,0.201672289
0.27319001,0.240305704,0.085587597,0.201563488
0.273035848,0.2402022,0.085636975,0.201455182
0.272882369,0.240099148,0.085686547,0.201347372
0.27272958,0.239996551,0.085736312,0.201240064
0.272577485,0.239894412,0.085786268,0.201133259
0.272426091,0.239792735,0.085836414,0.201026963
0.272275401,0.23969152,0.085886749,0.200921177
0.272125422,0.239590772,0.085937271,0.200815906
0.271976159,0.239490492,0.08598798,0.200711151
0.271827619,0.239390683,0.086038875,0.200606916
0.271679807,0.239291347,0.086089954,0.200503205
0.27153273,0.239192487,0.086141216,0.20040002
0.271386396,0.239094106,0.08619266,0.200297365
0.271240811,0.238996208,0.086244285,0.200195243
0.271095982,0.238898795,0.08629609,0.200093657
0.270951916,0.238801869,0.086348073,0.19999261
0.270808621,0.238705433,0.086400234,0.199892104
0.270666102,0.23860949,0.08645257,0.199792142
0.270524368,0.238514042,0.08650508,0.199692726
0.270383423,0.238419091,0.086557763,0.199593861
0.270243275,0.238324642,0.086610617,0.199495548
0.270103929,0.238230695,0.08666364,0.199397792
0.26996539,0.238137254,0.086716831,0.199300594
0.269827664,0.23804432,0.086770188,0.199203957
0.269690756,0.237951897,0.08682371,0.199107884
0.269554671,0.237859986,0.086877395,0.199012378
0.269419414,0.237768588,0.086931241,0.198917441
0.269284993,0.237677707,0.086985247,0.198823076
0.269151413,0.237587345,0.087039413,0.198729286
0.269018679,0.237497505,0.087093735,0.198636074
0.268886799,0.237408188,0.087148213,0.198543442
0.268755778,0.237319398,0.087202845,0.198451392
0.268625622,0.237231136,0.08725763,0.198359928
0.268496337,0.237143404,0.087312565,0.198269051
0.268367927,0.237056205,0.087367649,0.198178763
0.268240399,0.23696954,0.087422879,0.198089066
0.268113758,0.236883412,0.087478256,0.197999964
0.267988007,0.236797822,0.087533776,0.197911458
0.267863151,0.236712774,0.087589439,0.197823551
0.267739194,0.236628268,0.087645244,0.197736245
0.26761614,0.236544308,0.08770119,0.197649541
0.267493992,0.236460894,0.087757277,0.197563442
0.267372755,0.236378028,0.087813503,0.197477949
0.267252434,0.236295713,0.087869867,0.197393065
0.267133032,0.23621395,0.087926369,0.197308792
0.267014555,0.236132741,0.087983007,0.197225131
0.266897007,0.23605209,0.088039781,0.197142085
0.266780393,0.235971997,0.088096688,0.197059656
0.266664716,0.235892465,0.088153729,0.196977844
0.266549982,0.235813497,0.088210901,0.196896652
0.266436194,0.235735092,0.088268202,0.196816081
0.266323357,0.235657255,0.088325633,0.196736133
0.266211476,0.235579985,0.08838319,0.196656809
0.266100553,0.235503286,0.088440872,0.196578111
0.265990593,0.235427159,0.088498679,0.196500042
0.265881599,0.235351606,0.088556609,0.196422602
0.265773573,0.235276628,0.08861466,0.196345794
0.265666519,0.235202228,0.088672833,0.196269619
0.265560438,0.235128406,0.088731126,0.196194079
0.265455336,0.235055163,0.088789538,0.196119174
0.265351214,0.234982502,0.088848069,0.196044906
0.265248078,0.234910424,0.088906716,0.195971278
0.26514593,0.23483893,0.088965479,0.195898291
0.265044776,0.234768023,0.089024357,0.195825947
0.26494462,0.234697705,0.089083348,0.195754247
0.264845464,0.234627976,0.089142452,0.195683191
0.264747315,0.234558838,0.089201667,0.195612782
0.264650175,0.234490293,0.089260992,0.195543021
0.264554048,0.234422341,0.089320424,0.195473907
0.264458939,0.234354985,0.089379963,0.195405444
0.26436485,0.234288225,0.089439607,0.195337632
0.264271783,0.234222064,0.089499354,0.195270472
0.264179742,0.234156504,0.089559202,0.195203967
0.264088729,0.234091544,0.089619152,0.195138116
0.263998746,0.234027187,0.0896792,0.19507292
0.263909794,0.233963434,0.089739345,0.195008381
0.263821877,0.233900285,0.089799586,0.1949445
0.263734996,0.233837743,0.089859922,0.194881278
0.263649156,0.233775808,0.089920351,0.194818715
0.263564358,0.233714483,0.089980872,0.194756814
0.263480605,0.233653768,0.090041482,0.194695574
0.2633979,0.233593666,0.090102181,0.194634997
0.263316243,0.233534177,0.090162966,0.194575083
0.263235638,0.233475303,0.090223836,0.194515833
0.263156087,0.233417045,0.090284787,0.194457248
0.263077591,0.233359404,0.09034582,0.194399327
0.263000151,0.233302382,0.090406931,0.194342071
0.262923769,0.233245979,0.090468118,0.194285482
0.262848445,0.233190198,0.090529382,0.19422956
0.26277418,0.233135038,0.09059072,0.194174306
0.262700973,0.233080501,0.090652131,0.194119719
0.262628825,0.233026588,0.090713615,0.1940658
0.262557737,0.232973299,0.09077517,0.194012549
0.26248771,0.232920636,0.090836796,0.193959968
0.262418745,0.2328686,0.090898491,0.193908056
0.262350844,0.232817194,0.090960254,0.193856815
0.26228401,0.232766419,0.091022084,0.193806246
0.262218243,0.232716277,0.091083981,0.193756348
0.262153545,0.232666768,0.091145941,0.193707122
0.262089919,0.232617894,0.091207965,0.193658568
0.262027365,0.232569657,0.091270051,0.193610687
0.261965884,0.232522057,0.091332196,0.193563477
0.261905478,0.232475096,0.091394399,0.193516941
0.261846147,0.232428776,0.091456658,0.193471079
0.261787891,0.232383098,0.091518973,0.19342589
0.261730709,0.232338063,0.091581341,0.193381376
0.261674601,0.232293673,0.091643762,0.193337536
0.261619565,0.232249929,0.091706234,0.193294371
0.261565602,0.232206831,0.091768757,0.193251882
0.26151271,0.232164381,0.091831329,0.193210067
0.261460889,0.232122579,0.091893949,0.193168927
0.26141014,0.232081427,0.091956617,0.193128463
0.261360462,0.232040926,0.092019332,0.193088675
0.261311856,0.232001077,0.092082092,0.193049564
0.26126432,0.231961883,0.092144896,0.193011129
0.261217856,0.231923343,0.092207743,0.19297337
0.261172462,0.231885458,0.092270631,0.192936288
0.26112814,0.23184823,0.09233356,0.192899882
0.261084889,0.231811659,0.092396527,0.192864151
0.261042708,0.231775746,0.092459531,0.192829097
0.261001597,0.231740492,0.092522571,0.192794718
0.260961554,0.231705898,0.092585644,0.192761017
0.260922577,0.231671964,0.09264875,0.192727991
0.260884667,0.231638691,0.092711887,0.192695642
0.260847819,0.23160608,0.092775053,0.192663969
0.260812034,0.23157413,0.092838247,0.192632971
0.260777309,0.231542843,0.092901468,0.192602649
0.260743645,0.23151222,0.092964715,0.192573003
0.260711041,0.231482261,0.093027985,0.192544032
0.260679496,0.231452967,0.093091279,0.192515737
0.260649009,0.23142434,0.093154594,0.192488116
0.260619579,0.23139638,0.093217929,0.192461171
0.260591205,0.231369089,0.093281283,0.1924349
0.260563888,0.231342466,0.093344653,0.192409302
0.260537626,0.231316512,0.093408039,0.192384378
0.260512417,0.231291229,0.093471437,0.192360126
0.260488261,0.231266616,0.093534848,0.192336546
0.260465157,0.231242674,0.093598269,0.192313638
0.260443101,0.231219404,0.093661699,0.192291401
0.260422093,0.231196806,0.093725139,0.192269835
0.260402129,0.23117488,0.093788586,0.192248938
0.260383209,0.231153627,0.093852042,0.192228709
0.26036533,0.231133046,0.093915504,0.192209148
0.260348491,0.231113137,0.093978972,0.192190254
0.260332692,0.231093901,0.094042445,0.192172025
0.260317931,0.231075338,0.094105922,0.192154462
0.260304206,0.23105745,0.094169404,0.192137563
0.260291516,0.231040236,0.094232887,0.192121328
0.26027986,0.231023697,0.094296373,0.192105754
0.260269236,0.231007833,0.094359859,0.192090841
0.260259644,0.230992645,0.094423344,0.192076587
0.260251082,0.230978132,0.094486828,0.192062992
0.260243549,0.230964295,0.094550307,0.192050053
0.260237043,0.230951134,0.094613782,0.192037771
0.260231562,0.23093865,0.09467725,0.192026144
0.260227103,0.230926843,0.094740711,0.192015172
0.260223665,0.230915713,0.094804165,0.192004853
0.260221243,0.230905259,0.094867609,0.191995186
0.260219836,0.230895482,0.094931043,0.191986169
0.260219441,0.230886381,0.094994467,0.191977802
0.260220056,0.230877956,0.095057878,0.191970083
0.260221678,0.230870206,0.095121278,0.191963012
0.260224306,0.230863133,0.095184663,0.191956587
0.260227938,0.230856735,0.095248035,0.191950808
0.260232571,0.230851013,0.095311391,0.191945672
0.260238202,0.230845967,0.09537473,0.19194118
0.26024483,0.230841597,0.095438052,0.191937328
0.260252453,0.230837901,0.095501355,0.191934116
0.260261067,0.230834879,0.095564638,0.191931542
0.260270671,0.230832532,0.095627898,0.191929605
0.26028126,0.230830858,0.095691136,0.191928304
0.260292833,0.230829858,0.09575435,0.191927637
0.260305384,0.230829531,0.095817537,0.191927604
0.260318911,0.230829875,0.095880698,0.191928203
0.260333408,0.230830891,0.09594383,0.191929432
0.260348873,0.230832577,0.096006932,0.191931289
0.260365303,0.230834933,0.096070003,0.191933774
0.260382693,0.230837956,0.096133042,0.191936885
0.260401042,0.230841648,0.096196047,0.191940621
0.260420346,0.230846007,0.096259017,0.191944981
0.260440604,0.230851033,0.096321951,0.191949962
0.260461813,0.230856725,0.096384847,0.191955564
0.260483969,0.230863083,0.096447704,0.191961785
0.260507071,0.230870104,0.09651052,0.191968622
0.260531116,0.230877787,0.096573294,0.191976074
0.260556102,0.230886133,0.096636023,0.19198414
0.260582025,0.230895139,0.096698707,0.191992817
0.260608882,0.230904804,0.096761344,0.192002105
0.260636671,0.230915128,0.096823934,0.192012001
0.260665387,0.230926108,0.096886475,0.192022504
0.260695027,0.230937744,0.096948966,0.192033612
0.260725587,0.230950032,0.097011408,0.192045323
0.260757063,0.230962973,0.097073798,0.192057636
0.260789453,0.230976563,0.097136137,0.192070547
0.260822752,0.230990802,0.097198423,0.192084057
0.260856959,0.231005689,0.097260655,0.192098162
0.260892071,0.231021221,0.097322833,0.192112861
0.260928084,0.231037399,0.097384956,0.192128153
0.260964996,0.231054219,0.097447023,0.192144034
0.261002803,0.231071681,0.097509032,0.192160503
0.261041504,0.231089782,0.097570983,0.192177558
0.261081095,0.231108521,0.097632874,0.192195195
0.261121573,0.231127895,0.097694704,0.192213414
0.261162935,0.231147904,0.097756471,0.192232212
0.261205176,0.231168544,0.097818176,0.192251588
0.261248293,0.231189815,0.097879817,0.192271539
0.261292281,0.231211715,0.097941393,0.192292064
0.261337137,0.231234242,0.098002904,0.192313159
0.261382856,0.231257392,0.098064349,0.192334823
0.261429434,0.231281165,0.098125727,0.192357053
0.26147687,0.231305558,0.098187037,0.192379848
0.26152516,0.231330568,0.09824828,0.192403205
0.261574301,0.231356196,0.098309453,0.192427123
0.26162429,0.231382438,0.098370557,0.192451599
0.261675126,0.231409293,0.09843159,0.192476632
0.261726805,0.23143676,0.098492551,0.192502218
0.261779324,0.231464836,0.09855344,0.192528355
0.261832682,0.231493519,0.098614254,0.192555042
0.261886875,0.231522807,0.098674994,0.192582274
0.2619419,0.231552699,0.098735657,0.192610051
0.261997754,0.231583192,0.098796243,0.19263837
0.262054433,0.231614286,0.09885675,0.19266723
0.262111934,0.231645977,0.098917177,0.192696627
0.262170252,0.231678264,0.098977523,0.192726559
0.262229383,0.231711145,0.099037788,0.192757024
0.262289324,0.231744618,0.09909797,0.192788019
0.26235007,0.231778681,0.099158068,0.192819543
0.26241162,0.231813332,0.099218081,0.192851592
0.262473969,0.231848569,0.099278008,0.192884164
0.262537114,0.23188439,0.099337849,0.192917258
0.262601053,0.231920795,0.099397601,0.192950871
0.262665783,0.231957781,0.099457264,0.192985
0.2627313,0.231995347,0.099516836,0.193019643
0.262797602,0.232033489,0.099576316,0.193054796
0.262864685,0.232072207,0.099635703,0.193090458
0.262932546,0.232111499,0.099694994,0.193126625
0.263001181,0.232151362,0.099754189,0.193163295
0.263070588,0.232191795,0.099813287,0.193200466
0.263140761,0.232232796,0.099872287,0.193238136
0.263211697,0.232274362,0.099931188,0.193276301
0.263283391,0.232316493,0.09998999,0.193314961
0.263355839,0.232359184,0.100048691,0.193354111
0.263429037,0.232402435,0.100107292,0.19339375
0.263502981,0.232446242,0.100165792,0.193433876
0.263577667,0.232490605,0.10022419,0.193474485
0.263653093,0.23253552,0.100282486,0.193515575
0.263729254,0.232580987,0.100340678,0.193557145
0.263806148,0.232627003,0.100398766,0.193599193
0.263883769,0.232673567,0.100456749,0.193641714
0.263962115,0.232720677,0.100514625,0.193684707
0.264041181,0.232768329,0.100572395,0.193728169
0.264120964,0.232816523,0.100630056,0.193772098
0.264201459,0.232865255,0.100687607,0.193816491
0.264282663,0.232914525,0.100745047,0.193861345
0.264364569,0.232964329,0.100802375,0.193906659
0.264447175,0.233014666,0.100859591,0.19395243
0.264530474,0.233065533,0.100916693,0.193998656
0.26461446,0.233116929,0.100973681,0.194045333
0.264699129,0.23316885,0.101030554,0.19409246
0.264784476,0.233221294,0.101087311,0.194140034
0.264870496,0.233274258,0.101143952,0.194188052
0.264957185,0.233327741,0.101200475,0.194236512
0.265044538,0.233381739,0.101256881,0.194285412
0.265132552,0.233436252,0.101313167,0.19433475
0.265221221,0.233491277,0.101369334,0.194384523
0.265310541,0.23354681,0.10142538,0.194434729
0.265400508,0.233602851,0.101481304,0.194485363
0.265491119,0.233659395,0.101537106,0.194536425
0.265582368,0.23371644,0.101592783,0.194587911
0.265674251,0.233773985,0.101648334,0.194639819
0.265766763,0.233832026,0.101703759,0.194692146
0.265859899,0.233890561,0.101759057,0.19474489
0.265953653,0.233949587,0.101814226,0.194798049
0.26604802,0.234009101,0.101869265,0.19485162
0.266142995,0.234069102,0.101924173,0.194905601
0.266238572,0.234129584,0.101978951,0.19495999
0.266334746,0.234190546,0.102033595,0.195014783
0.266431512,0.234251985,0.102088107,0.195069978
0.266528868,0.234313897,0.102142484,0.195125574
0.266626808,0.234376281,0.102196726,0.195181568
0.266725327,0.234439135,0.102250832,0.195237957
0.266824423,0.234502454,0.1023048,0.19529474
0.26692409,0.234566237,0.102358631,0.195351914
0.267024324,0.23463048,0.102412321,0.195409475
0.267125121,0.23469518,0.10246587,0.195467421
0.267226478,0.234760335,0.102519276,0.19552575
0.267328389,0.23482594,0.102572538,0.195584459
0.267430849,0.234891994,0.102625656,0.195643546
0.267533853,0.234958492,0.102678628,0.195703008
0.267637397,0.235025432,0.102731453,0.195762844
0.267741474,0.235092811,0.102784133,0.19582305
0.26784608,0.235160624,0.102836665,0.195883624
0.26795121,0.235228869,0.10288905,0.195944563
0.26805686,0.235297541,0.102941288,0.196005865
0.268163025,0.235366639,0.102993377,0.196067527
0.268269702,0.235436159,0.103045317,0.196129547
0.268376888,0.235506098,0.103097107,0.196191924
0.268484577,0.235576453,0.103148748,0.196254653
0.268592767,0.235647221,0.103200238,0.196317733
0.268701452,0.2357184,0.103251577,0.19638116
0.26881063,0.235789986,0.103302763,0.196444932
0.268920297,0.235861975,0.103353795,0.196509045
0.269030447,0.235934365,0.103404673,0.196573499
0.269141077,0.236007153,0.103455395,0.196638288
0.269252181,0.236080336,0.10350596,0.196703413
0.269363754,0.236153912,0.103556369,0.196768868
0.26947579,0.236227877,0.103606619,0.196834653
0.269588284,0.236302228,0.103656711,0.196900763
0.269701231,0.236376962,0.103706644,0.196967196
0.269814624,0.236452075,0.103756417,0.19703395
0.26992846,0.236527565,0.103806029,0.197101021
0.270042735,0.236603429,0.103855479,0.197168408
0.270157444,0.236679663,0.103904768,0.197236108
0.270272584,0.236756264,0.103953894,0.197304117
0.270388149,0.236833231,0.104002856,0.197372435
0.270504137,0.236910559,0.104051654,0.197441057
0.270620543,0.236988245,0.104100286,0.19750998
0.270737364,0.237066286,0.104148752,0.197579202
0.270854597,0.237144678,0.10419705,0.19764872
0.270972237,0.237223419,0.10424518,0.197718532
0.27109028,0.237302505,0.10429314,0.197788634
0.271208722,0.237381933,0.10434093,0.197859024
0.271327559,0.2374617,0.104388548,0.1979297
0.271446785,0.237541804,0.104435995,0.198000659
0.271566395,0.237622239,0.104483269,0.198071897
0.271686386,0.237703004,0.104530369,0.198143413
0.271806752,0.237784095,0.104577295,0.198215203
0.271927491,0.237865509,0.104624045,0.198287265
0.272048598,0.237947243,0.10467062,0.198359596
0.272170069,0.238029294,0.104717018,0.198432194
0.272291901,0.238111661,0.104763239,0.198505057
0.272414091,0.23819434,0.104809281,0.19857818
0.272536634,0.238277329,0.104855144,0.198651561
0.272659527,0.238360624,0.104900826,0.198725198
0.272782767,0.238444223,0.104946326,0.198799086
0.272906349,0.238528122,0.104991644,0.198873223
0.27303027,0.238612319,0.105036778,0.198947607
0.273154524,0.23869681,0.105081728,0.199022235
0.273279106,0.238781594,0.105126494,0.199097103
0.273404012,0.238866666,0.105171074,0.19917221
0.273529236,0.238952023,0.10521547,0.199247552
0.273654772,0.239037662,0.105259681,0.199323126
0.273780615,0.239123579,0.105303707,0.199398929
0.273906761,0.23920977,0.105347547,0.199474958
0.274033203,0.239296233,0.105391202,0.199551212
0.274159938,0.239382965,0.10543467,0.199627686
0.27428696,0.239469962,0.105477953,0.199704379
0.274414265,0.239557221,0.105521049,0.199781287
0.274541846,0.23964474,0.105563957,0.199858408
0.274669699,0.239732514,0.105606678,0.199935739
0.274797819,0.239820541,0.105649209,0.200013276
0.274926199,0.239908818,0.105691551,0.200091017
0.275054835,0.23999734,0.105733703,0.200168959
0.27518372,0.240086105,0.105775664,0.200247098
0.275312848,0.240175111,0.105817432,0.200325434
0.275442213,0.240264354,0.105859008,0.200403961
0.275571808,0.24035383,0.105900391,0.200482679
0.275701626,0.240443537,0.105941581,0.200561582
0.275831662,0.240533471,0.105982576,0.200640669
0.275961908,0.240623628,0.106023377,0.200719937
0.276092359,0.240714006,0.106063982,0.200799383
0.27622301,0.240804601,0.106104392,0.200879004
0.276353855,0.240895411,0.106144607,0.200958797
0.276484889,0.240986433,0.106184624,0.20103876
0.276616106,0.241077664,0.106224446,0.20111889
0.276747501,0.2411691,0.106264069,0.201199184
0.276879069,0.24126074,0.106303494,0.201279639
0.277010804,0.241352579,0.106342721,0.201360251
0.2771427,0.241444614,0.106381747,0.201441018
0.277274752,0.241536843,0.106420574,0.201521937
0.277406954,0.241629263,0.106459199,0.201603006
0.277539298,0.24172187,0.106497623,0.20168422
0.27767178,0.241814663,0.106535844,0.201765579
0.277804392,0.241907637,0.106573864,0.201847079
0.277937128,0.24200079,0.106611681,0.201928717
0.278069983,0.242094118,0.106649294,0.202010491
0.278202951,0.242187618,0.106686704,0.202092397
0.278336029,0.242281286,0.10672391,0.202174432
0.278469211,0.242375121,0.106760911,0.202256596
0.278602491,0.242469119,0.106797708,0.202338884
0.278735867,0.242563279,0.1068343,0.202421294
0.278869332,0.242657596,0.106870686,0.202503824
0.279002882,0.242752068,0.106906865,0.202586469
0.279136514,0.242846693,0.106942838,0.202669228
0.279270222,0.242941466,0.106978602,0.202752097
0.279404003,0.243036385,0.107014157,0.202835073
0.279537851,0.243131447,0.107049503,0.202918153
0.279671763,0.24322665,0.107084639,0.203001336
0.279805732,0.24332199,0.107119565,0.203084617
0.279939754,0.243417464,0.107154282,0.203167995
0.280073823,0.243513069,0.107188788,0.203251467
0.280207934,0.243608801,0.107223085,0.20333503
0.28034208,0.243704658,0.107257173,0.20341868
0.280476257,0.243800636,0.107291051,0.203502416
0.28061046,0.243896733,0.10732472,0.203586235
0.280744684,0.243992945,0.10735818,0.203670134
0.280878924,0.24408927,0.107391431,0.20375411
0.281013174,0.244185704,0.107424473,0.203838162
0.28114743,0.244282245,0.107457307,0.203922286
0.281281685,0.244378889,0.107489932,0.20400648
0.281415935,0.244475633,0.107522348,0.20409074
0.281550173,0.244572474,0.107554555,0.204175064
0.281684396,0.244669408,0.107586553,0.204259449
0.281818596,0.244766433,0.107618342,0.204343892
0.281952768,0.244863544,0.107649922,0.204428392
0.282086906,0.244960741,0.107681292,0.204512945
0.282221003,0.245058018,0.107712454,0.204597548
0.282355053,0.245155373,0.107743407,0.2046822
0.282489049,0.245252802,0.107774151,0.204766896
0.282622986,0.245350303,0.107804686,0.204851635
0.282756856,0.245447871,0.107835013,0.204936413
0.282890655,0.245545505,0.107865131,0.205021229
0.283024377,0.245643201,0.10789504,0.20510608
0.283158016,0.245740957,0.107924742,0.205190964
0.283291565,0.245838769,0.107954234,0.205275877
0.28342502,0.245936635,0.107983517,0.205360818
0.283558375,0.246034552,0.108012592,0.205445783
0.283691623,0.246132517,0.108041456,0.20553077
0.28382476,0.246230526,0.10807011,0.205615776
0.283957778,0.246328576,0.108098554,0.205700799
0.284090672,0.246426665,0.108126786,0.205785836
0.284223435,0.24652479,0.108154808,0.205870886
0.284356061,0.246622948,0.108182619,0.205955945
0.284488542,0.246721137,0.108210219,0.206041012
0.284620872,0.246819353,0.108237607,0.206126084
0.284753044,0.246917592,0.108264785,0.206211158
0.284885053,0.247015852,0.10829175,0.206296231
0.285016891,0.24711413,0.108318505,0.206381302
0.285148554,0.247212424,0.108345048,0.206466369
0.285280036,0.24731073,0.108371379,0.206551429
0.285411331,0.247409047,0.1083975,0.206636481
0.285542433,0.247507371,0.108423408,0.20672152
0.285673337,0.2476057,0.108449105,0.206806546
0.285804037,0.247704031,0.10847459,0.206891554
0.285934527,0.247802361,0.108499863,0.206976544
0.286064802,0.247900686,0.108524923,0.207061511
0.286194856,0.247999005,0.10854977,0.207146455
0.286324683,0.248097314,0.108574404,0.207231372
0.286454277,0.248195611,0.108598825,0.207316262
0.286583632,0.248293892,0.108623035,0.20740112
0.286712741,0.248392156,0.108647034,0.207485946
0.286841599,0.248490398,0.108670822,0.207570737
0.2869702,0.248588617,0.1086944,0.207655491
0.28709854,0.248686808,0.108717768,0.207740204
0.287226613,0.24878497,0.108740926,0.207824876
0.287354415,0.248883099,0.108763876,0.207909504
0.287481942,0.248981193,0.108786618,0.207994087
0.287609189,0.249079251,0.108809152,0.208078621
0.287736152,0.249177268,0.108831478,0.208163105
0.287862827,0.249275242,0.108853596,0.208247535
0.28798921,0.249373171,0.108875507,0.208331911
0.288115296,0.24947105,0.108897211,0.208416228
0.288241081,0.249568878,0.108918707,0.208500486
0.28836656,0.249666652,0.108939995,0.208584682
0.288491728,0.249764368,0.108961077,0.208668813
0.288616581,0.249862026,0.108981951,0.208752878
0.288741112,0.249959621,0.109002619,0.208836874
0.288865316,0.250057151,0.10902308,0.208920799
0.288989187,0.250154613,0.109043336,0.20900465
0.289112721,0.250252004,0.109063385,0.209088424
0.289235913,0.250349321,0.109083229,0.20917212
0.289358759,0.250446562,0.109102869,0.209255735
0.289481254,0.250543723,0.109122303,0.209339268
0.289603395,0.250640804,0.109141534,0.209422717
0.289725176,0.250737801,0.109160561,0.209506078
0.289846594,0.250834711,0.109179384,0.20958935
0.289967644,0.250931532,0.109198003,0.209672531
0.290088321,0.251028261,0.109216419,0.209755617
0.290208622,0.251124896,0.109234632,0.209838606
0.290328542,0.251221435,0.109252641,0.209921497
0.290448075,0.251317874,0.109270446,0.210004288
0.290567218,0.251414212,0.109288049,0.210086977
0.290685964,0.251510447,0.109305449,0.210169562
0.290804309,0.251606576,0.109322648,0.21025204
0.290922248,0.251702595,0.109339644,0.210334409
0.291039775,0.251798504,0.109356439,0.210416667
0.291156887,0.251894298,0.109373033,0.210498813
0.291273579,0.251989976,0.109389427,0.210580843
0.291389849,0.252085535,0.10940562,0.210662757
0.291505693,0.252180974,0.109421613,0.210744552
0.291621108,0.25227629,0.109437407,0.210826227
0.291736089,0.252371481,0.109453001,0.210907778
0.291850634,0.252466545,0.109468396,0.210989205
0.291964741,0.252561479,0.109483592,0.211070503
0.292078406,0.25265628,0.109498589,0.211151672
0.292191626,0.252750946,0.109513386,0.211232708
0.292304399,0.252845475,0.109527986,0.21131361
0.29241672,0.252939865,0.109542387,0.211394377
0.292528586,0.253034113,0.109556591,0.211475005
0.292639993,0.253128217,0.109570599,0.211555493
0.292750937,0.253222175,0.109584413,0.211635839
0.292861415,0.253315984,0.109598033,0.211716042
0.292971421,0.253409642,0.109611461,0.211796098
0.293080954,0.253503145,0.109624698,0.211876006
0.293190009,0.253596492,0.109637744,0.211955765
0.293298585,0.253689681,0.109650601,0.212035373
0.293406677,0.25378271,0.109663269,0.212114828
0.293514283,0.253875577,0.10967575,0.212194128
0.2936214,0.25396828,0.109688044,0.212273272
0.293728024,0.254060816,0.109700152,0.212352256
0.293834154,0.254153184,0.109712073,0.21243108
0.293939787,0.254245381,0.109723809,0.212509742
0.294044919,0.254337406,0.10973536,0.212588238
0.294149548,0.254429256,0.109746726,0.212666569
0.294253669,0.254520929,0.109757907,0.212744732
0.294357279,0.254612424,0.109768904,0.212822726
0.294460375,0.254703739,0.109779718,0.212900548
0.294562951,0.254794871,0.10979035,0.212978196
0.294665005,0.254885818,0.1098008,0.213055669
0.294766533,0.254976577,0.109811068,0.213132964
0.294867532,0.255067148,0.109821157,0.21321008
0.294968,0.255157527,0.109831066,0.213287016
0.295067934,0.255247714,0.109840797,0.21336377
0.295167332,0.255337706,0.10985035,0.21344034
0.295266193,0.255427503,0.109859726,0.213516724
0.295364513,0.255517101,0.109868927,0.213592921
0.295462292,0.255606498,0.109877952,0.213668928
0.295559526,0.255695694,0.109886802,0.213744744
0.295656215,0.255784684,0.109895479,0.213820367
0.295752356,0.255873469,0.109903981,0.213895794
0.295847946,0.255962045,0.109912311,0.213971026
0.295942983,0.256050412,0.109920469,0.21404606
0.296037463,0.256138567,0.109928457,0.214120895
0.296131385,0.256226508,0.109936275,0.21419553
0.296224744,0.256314234,0.109943923,0.214269962
0.296317539,0.256401743,0.109951404,0.21434419
0.296409768,0.256489032,0.109958719,0.214418212
0.296501429,0.2565761,0.109965867,0.214492027
0.296592522,0.256662946,0.10997285,0.214565634
0.296683045,0.256749569,0.10997967,0.214639032
0.296772997,0.256835968,0.109986327,0.214712218
0.296862378,0.256922142,0.109992822,0.214785192
0.296951187,0.25700809,0.109999156,0.21485795
0.297039423,0.257093809,0.110005328,0.214930492
0.297127085,0.257179299,0.110011341,0.215002816
0.297214174,0.257264558,0.110017194,0.21507492
0.297300689,0.257349586,0.110022888,0.215146804
0.297386627,0.257434381,0.110028424,0.215218464
0.297471989,0.257518942,0.110033805,0.215289901
0.297556772,0.257603268,0.11003903,0.215361112
0.297640975,0.257687358,0.110044102,0.215432096
0.297724597,0.25777121,0.110049022,0.215502852
0.297807637,0.257854823,0.110053791,0.215573378
0.297890094,0.257938195,0.110058411,0.215643672
0.297971968,0.258021326,0.110062883,0.215713733
0.298053259,0.258104215,0.110067208,0.21578356
0.298133966,0.258186862,0.110071388,0.215853152
0.298214091,0.258269266,0.110075423,0.215922508
0.298293633,0.258351426,0.110079314,0.215991625
0.298372592,0.258433342,0.110083063,0.216060502
0.29845097,0.258515012,0.110086669,0.216129138
0.298528766,0.258596436,0.110090134,0.21619753
0.29860598,0.258677614,0.110093459,0.216265679
0.298682613,0.258758545,0.110096643,0.216333582
0.298758664,0.258839228,0.110099688,0.216401238
0.298834133,0.258919664,0.110102594,0.216468646
0.298909018,0.258999851,0.110105362,0.216535805
0.298983319,0.259079789,0.110107992,0.216602712
0.299057035,0.259159476,0.110110485,0.216669366
0.299130167,0.259238912,0.110112842,0.216735766
0.299202714,0.259318096,0.110115062,0.216801911
0.299274678,0.259397027,0.110117148,0.2168678
0.299346059,0.259475706,0.110119099,0.216933431
0.299416857,0.259554131,0.110120917,0.216998803
0.299487074,0.259632302,0.110122602,0.217063914
0.29955671,0.25971022,0.110124155,0.217128764
0.299625766,0.259787882,0.110125575,0.217193351
0.299694244,0.259865288,0.110126864,0.217257673
0.299762144,0.259942438,0.110128021,0.217321729
0.299829468,0.260019332,0.110129047,0.217385518
0.299896215,0.260095968,0.110129943,0.217449038
0.299962387,0.260172346,0.110130709,0.21751229
0.300027982,0.260248467,0.110131346,0.217575271
0.300093002,0.260324328,0.110131854,0.21763798
0.300157446,0.26039993,0.110132234,0.217700416
0.300221313,0.260475272,0.110132487,0.217762577
0.300284606,0.260550352,0.110132613,0.217824463
0.300347325,0.260625171,0.110132613,0.217886071
0.300409472,0.260699727,0.110132487,0.217947402
0.300471046,0.260774022,0.110132237,0.218008455
0.30053205,0.260848054,0.110131862,0.218069228
0.300592485,0.260921823,0.110131364,0.218129719
0.300652351,0.260995329,0.110130742,0.218189928
0.300711651,0.26106857,0.110129996,0.218249853
0.300770386,0.261141547,0.110129128,0.218309493
0.300828556,0.261214257,0.110128137,0.218368847
0.300886164,0.261286702,0.110127023,0.218427914
0.300943209,0.261358881,0.110125789,0.218486693
0.300999692,0.261430792,0.110124434,0.218545184
0.301055612,0.261502436,0.110122959,0.218603386
0.30111097,0.261573812,0.110121367,0.218661297
0.301165766,0.261644919,0.110119657,0.218718916
0.30122,0.261715755,0.110117831,0.218776243
0.301273673,0.261786322,0.110115889,0.218833278
0.301326784,0.261856617,0.110113834,0.218890018
0.301379336,0.261926642,0.110111665,0.218946464
0.30143133,0.261996395,0.110109384,0.219002615
0.301482765,0.262065878,0.110106992,0.21905847
0.301533644,0.262135088,0.110104489,0.219114028
0.301583968,0.262204027,0.110101877,0.219169289
0.301633739,0.262272692,0.110099156,0.21922425
0.301682956,0.262341084,0.110096326,0.219278912
0.301731622,0.262409201,0.110093389,0.219333274
0.301779737,0.262477044,0.110090345,0.219387335
0.301827302,0.262544612,0.110087194,0.219441095
0.301874317,0.262611904,0.110083937,0.219494552
0.301920783,0.26267892,0.110080575,0.219547706
0.3019667,0.262745659,0.11007711,0.219600556
0.302012069,0.26281212,0.110073541,0.2196531
0.302056891,0.262878302,0.11006987,0.219705339
0.302101167,0.262944205,0.110066098,0.219757271
0.302144901,0.263009829,0.110062227,0.219808895
0.302188092,0.263075172,0.110058256,0.219860212
0.302230745,0.263140236,0.110054188,0.219911221
0.30227286,0.263205019,0.110050023,0.21996192
0.302314439,0.263269521,0.110045762,0.220012309
0.302355484,0.263333742,0.110041406,0.220062386
0.302395997,0.263397679,0.110036956,0.220112151
0.302435979,0.263461334,0.110032411,0.220161604
0.302475432,0.263524704,0.110027773,0.220210743
0.302514356,0.263587791,0.110023043,0.220259569
0.302552752,0.263650593,0.110018221,0.22030808
0.30259062,0.26371311,0.11001331,0.220356277
0.302627961,0.263775341,0.110008309,0.220404159
0.302664775,0.263837286,0.11000322,0.220451725
0.302701062,0.263898944,0.109998045,0.220498974
0.302736824,0.263960314,0.109992784,0.220545907
0.302772062,0.264021396,0.109987439,0.220592522
0.302806777,0.26408219,0.10998201,0.220638819
0.302840971,0.264142697,0.1099765,0.220684799
0.302874645,0.264202917,0.109970908,0.220730461
0.302907801,0.264262849,0.109965237,0.220775803
0.302940441,0.264322494,0.109959487,0.220820826
0.302972566,0.264381851,0.109953658,0.220865528
0.303004178,0.26444092,0.109947751,0.220909909
0.303035281,0.264499702,0.109941768,0.220953969
0.303065873,0.264558196,0.109935708,0.220997707
0.303095958,0.264616402,0.109929573,0.221041122
0.303125536,0.264674321,0.109923364,0.221084216
0.303154607,0.264731952,0.109917082,0.221126986
0.303183172,0.264789294,0.109910729,0.221169433
0.303211233,0.264846347,0.109904305,0.221211556
0.30323879,0.264903111,0.109897812,0.221253354
0.303265845,0.264959584,0.109891251,0.221294826
0.303292399,0.265015768,0.109884623,0.221335974
0.303318455,0.265071662,0.10987793,0.221376796
0.303344013,0.265127265,0.109871171,0.221417293
0.303369075,0.265182579,0.109864349,0.221457463
0.303393643,0.265237603,0.109857463,0.221497307
0.303417718,0.265292336,0.109850515,0.221536824
0.303441303,0.265346778,0.109843505,0.221576013
0.303464398,0.265400928,0.109836434,0.221614873
0.303487006,0.265454787,0.109829302,0.221653406
0.303509127,0.265508355,0.109822109,0.22169161
0.303530764,0.265561631,0.109814856,0.221729486
0.303551916,0.265614616,0.109807543,0.221767033
0.303572584,0.265667309,0.109800171,0.22180425
0.303592769,0.265719709,0.10979274,0.221841139
0.303612471,0.265771817,0.109785251,0.221877697
0.303631692,0.265823631,0.109777704,0.221913924
0.303650432,0.265875152,0.1097701,0.221949822
0.303668695,0.265926379,0.109762439,0.221985389
0.303686481,0.265977313,0.109754722,0.222020626
0.303703793,0.266027953,0.10974695,0.222055532
0.303720632,0.266078299,0.109739124,0.222090108
0.303737,0.266128351,0.109731242,0.222124353
0.303752899,0.266178109,0.109723306,0.222158266
0.303768331,0.266227572,0.109715316,0.222191847
0.303783297,0.26627674,0.109707272,0.222225097
0.303797799,0.266325613,0.109699175,0.222258015
0.303811837,0.26637419,0.109691024,0.222290601
0.303825414,0.266422472,0.109682821,0.222322856
0.303838531,0.266470457,0.109674567,0.22235478
0.303851188,0.266518146,0.109666262,0.222386372
0.303863387,0.266565536,0.109657908,0.222417632
0.30387513,0.266612628,0.109649506,0.222448562
0.30388642,0.266659421,0.109641056,0.222479159
0.303897258,0.266705914,0.10963256,0.222509426
0.303907649,0.266752108,0.109624018,0.222539361
0.303917593,0.266798002,0.109615433,0.222568966
0.303927095,0.266843595,0.109606804,0.22259824
0.303936157,0.266888889,0.109598133,0.222627184
0.303944782,0.266933881,0.10958942,0.222655796
0.303952973,0.266978572,0.109580666,0.222684078
0.303960732,0.26702296,0.109571872,0.222712029
0.303968063,0.267067046,0.109563038,0.22273965
0.303974968,0.267110829,0.109554165,0.22276694
0.303981449,0.267154309,0.109545255,0.2227939
0.303987507,0.267197485,0.109536307,0.222820531
0.303993144,0.267240358,0.109527323,0.222846832
0.303998361,0.267282925,0.109518304,0.222872804
0.304003158,0.267325188,0.109509252,0.222898446
0.304007539,0.267367144,0.109500166,0.222923758
0.304011504,0.267408794,0.109491048,0.222948741
0.304015056,0.267450137,0.1094819,0.222973394
0.304018197,0.267491172,0.109472722,0.222997719
0.304020931,0.267531901,0.109463515,0.223021716
0.304023259,0.267572323,0.10945428,0.223045384
0.304025184,0.267612437,0.109445017,0.223068724
0.30402671,0.267652243,0.109435728,0.223091735
0.304027838,0.267691741,0.109426414,0.223114418
0.304028573,0.267730929,0.109417073,0.223136773
0.304028916,0.267769808,0.109407708,0.2231588
0.304028871,0.267808379,0.109398319,0.223180499
0.304028439,0.267846639,0.109388905,0.223201872
0.304027622,0.267884591,0.109379468,0.223222918
0.304026421,0.267922232,0.109370008,0.223243638
0.304024839,0.267959563,0.109360527,0.223264032
0.304022877,0.267996582,0.109351024,0.2232841
0.304020537,0.26803329,0.1093415,0.223303842
0.304017822,0.268069686,0.109331957,0.223323259
0.304014734,0.26810577,0.109322396,0.223342351
0.304011275,0.268141543,0.109312816,0.22336112
0.304007448,0.268177003,0.10930322,0.223379565
0.304003257,0.268212151,0.109293607,0.223397688
0.303998702,0.268246988,0.109283978,0.223415487
0.303993786,0.268281512,0.109274334,0.223432964
0.303988513,0.268315723,0.109264676,0.223450119
0.303982883,0.268349621,0.109255002,0.223466952
0.303976899,0.268383207,0.109245315,0.223483465
0.303970563,0.268416479,0.109235614,0.223499657
0.303963877,0.268449439,0.109225901,0.223515529
0.30395684,0.268482086,0.109216177,0.223531083
0.303949455,0.268514419,0.109206442,0.223546318
0.303941722,0.268546439,0.109196697,0.223561236
0.303933642,0.268578145,0.109186945,0.223575836
0.303925218,0.268609537,0.109177184,0.223590119
0.303916451,0.268640615,0.109167418,0.223604086
0.303907343,0.268671379,0.109157646,0.223617738
0.303897896,0.268701831,0.10914787,0.223631076
0.303888111,0.26873197,0.10913809,0.2236441
0.303877992,0.268761797,0.109128307,0.22365681
0.30386754,0.268791312,0.109118523,0.223669207
0.303856757,0.268820515,0.109108737,0.223681291
0.303845645,0.268849407,0.10909895,0.223693062
0.303834206,0.268877988,0.109089162,0.223704522
0.303822441,0.268906259,0.109079376,0.223715671
0.303810352,0.268934219,0.10906959,0.22372651
0.303797939,0.268961869,0.109059807,0.223737039
0.303785202,0.268989209,0.109050029,0.223747259
0.303772143,0.269016239,0.109040256,0.223757171
0.303758763,0.269042959,0.109030491,0.223766775
0.303745061,0.269069369,0.109020734,0.223776071
0.303731041,0.269095468,0.109010988,0.22378506
0.303716705,0.269121258,0.109001253,0.223793744
0.303702055,0.269146739,0.108991532,0.223802123
0.303687092,0.26917191,0.108981825,0.223810197
0.30367182,0.269196773,0.108972134,0.223817969
0.30365624,0.269221327,0.10896246,0.223825437
0.303640355,0.269245573,0.108952804,0.223832603
0.303624168,0.269269511,0.108943166,0.223839467
0.303607681,0.269293141,0.108933548,0.22384603
0.303590896,0.269316463,0.10892395,0.223852292
0.303573816,0.269339478,0.108914373,0.223858256
0.303556443,0.269362187,0.108904816,0.223863921
0.303538777,0.269384589,0.108895281,0.22386929
0.303520822,0.269406685,0.108885768,0.223874361
0.303502578,0.269428474,0.108876278,0.223879138
0.303484047,0.269449956,0.108866811,0.223883619
0.303465231,0.269471132,0.108857367,0.223887806
0.303446132,0.269492,0.108847947,0.223891701
0.303426752,0.269512562,0.108838552,0.223895304
0.303407095,0.269532818,0.108829182,0.223898617
0.303387162,0.269552768,0.108819838,0.22390164
0.303366958,0.269572413,0.108810519,0.223904374
0.303346484,0.269591752,0.108801225,0.223906821
0.303325744,0.269610786,0.108791957,0.223908981
0.303304741,0.269629514,0.108782715,0.223910854
0.303283478,0.269647937,0.108773499,0.223912441
0.303261957,0.269666055,0.108764308,0.223913745
0.303240181,0.269683869,0.108755142,0.223914765
0.303218152,0.269701379,0.108746003,0.223915503
0.303195871,0.269718585,0.108736891,0.22391596
0.303173339,0.269735487,0.108727805,0.223916136
0.303150559,0.269752085,0.108718746,0.223916033
0.303127533,0.26976838,0.108709715,0.223915651
0.303104262,0.269784371,0.108700712,0.223914992
0.303080751,0.269800059,0.108691738,0.223914056
0.303057001,0.269815444,0.108682792,0.223912844
0.303033015,0.269830528,0.108673875,0.223911359
0.303008798,0.26984531,0.108664988,0.2239096
0.302984353,0.269859791,0.108656131,0.223907569
0.302959682,0.269873971,0.108647303,0.223905266
0.302934789,0.269887852,0.108638506,0.223902693
0.302909678,0.269901432,0.108629738,0.223899849
0.302884351,0.269914713,0.108620999,0.223896738
0.302858811,0.269927695,0.108612291,0.223893359
0.302833061,0.269940378,0.108603612,0.223889715
0.302807103,0.269952764,0.108594965,0.223885805
0.302780937,0.269964852,0.108586349,0.223881633
0.302754566,0.269976643,0.108577765,0.223877197
0.302727992,0.269988137,0.108569214,0.223872499
0.302701216,0.269999334,0.108560697,0.223867541
0.30267424,0.270010234,0.108552214,0.223862323
0.302647068,0.270020839,0.108543766,0.223856848
0.302619702,0.270031148,0.108535353,0.223851115
0.302592144,0.270041162,0.108526976,0.223845127
0.302564397,0.270050883,0.108518636,0.223838884
0.302536463,0.270060311,0.108510331,0.223832388
0.302508347,0.270069445,0.108502064,0.22382564
0.30248005,0.270078286,0.108493833,0.22381864
0.302451576,0.270086835,0.108485639,0.22381139
0.302422926,0.270095092,0.108477481,0.223803892
0.302394104,0.270103058,0.108469359,0.223796146
0.302365111,0.270110732,0.108461273,0.223788154
0.302335949,0.270118116,0.108453223,0.223779918
0.302306619,0.270125209,0.108445209,0.22377144
0.302277123,0.270132012,0.10843723,0.22376272
0.302247461,0.270138525,0.108429287,0.22375376
0.302217634,0.270144747,0.108421379,0.223744561
0.302187647,0.27015068,0.108413506,0.223735125
0.302157499,0.270156323,0.108405669,0.223725454
0.302127194,0.270161679,0.108397867,0.22371555
0.302096735,0.270166747,0.1083901,0.223705413
0.302066123,0.270171528,0.108382368,0.223695046
0.302035361,0.270176023,0.10837467,0.22368445
0.302004451,0.270180233,0.108367007,0.223673626
0.301973397,0.270184157,0.108359377,0.223662574
0.301942201,0.270187796,0.108351779,0.223651298
0.301910865,0.270191151,0.108344214,0.223639798
0.30187939,0.270194224,0.10833668,0.223628076
0.301847779,0.270197014,0.108329179,0.223616133
0.301816034,0.270199522,0.108321709,0.223603971
0.301784154,0.270201749,0.108314272,0.223591592
0.301752143,0.270203695,0.108306868,0.223578997
0.301720002,0.27020536,0.108299496,0.223566187
0.301687733,0.270206745,0.108292156,0.223553163
0.301655338,0.270207852,0.108284849,0.223539928
0.301622821,0.27020868,0.108277576,0.223526483
0.301590182,0.270209231,0.108270335,0.223512829
0.301557424,0.270209505,0.108263128,0.223498969
0.301524551,0.270209505,0.108255953,0.223484902
0.301491563,0.270209229,0.108248811,0.223470632
0.301458465,0.270208679,0.108241702,0.223456157
0.301425257,0.270207856,0.108234624,0.223441482
0.301391942,0.270206759,0.108227578,0.223426605
0.301358522,0.27020539,0.108220563,0.223411531
0.301324998,0.27020375,0.108213578,0.223396259
0.301291371,0.270201838,0.108206625,0.223380792
0.301257643,0.270199656,0.108199702,0.223365131
0.301223813,0.270197204,0.108192811,0.223349278
0.301189883,0.270194482,0.10818595,0.223333234
0.301155854,0.270191491,0.108179121,0.223317
0.301121729,0.27018823,0.108172323,0.223300579
0.301087509,0.2701847,0.108165556,0.223283971
0.301053198,0.270180903,0.10815882,0.223267179
0.301018797,0.270176839,0.108152116,0.223250205
0.300984309,0.270172509,0.108145443,0.22323305
0.300949736,0.270167913,0.108138801,0.223215715
0.300915082,0.270163052,0.10813219,0.223198202
0.300880349,0.270157926,0.10812561,0.223180512
0.30084554,0.270152537,0.108119059,0.223162646
0.300810658,0.270146884,0.108112538,0.223144607
0.300775703,0.270140969,0.108106047,0.223126395
0.300740679,0.270134792,0.108099584,0.223108014
0.300705587,0.270128356,0.108093149,0.223089464
0.300670427,0.27012166,0.108086744,0.223070747
0.3006352,0.270114705,0.108080366,0.223051865
0.300599909,0.270107492,0.108074017,0.223032819
0.300564554,0.270100021,0.108067697,0.22301361
0.300529137,0.270092294,0.108061405,0.222994241
0.300493661,0.270084312,0.108055141,0.222974713
0.300458128,0.270076076,0.108048906,0.222955028
0.300422539,0.270067587,0.108042699,0.222935188
0.300386896,0.270058847,0.108036521,0.222915194
0.300351203,0.270049856,0.108030371,0.222895048
0.30031546,0.270040615,0.108024249,0.222874751
0.300279669,0.270031126,0.108018155,0.222854305
0.300243833,0.270021389,0.108012088,0.22283371
0.300207952,0.270011406,0.108006049,0.222812969
