0.173370866,0.16236729,0.528856938,0.135404906
0.173360887,0.162524411,0.528686369,0.135428333
0.173350858,0.162681297,0.528516274,0.135451571
0.173340783,0.162837943,0.528346654,0.135474621
0.173330664,0.162994342,0.52817751,0.135497485
0.173320505,0.163150487,0.528008843,0.135520165
0.173310308,0.163306374,0.527840655,0.135542663
0.173300076,0.163461995,0.527672946,0.135564983
0.173289813,0.163617344,0.527505717,0.135587126
0.173279521,0.163772414,0.527338968,0.135609097
0.173269203,0.163927198,0.5271727,0.135630899
0.173258863,0.16408169,0.527006912,0.135652535
0.173248503,0.164235882,0.526841604,0.135674011
0.173238126,0.164389769,0.526676776,0.135695329
0.173227736,0.164543342,0.526512428,0.135716494
0.173217335,0.164696595,0.52634856,0.13573751
0.173206926,0.164849519,0.526185173,0.135758382
0.173196511,0.165002109,0.526022266,0.135779114
0.173186092,0.165154356,0.525859841,0.135799711
0.173175672,0.165306255,0.525697898,0.135820176
0.173165251,0.165457796,0.525536439,0.135840513
0.173154833,0.165608975,0.525375465,0.135860727
0.173144417,0.165759784,0.525214978,0.135880821
0.173134007,0.165910216,0.525054979,0.135900797
0.173123602,0.166060266,0.524895472,0.13592066
0.173113205,0.166209925,0.524736458,0.135940412
0.173102814,0.166359188,0.524577942,0.135960056
0.173092431,0.166508047,0.524419928,0.135979594
0.173082056,0.166656495,0.52426242,0.135999029
0.173071689,0.166804525,0.524105423,0.136018364
0.173061331,0.166952129,0.52394894,0.1360376
0.173050983,0.167099301,0.523792977,0.136056739
0.173040648,0.167246032,0.523637535,0.136075786
0.173030327,0.167392314,0.523482617,0.136094742
0.173020023,0.16753814,0.523328225,0.136113612
0.17300974,0.167683502,0.523174358,0.1361324
0.17299948,0.167828391,0.523021017,0.136151113
0.172989246,0.1679728,0.522868199,0.136169755
0.172979042,0.16811672,0.522715904,0.136188335
0.172968869,0.168260142,0.52256413,0.136206858
0.172958731,0.168403059,0.522412877,0.136225333
0.172948628,0.168545459,0.522262144,0.136243768
0.172938565,0.168687335,0.522111931,0.136262169
0.172928542,0.168828678,0.521962236,0.136280544
0.172918563,0.168969476,0.521813059,0.136298902
0.172908631,0.169109722,0.5216644,0.136317247
0.172898748,0.169249406,0.521516258,0.136335588
0.172888917,0.169388517,0.521368636,0.13635393
0.172879141,0.169527047,0.521221532,0.136372279
0.172869422,0.169664987,0.521074948,0.136390643
0.172859764,0.169802328,0.520928883,0.136409025
0.17285017,0.16993906,0.520783337,0.136427434
0.172840644,0.170075175,0.520638308,0.136445873
0.172831192,0.170210663,0.520493797,0.136464348
0.172821817,0.170345516,0.520349802,0.136482865
0.172812526,0.170479724,0.520206322,0.136501429
0.172803322,0.170613278,0.520063356,0.136520044
0.17279421,0.170746169,0.519920905,0.136538715
0.172785196,0.17087839,0.519778967,0.136557447
0.172776285,0.171009933,0.51963754,0.136576242
0.172767482,0.171140789,0.519496625,0.136595105
0.172758791,0.171270949,0.519356222,0.136614038
0.172750219,0.171400407,0.519216331,0.136633044
0.172741768,0.171529152,0.519076955,0.136652126
0.172733442,0.171657174,0.518938098,0.136671285
0.172725246,0.171784466,0.518799764,0.136690524
0.172717183,0.171911016,0.518661958,0.136709843
0.172709254,0.172036816,0.518524688,0.136729243
0.172701462,0.172161854,0.51838796,0.136748725
0.172693808,0.17228612,0.518251783,0.136768289
0.172686295,0.172409605,0.518116165,0.136787935
0.172678924,0.172532297,0.517981114,0.136807665
0.172671697,0.172654186,0.517846637,0.136827479
0.172664616,0.172775264,0.517712743,0.136847376
0.17265768,0.172895521,0.517579441,0.136867358
0.172650891,0.173014947,0.517446738,0.136887424
0.17264425,0.173133533,0.517314643,0.136907574
0.172637755,0.173251269,0.517183166,0.136927809
0.172631408,0.173368146,0.517052317,0.136948129
0.172625208,0.173484154,0.516922104,0.136968535
0.172619153,0.173599283,0.516792537,0.136989026
0.172613245,0.173713524,0.516663626,0.137009604
0.172607482,0.173826868,0.516535382,0.137030268
0.172601864,0.173939305,0.516407814,0.137051017
0.17259639,0.174050826,0.516280932,0.137071852
0.17259106,0.174161421,0.516154747,0.137092772
0.172585873,0.174271083,0.516029268,0.137113777
0.172580827,0.174379802,0.515904505,0.137134865
0.172575923,0.174487572,0.515780469,0.137156036
0.172571159,0.174594385,0.515657167,0.137177289
0.172566533,0.174700233,0.515534609,0.137198625
0.172562044,0.17480511,0.515412803,0.137220043
0.172557692,0.174909008,0.515291756,0.137241544
0.172553474,0.175011922,0.515171477,0.137263127
0.172549392,0.175113843,0.515051971,0.137284794
0.172545443,0.175214767,0.514933245,0.137306545
0.172541626,0.175314687,0.514815304,0.137328383
0.172537941,0.175413596,0.514698153,0.13735031
0.172534386,0.175511488,0.514581799,0.137372327
0.172530959,0.175608357,0.514466248,0.137394437
0.172527659,0.175704196,0.514351503,0.137416643
0.172524484,0.175798999,0.514237569,0.137438948
0.172521433,0.175892761,0.51412445,0.137461356
0.172518504,0.175985476,0.514012149,0.137483871
0.172515696,0.17607714,0.513900668,0.137506496
0.172513007,0.176167748,0.513790009,0.137529237
0.172510436,0.176257295,0.513680173,0.137552096
0.172507982,0.176345778,0.513571163,0.137575077
0.172505645,0.176433192,0.513462977,0.137598186
0.172503423,0.176519534,0.513355617,0.137621426
0.172501317,0.176604799,0.513249083,0.1376448
0.172499327,0.176688985,0.513143375,0.137668313
0.172497452,0.17677209,0.513038491,0.137691967
0.172495693,0.176854109,0.512934432,0.137715766
0.172494051,0.17693504,0.512831197,0.137739713
0.172492525,0.17701488,0.512728785,0.13776381
0.172491116,0.177093626,0.512627196,0.137788061
0.172489825,0.177171275,0.512526431,0.137812469
0.172488649,0.177247825,0.51242649,0.137837036
0.17248759,0.177323273,0.512327373,0.137861764
0.172486646,0.177397616,0.512229082,0.137886655
0.172485816,0.177470853,0.512131618,0.137911712
0.1724851,0.177542982,0.512034982,0.137936936
0.172484496,0.177614001,0.511939175,0.137962328
0.172484002,0.177683909,0.511844197,0.137987891
0.172483618,0.177752705,0.51175005,0.138013627
0.17248334,0.177820388,0.511656734,0.138039538
0.172483168,0.177886956,0.51156425,0.138065626
0.172483099,0.177952408,0.5114726,0.138091893
0.172483131,0.178016744,0.511381785,0.13811834
0.172483261,0.17807996,0.51129181,0.138144969
0.172483486,0.178142054,0.511202679,0.13817178
0.172483802,0.178203025,0.511114399,0.138198773
0.172484206,0.17826287,0.511026975,0.138225949
0.172484693,0.178321586,0.510940415,0.138253307
0.172485259,0.17837917,0.510854724,0.138280848
0.1724859,0.17843562,0.510769908,0.138308572
0.172486612,0.178490933,0.510685975,0.13833648
0.172487389,0.178545106,0.510602929,0.138364575
0.172488225,0.178598138,0.510520779,0.138392858
0.172489116,0.178650023,0.51043953,0.138421331
0.172490054,0.17870076,0.51035919,0.138449996
0.172491033,0.178750346,0.510279767,0.138478854
0.172492048,0.178798777,0.510201269,0.138507906
0.172493092,0.178846051,0.510123702,0.138537155
0.172494158,0.178892166,0.510047075,0.138566602
0.172495238,0.178937119,0.509971396,0.138596247
0.172496325,0.178980908,0.509896677,0.138626091
0.172497411,0.179023529,0.509822927,0.138656134
0.172498488,0.179064978,0.509750158,0.138686375
0.17249955,0.179105252,0.509678383,0.138716815
0.172500588,0.179144347,0.509607614,0.138747451
0.172501596,0.179182258,0.509537863,0.138778283
0.172502566,0.179218982,0.509469142,0.13880931
0.172503493,0.179254514,0.509401463,0.13884053
0.172504371,0.179288848,0.509334839,0.138871942
0.172505194,0.17932198,0.50926928,0.138903546
0.172505956,0.179353905,0.5092048,0.13893534
0.172506653,0.179384618,0.509141408,0.138967322
0.172507279,0.179414113,0.509079117,0.13899949
0.172507831,0.179442387,0.509017939,0.139031844
0.172508302,0.179469435,0.508957884,0.13906438
0.172508688,0.179495252,0.508898963,0.139097097
0.172508985,0.179519834,0.508841188,0.139129994
0.17250919,0.179543177,0.508784567,0.139163067
0.172509297,0.179565279,0.50872911,0.139196314
0.172509304,0.179586136,0.508674826,0.139229734
0.172509208,0.179605743,0.508621723,0.139263326
0.172509006,0.179624098,0.508569809,0.139297087
0.172508696,0.179641197,0.508519091,0.139331016
0.172508275,0.179657036,0.508469577,0.139365111
0.172507742,0.179671613,0.508421272,0.139399373
0.172507094,0.179684926,0.508374182,0.139433798
0.17250633,0.179696972,0.508328312,0.139468386
0.172505448,0.17970775,0.508283667,0.139503135
0.172504447,0.17971726,0.508240249,0.139538044
0.172503326,0.179725502,0.508198062,0.139573111
0.172502083,0.179732474,0.508157109,0.139608334
0.172500718,0.179738179,0.508117392,0.139643712
0.172499228,0.179742616,0.508078914,0.139679242
0.172497614,0.179745786,0.508041678,0.139714923
0.172495873,0.179747689,0.508005686,0.139750751
0.172494006,0.179748329,0.507970941,0.139786724
0.17249201,0.179747705,0.507937445,0.13982284
0.172489886,0.179745821,0.507905198,0.139859095
0.172487631,0.179742679,0.507874204,0.139895486
0.172485245,0.17973828,0.507844464,0.139932011
0.172482728,0.179732627,0.50781598,0.139968665
0.172480077,0.179725722,0.507788755,0.140005446
0.172477291,0.179717568,0.507762791,0.14004235
0.172474371,0.179708166,0.507738089,0.140079374
0.172471316,0.179697519,0.50771465,0.140116515
0.172468125,0.179685629,0.507692477,0.140153769
0.172464799,0.179672499,0.507671568,0.140191133
0.172461339,0.179658132,0.507651926,0.140228604
0.172457745,0.17964253,0.507633549,0.140266176
0.172454018,0.179625697,0.507616437,0.140303848
0.17245016,0.179607636,0.50760059,0.140341614
0.172446172,0.17958835,0.507586006,0.140379472
0.172442055,0.179567842,0.507572685,0.140417419
0.172437809,0.179546116,0.507560624,0.140455451
0.172433437,0.179523174,0.507549821,0.140493568
0.172428937,0.179499022,0.507540274,0.140531767
0.172424311,0.17947366,0.507531982,0.140570047
0.172419558,0.179447094,0.507524943,0.140608405
0.172414677,0.179419326,0.507519158,0.140646839
0.172409668,0.179390359,0.507514626,0.140685347
0.172404529,0.179360195,0.507511349,0.140723926
0.172399261,0.179328839,0.507509327,0.140762573
0.172393862,0.179296291,0.507508563,0.140801284
0.172388332,0.179262554,0.50750906,0.140840055
0.172382667,0.179227629,0.507510824,0.140878881
0.172376866,0.179191515,0.507513863,0.140917756
0.172370924,0.179154213,0.507518186,0.140956676
0.17236484,0.179115723,0.507523803,0.140995634
0.172358609,0.179076043,0.507530724,0.141034624
0.172352227,0.179035175,0.507538957,0.14107364
0.172345691,0.178993119,0.507548512,0.141112678
0.172338998,0.178949876,0.507559396,0.141151731
0.172332143,0.178905448,0.507571616,0.141190794
0.172325124,0.178859837,0.507585178,0.141229861
0.172317938,0.178813045,0.507600091,0.141268927
0.172310581,0.178765074,0.507616358,0.141307987
0.17230305,0.178715927,0.507633988,0.141347035
0.172295344,0.178665606,0.507652984,0.141386065
0.17228746,0.178614114,0.507673352,0.141425074
0.172279396,0.178561453,0.507695096,0.141464055
0.172271151,0.178507627,0.507718219,0.141503003
0.172262723,0.17845264,0.507742724,0.141541913
0.172254112,0.178396495,0.507768613,0.14158078
0.172245317,0.178339197,0.507795887,0.141619599
0.172236339,0.17828075,0.507824546,0.141658365
0.172227175,0.178221161,0.507854591,0.141697073
0.172217827,0.178160436,0.507886019,0.141735718
0.172208294,0.17809858,0.507918831,0.141774295
0.172198577,0.178035603,0.507953021,0.1418128
0.172188673,0.17797151,0.507988588,0.141851229
0.172178585,0.177906309,0.508025528,0.141889578
0.17216831,0.177840008,0.508063838,0.141927843
0.172157849,0.177772615,0.508103515,0.141966022
0.172147201,0.177704136,0.508144554,0.142004109
0.172136366,0.17763458,0.508186953,0.142042102
0.172125343,0.177563955,0.508230706,0.142079996
0.172114132,0.177492269,0.508275809,0.14211779
0.172102732,0.177419529,0.50832226,0.14215548
0.172091142,0.177345743,0.508370053,0.142193062
0.172079362,0.177270917,0.508419186,0.142230534
0.172067391,0.17719506,0.508469657,0.142267892
0.172055227,0.17711818,0.508521463,0.142305131
0.172042868,0.177040282,0.508574602,0.142342249
0.172030312,0.176961375,0.508629073,0.14237924
0.172017557,0.176881466,0.508684875,0.142416101
0.172004602,0.176800564,0.508742005,0.142452828
0.171991445,0.176718676,0.508800462,0.142489417
0.171978083,0.176635812,0.508860242,0.142525864
0.171964515,0.176551978,0.508921342,0.142562164
0.17195074,0.176467186,0.508983759,0.142598315
0.171936755,0.176381445,0.509047488,0.142634312
0.171922558,0.176294764,0.509112526,0.142670152
0.171908147,0.176207154,0.509178866,0.142705833
0.171893521,0.176118626,0.509246503,0.14274135
0.171878676,0.17602919,0.509315432,0.142776702
0.171863611,0.175938855,0.509385648,0.142811886
0.171848324,0.175847631,0.509457144,0.142846901
0.171832812,0.175755529,0.509529915,0.142881745
0.171817072,0.175662557,0.509603954,0.142916416
0.171801104,0.175568728,0.509679255,0.142950914
0.171784903,0.175474049,0.509755811,0.142985237
0.171768468,0.175378533,0.509833613,0.143019386
0.171751797,0.175282189,0.509912654,0.14305336
0.171734887,0.175185028,0.509992927,0.143087159
0.171717735,0.17508706,0.510074422,0.143120783
0.171700341,0.174988295,0.510157133,0.143154231
0.1716827,0.174888745,0.510241053,0.143187502
0.17166481,0.174788417,0.510326176,0.143220596
0.171646669,0.174687323,0.510412497,0.143253511
0.171628272,0.174585471,0.510500012,0.143286245
0.171609617,0.174482871,0.510588714,0.143318799
0.171590701,0.17437953,0.5106786,0.143351169
0.171571521,0.174275459,0.510769664,0.143383355
0.171552075,0.174170667,0.510861902,0.143415357
0.171532359,0.174065163,0.510955306,0.143447172
0.171512371,0.173958957,0.511049874,0.143478799
0.171492108,0.173852058,0.511145598,0.143510236
0.171471568,0.173744476,0.511242475,0.143541481
0.171450749,0.173636219,0.511340499,0.143572533
0.171429648,0.173527295,0.511439666,0.14360339
0.171408265,0.173417715,0.511539971,0.143634049
0.171386596,0.173307487,0.511641407,0.14366451
0.171364641,0.173196621,0.511743969,0.143694769
0.171342399,0.173085124,0.511847652,0.143724825
0.171319867,0.172973006,0.511952451,0.143754676
0.171297045,0.172860275,0.51205836,0.14378432
0.17127393,0.17274694,0.512165377,0.143813753
0.171250521,0.172633007,0.512273498,0.143842974
0.171226818,0.172518484,0.512382719,0.143871979
0.171202819,0.172403378,0.512493038,0.143900765
0.171178522,0.172287697,0.51260445,0.14392933
0.171153928,0.172171446,0.512716954,0.143957672
0.171129033,0.172054631,0.512830549,0.143985787
0.171103836,0.171937257,0.512945234,0.144013672
0.171078336,0.171819331,0.513061009,0.144041325
0.171052528,0.171700857,0.513177872,0.144068742
0.171026411,0.171581842,0.513295825,0.144095921
0.170999981,0.171462291,0.513414868,0.14412286
0.170973234,0.171342207,0.513535003,0.144149555
0.170946166,0.171221594,0.513656234,0.144176006
0.170918773,0.171100456,0.513778563,0.144202208
0.170891049,0.170978794,0.513901996,0.144228161
0.17086299,0.170856612,0.514026536,0.144253862
0.170834593,0.170733913,0.514152185,0.144279309
0.170805855,0.170610699,0.514278945,0.1443045
0.170776774,0.170486975,0.514406816,0.144329435
0.170747346,0.170362742,0.514535797,0.144354115
0.170717569,0.170238005,0.514665886,0.14437854
0.170687441,0.170112766,0.514797082,0.144402711
0.170656959,0.169987029,0.514929382,0.14442663
0.17062612,0.169860799,0.515062783,0.144450298
0.170594922,0.169734079,0.515197281,0.144473719
0.170563363,0.169606874,0.51533287,0.144496893
0.17053144,0.169479189,0.515469548,0.144519823
0.170499152,0.169351028,0.515607309,0.144542511
0.170466497,0.169222395,0.515746148,0.14456496
0.170433473,0.169093295,0.51588606,0.144587172
0.170400079,0.168963731,0.516027039,0.14460915
0.170366313,0.168833709,0.516169079,0.144630899
0.170332173,0.168703233,0.516312172,0.144652422
0.170297656,0.168572309,0.51645631,0.144673725
0.170262762,0.16844094,0.516601487,0.144694811
0.170227488,0.168309134,0.516747693,0.144715685
0.170191834,0.168176895,0.51689492,0.144736351
0.170155797,0.168044228,0.517043162,0.144756812
0.170119377,0.167911139,0.517192411,0.144777073
0.170082572,0.167777632,0.51734266,0.144797137
0.170045381,0.167643712,0.517493902,0.144817006
0.170007804,0.167509383,0.51764613,0.144836683
0.16996984,0.16737465,0.517799337,0.144856173
0.169931489,0.167239517,0.517953518,0.144875477
0.16989275,0.167103986,0.518108666,0.144894598
0.169853621,0.166968061,0.518264779,0.144913539
0.169814101,0.166831744,0.518421855,0.1449323
0.169774188,0.166695038,0.51857989,0.144950883
0.169733881,0.166557946,0.518738883,0.14496929
0.169693177,0.166420472,0.518898831,0.14498752
0.169652076,0.166282617,0.519059731,0.145005576
0.169610577,0.166144386,0.519221579,0.145023458
0.169568678,0.166005783,0.519384371,0.145041168
0.169526377,0.165866813,0.519548104,0.145058706
0.169483674,0.16572748,0.519712772,0.145076074
0.169440565,0.165587789,0.519878373,0.145093273
0.169397051,0.165447744,0.520044902,0.145110304
0.169353129,0.165307349,0.520212356,0.145127165
0.169308797,0.16516661,0.520380734,0.145143859
0.169264053,0.16502553,0.520550032,0.145160385
0.169218895,0.164884112,0.52072025,0.145176742
0.169173319,0.164742362,0.520891388,0.14519293
0.169127323,0.164600281,0.521063449,0.145208948
0.169080902,0.164457873,0.521236432,0.145224793
0.169034053,0.164315141,0.52141034,0.145240466
0.168986773,0.164172089,0.521585174,0.145255964
0.168939059,0.164028718,0.521760934,0.145271289
0.168890906,0.163885033,0.521937622,0.145286439
0.168842314,0.163741036,0.522115236,0.145301415
0.168793278,0.16359673,0.522293775,0.145316217
0.168743798,0.163452117,0.522473239,0.145330846
0.16869387,0.163307201,0.522653626,0.145345303
0.168643492,0.163161985,0.522834933,0.14535959
0.168592663,0.163016473,0.523017157,0.145373707
0.168541381,0.162870671,0.523200293,0.145387656
0.168489643,0.162724582,0.523384336,0.145401439
0.168437448,0.162578212,0.523569282,0.145415058
0.168384795,0.162431564,0.523755125,0.145428515
0.168331683,0.162284644,0.52394186,0.145441813
0.168278111,0.162137455,0.524129479,0.145454954
0.16822408,0.161990003,0.524317977,0.14546794
0.168169589,0.16184229,0.524507348,0.145480773
0.168114638,0.161694323,0.524697584,0.145493455
0.168059229,0.161546105,0.524888679,0.145505987
0.168003362,0.161397641,0.525080625,0.145518372
0.167947037,0.161248938,0.525273415,0.14553061
0.167890254,0.161100001,0.525467041,0.145542704
0.167833015,0.160950836,0.525661496,0.145554654
0.167775319,0.160801448,0.525856771,0.145566462
0.167717168,0.160651844,0.52605286,0.145578128
0.167658563,0.160502028,0.526249755,0.145589654
0.167599503,0.160352008,0.526447448,0.14560104
0.167539992,0.160201787,0.526645933,0.145612288
0.167480029,0.160051372,0.5268452,0.145623399
0.167419617,0.159900768,0.527045242,0.145634373
0.167358757,0.159749979,0.52724605,0.145645213
0.167297452,0.159599011,0.527447616,0.14565592
0.167235703,0.159447869,0.527649932,0.145666496
0.167173514,0.159296557,0.527852988,0.145676941
0.167110887,0.159145081,0.528056773,0.145687259
0.167047826,0.158993445,0.528261278,0.145697451
0.166984335,0.158841654,0.52846649,0.145707521
0.166920421,0.158689714,0.528672396,0.145717469
0.166856089,0.158537631,0.528878981,0.145727299
0.166791347,0.158385409,0.529086233,0.145737012
0.166726202,0.158233053,0.529294137,0.145746609
0.166660661,0.158080568,0.529502679,0.145756093
0.166594731,0.157927958,0.529711846,0.145765465
0.16652842,0.157775229,0.529921625,0.145774726
0.166461735,0.157622383,0.530132004,0.145783878
0.166394682,0.157469426,0.530342971,0.145792921
0.166327268,0.15731636,0.530554515,0.145801857
0.166259501,0.157163189,0.530766624,0.145810686
0.166191386,0.157009916,0.530979288,0.14581941
0.166122931,0.156856545,0.531192493,0.145828031
0.166054142,0.15670308,0.53140623,0.145836549
0.165985027,0.156549522,0.531620485,0.145844965
0.165915593,0.156395877,0.531835247,0.145853282
0.165845847,0.156242147,0.532050504,0.145861501
0.165775797,0.156088335,0.532266243,0.145869625
0.165705449,0.155934444,0.532482451,0.145877655
0.165634812,0.155780477,0.532699116,0.145885595
0.165563893,0.155626435,0.532916226,0.145893446
0.1654927,0.155472322,0.533133767,0.145901211
0.165421242,0.15531814,0.533351726,0.145908892
0.165349526,0.155163894,0.533570089,0.145916491
0.165277561,0.155009585,0.533788843,0.145924011
0.165205356,0.154855216,0.534007974,0.145931454
0.16513292,0.154700791,0.534227468,0.145938822
0.165060261,0.154546311,0.534447313,0.145946116
0.164987388,0.154391779,0.534667494,0.145953339
0.164914312,0.154237198,0.534887998,0.145960492
0.164841042,0.154082569,0.535108812,0.145967577
0.164767587,0.153927895,0.535329921,0.145974597
0.164693958,0.153773178,0.535551311,0.145981553
0.164620165,0.153618422,0.535772967,0.145988447
0.164546218,0.153463628,0.535994875,0.145995279
0.164472129,0.1533088,0.536217017,0.146002053
0.164397911,0.15315394,0.53643938,0.146008769
0.164323574,0.152999051,0.536661945,0.14601543
0.164249132,0.152844136,0.536884696,0.146022036
0.164174599,0.152689196,0.537107616,0.146028589
0.164099989,0.152534233,0.537330687,0.146035091
0.164025316,0.15237925,0.537553893,0.146041541
0.163950595,0.152224249,0.537777214,0.146047942
0.163875842,0.15206923,0.538000634,0.146054294
0.163801071,0.151914196,0.538224137,0.146060597
0.163726297,0.151759147,0.538447705,0.146066851
0.163651535,0.151604084,0.538671324,0.146073057
0.163576799,0.151449009,0.538894976,0.146079215
0.163502104,0.151293924,0.539118647,0.146085325
0.163427465,0.151138829,0.539342319,0.146091387
0.163352895,0.150983727,0.539565978,0.1460974
0.163278408,0.15082862,0.539789606,0.146103366
0.16320402,0.150673512,0.540013187,0.146109282
0.163129743,0.150518403,0.540236703,0.146115151
0.163055593,0.150363298,0.540460137,0.146120973
0.162981583,0.150208197,0.540683472,0.146126748
0.162907729,0.150053104,0.540906689,0.146132478
0.162834044,0.14989802,0.541129772,0.146138164
0.162760544,0.149742947,0.541352703,0.146143806
0.162687243,0.149587889,0.541575464,0.146149405
0.162614154,0.149432846,0.541798039,0.146154961
0.162541292,0.149277821,0.54202041,0.146160477
0.162468671,0.149122816,0.542242562,0.146165952
0.162396303,0.148967832,0.542464477,0.146171388
0.162324201,0.148812872,0.54268614,0.146176787
0.162252378,0.148657936,0.542907534,0.146182151
0.162180848,0.148503027,0.543128644,0.146187481
0.162109621,0.148348146,0.543349454,0.146192779
0.16203871,0.148193295,0.543569949,0.146198046
0.161968125,0.148038476,0.543790115,0.146203283
0.161897877,0.147883692,0.544009938,0.146208493
0.161827978,0.147728944,0.544229403,0.146213676
0.161758436,0.147574235,0.544448496,0.146218833
0.161689261,0.147419568,0.544667205,0.146223966
0.161620462,0.147264944,0.544885519,0.146229075
0.161552047,0.147110366,0.545103427,0.14623416
0.161484024,0.146955834,0.545320919,0.146239222
0.161416402,0.146801351,0.545537986,0.146244262
0.161349186,0.146646918,0.545754617,0.146249279
0.161282384,0.146492538,0.545970804,0.146254274
0.161216004,0.146338211,0.546186536,0.146259249
0.161150052,0.146183939,0.546401806,0.146264202
0.161084534,0.146029725,0.546616605,0.146269136
0.161019457,0.145875569,0.546830925,0.146274049
0.160954827,0.145721474,0.547044758,0.146278942
0.160890648,0.145567441,0.547258097,0.146283814
0.160826929,0.145413473,0.547470934,0.146288665
0.160763674,0.145259571,0.54768326,0.146293495
0.160700889,0.14510574,0.547895068,0.146298304
0.160638581,0.144951979,0.54810635,0.146303091
0.160576754,0.144798292,0.548317099,0.146307855
0.160515415,0.144644679,0.54852731,0.146312596
0.160454568,0.144491144,0.548736975,0.146317313
0.160394219,0.144337689,0.548946089,0.146322004
0.160334371,0.144184314,0.549154646,0.146326668
0.160275031,0.144031024,0.549362641,0.146331304
0.160216202,0.143877818,0.549570071,0.146335909
0.16015789,0.143724698,0.54977693,0.146340481
0.160100099,0.143571665,0.549983219,0.146345017
0.160042832,0.14341872,0.550188933,0.146349515
0.159986095,0.143265862,0.550394072,0.146353971
0.159929891,0.143113093,0.550598633,0.146358383
0.159874224,0.142960413,0.550802615,0.146362748
0.159819098,0.142807821,0.551006017,0.146367064
0.159764517,0.142655317,0.551208838,0.146371328
0.159710486,0.142502902,0.551411074,0.146375539
0.159657009,0.142350575,0.551612725,0.146379692
0.159604091,0.142198336,0.551813788,0.146383785
0.159551738,0.142046183,0.552014263,0.146387816
0.159499954,0.141894117,0.552214148,0.14639178
0.159448748,0.141742136,0.552413441,0.146395675
0.159398124,0.141590237,0.55261214,0.146399498
0.159348092,0.14143842,0.552810242,0.146403246
0.159298657,0.141286682,0.553007745,0.146406916
0.159249828,0.141135021,0.553204646,0.146410505
0.159201611,0.140983435,0.553400943,0.146414011
0.159154013,0.140831923,0.553596633,0.146417431
0.15910704,0.140680483,0.553791714,0.146420763
0.1590607,0.140529114,0.553986181,0.146424005
0.159014998,0.140377816,0.55418003,0.146427156
0.15896994,0.140226588,0.554373256,0.146430216
0.158925531,0.140075431,0.554565855,0.146433183
0.158881778,0.139924345,0.554757821,0.146436056
0.158838684,0.13977333,0.554949151,0.146438835
0.158796256,0.139622387,0.555139838,0.146441518
0.158754498,0.139471518,0.555329879,0.146444105
0.158713415,0.139320723,0.555519267,0.146446594
0.158673011,0.139170004,0.555707998,0.146448987
0.15863329,0.139019362,0.555896065,0.146451283
0.158594257,0.138868798,0.556083463,0.146453481
0.158555915,0.138718314,0.556270187,0.146455584
0.158518268,0.13856791,0.556456231,0.14645759
0.158481321,0.138417589,0.556641589,0.146459501
0.158445078,0.138267351,0.556826255,0.146461316
0.158409541,0.1381172,0.557010222,0.146463036
0.158374716,0.137967138,0.557193485,0.14646466
0.158340607,0.137817168,0.557376037,0.146466189
0.158307217,0.137667291,0.557557869,0.146467622
0.158274553,0.137517512,0.557738976,0.146468959
0.15824262,0.137367832,0.557919349,0.146470199
0.158211423,0.137218254,0.558098979,0.146471343
0.15818097,0.137068782,0.558277857,0.146472391
0.158151266,0.136919418,0.558455974,0.146473341
0.158122318,0.136770165,0.558633323,0.146474194
0.15809413,0.136621025,0.558809896,0.146474949
0.158066707,0.136472001,0.558985687,0.146475605
0.158040054,0.136323095,0.55916069,0.146476162
0.158014175,0.13617431,0.559334898,0.146476618
0.157989074,0.136025647,0.559508306,0.146476973
0.157964757,0.135877109,0.559680907,0.146477228
0.157941226,0.135728698,0.559852695,0.146477381
0.157918486,0.135580417,0.560023663,0.146477434
0.157896539,0.135432269,0.560193805,0.146477387
0.15787539,0.135284257,0.560363114,0.146477239
0.157855042,0.135136383,0.560531582,0.146476993
0.157835496,0.134988649,0.560699206,0.146476648
0.157816757,0.134841058,0.560865979,0.146476206
0.157798827,0.134693611,0.561031895,0.146475666
0.157781707,0.134546311,0.561196951,0.146475031
0.157765399,0.134399158,0.561361142,0.1464743
0.157749903,0.134252157,0.561524465,0.146473475
0.15773522,0.134105307,0.561686917,0.146472555
0.157721349,0.133958613,0.561848497,0.146471541
0.157708289,0.133812075,0.562009203,0.146470433
0.157696041,0.133665695,0.562169035,0.14646923
0.157684603,0.133519475,0.56232799,0.146467932
0.157673976,0.133373416,0.562486069,0.146466539
0.157664158,0.133227521,0.56264327,0.14646505
0.157655149,0.133081791,0.562799594,0.146463466
0.157646949,0.132936228,0.562955039,0.146461784
0.157639555,0.132790833,0.563109606,0.146460007
0.157632968,0.132645607,0.563263293,0.146458132
0.157627187,0.132500554,0.5634161,0.14645616
0.157622209,0.132355674,0.563568026,0.14645409
0.157618034,0.132210971,0.563719072,0.146451922
0.15761466,0.132066447,0.563869237,0.146449656
0.157612087,0.131922104,0.564018518,0.146447292
0.157610311,0.131777943,0.564166916,0.14644483
0.157609333,0.131633966,0.56431443,0.146442272
0.157609149,0.131490174,0.564461059,0.146439618
0.157609758,0.131346569,0.564606804,0.146436868
0.157611158,0.131203151,0.564751666,0.146434025
0.157613346,0.131059921,0.564895644,0.146431088
0.157616321,0.13091688,0.56503874,0.146428058
0.15762008,0.130774028,0.565180955,0.146424937
0.157624622,0.130631366,0.565322288,0.146421724
0.157629944,0.130488893,0.565462742,0.146418421
0.157636045,0.13034661,0.565602317,0.146415028
0.157642922,0.130204518,0.565741013,0.146411547
0.157650574,0.130062617,0.565878832,0.146407977
0.157658998,0.129920907,0.566015776,0.14640432
0.157668191,0.129779388,0.566151844,0.146400576
0.157678153,0.129638061,0.56628704,0.146396746
0.157688882,0.129496926,0.566421362,0.146392831
0.157700376,0.129355982,0.566554811,0.146388831
0.157712636,0.129215233,0.566687385,0.146384747
0.15772566,0.12907468,0.56681908,0.146380579
0.157739451,0.128934326,0.566949894,0.146376329
0.157754008,0.128794173,0.567079822,0.146371998
0.157769331,0.128654226,0.567208857,0.146367586
0.157785423,0.128514486,0.567336995,0.146363096
0.157802283,0.128374958,0.56746423,0.146358529
0.157819914,0.128235644,0.567590556,0.146353886
0.157838315,0.128096546,0.567715968,0.146349171
0.157857488,0.127957668,0.567840458,0.146344385
0.157877434,0.127819012,0.567964023,0.14633953
0.157898155,0.127680581,0.568086655,0.14633461
0.15791965,0.127542375,0.56820835,0.146329626
0.157941921,0.127404396,0.568329102,0.146324581
0.157964969,0.127266645,0.568448908,0.146319479
0.157988793,0.127129124,0.568567762,0.146314321
0.158013395,0.126991833,0.568685661,0.146309111
0.158038774,0.126854775,0.5688026,0.146303851
0.15806493,0.126717951,0.568918574,0.146298544
0.158091863,0.126581365,0.569033578,0.146293194
0.158119571,0.126445018,0.569147608,0.146287803
0.158148055,0.126308915,0.569260656,0.146282374
0.158177313,0.126173057,0.56937272,0.146276909
0.158207346,0.126037449,0.569483794,0.146271411
0.158238152,0.125902092,0.569593873,0.146265883
0.158269731,0.125766989,0.569702954,0.146260326
0.158302083,0.125632143,0.569811032,0.146254743
0.158335207,0.125497556,0.569918101,0.146249136
0.158369103,0.12536323,0.570024159,0.146243507
0.158403772,0.125229168,0.5701292,0.14623786
0.158439214,0.125095372,0.570233219,0.146232195
0.15847543,0.124961843,0.570336211,0.146226516
0.15851242,0.124828582,0.570438171,0.146220826
0.158550187,0.124695591,0.570539094,0.146215128
0.158588733,0.12456287,0.570638973,0.146209424
0.15862806,0.124430422,0.570737802,0.146203717
0.158668171,0.124298247,0.570835573,0.146198009
0.158709069,0.124166349,0.570932278,0.146192304
0.158750756,0.12403473,0.57102791,0.146186604
0.158793235,0.123903394,0.57112246,0.146180911
0.158836506,0.123772341,0.571215923,0.14617523
0.158880573,0.123641576,0.57130829,0.146169561
0.158925437,0.1235111,0.571399556,0.146163908
0.158971099,0.123380916,0.571489713,0.146158273
0.159017562,0.123251026,0.571578754,0.146152658
0.159064826,0.123121435,0.571666671,0.146147067
0.159112894,0.122992145,0.571753459,0.146141502
0.159161767,0.122863158,0.571839108,0.146135966
0.159211445,0.12273448,0.571923612,0.146130462
0.159261929,0.122606114,0.572006963,0.146124993
0.159313219,0.122478063,0.572089156,0.146119563
0.159365313,0.122350332,0.572170183,0.146114172
0.159418211,0.122222924,0.57225004,0.146108825
0.159471912,0.122095845,0.57232872,0.146103523
0.159526413,0.1219691,0.572406218,0.146098269
0.159581714,0.121842693,0.572482527,0.146093067
0.159637811,0.12171663,0.57255764,0.146087919
0.159694703,0.121590916,0.572631551,0.14608283
0.159752386,0.121465556,0.572704254,0.146077804
0.159810859,0.121340555,0.572775741,0.146072845
0.159870119,0.121215919,0.572846006,0.146067957
0.159930162,0.121091652,0.572915042,0.146063144
0.159990985,0.12096776,0.572982842,0.146058413
0.160052586,0.120844245,0.573049403,0.146053766
0.160114959,0.120721114,0.573114717,0.14604921
0.160178103,0.120598368,0.573178782,0.146044748
0.160242011,0.120476011,0.573241591,0.146040386
0.16030668,0.120354048,0.573303143,0.146036129
0.160372106,0.120232481,0.573363432,0.146031981
0.160438283,0.120111314,0.573422457,0.146027946
0.160505207,0.11999055,0.573480213,0.146024029
0.160572874,0.119870192,0.573536699,0.146020235
0.160641278,0.119750244,0.573591912,0.146016567
0.160710415,0.119630708,0.573645848,0.14601303
0.16078028,0.119511587,0.573698506,0.146009627
0.16085087,0.119392884,0.573749884,0.146006362
0.160922178,0.119274603,0.57379998,0.146003239
0.160994199,0.119156747,0.573848794,0.14600026
0.161066927,0.119039318,0.573896328,0.145997428
0.161140355,0.11892232,0.573942582,0.145994744
0.161214476,0.118805755,0.573987559,0.14599221
0.161289282,0.118689627,0.574031261,0.145989829
0.161364768,0.118573938,0.574073692,0.145987602
0.161440926,0.118458691,0.574114853,0.14598553
0.161517749,0.11834389,0.574154747,0.145983614
0.16159523,0.118229538,0.574193376,0.145981856
0.161673363,0.118115637,0.574230742,0.145980258
0.161752141,0.118002191,0.574266847,0.145978821
0.161831558,0.117889201,0.574301694,0.145977547
0.161911606,0.117776671,0.574335284,0.145976439
0.161992281,0.117664602,0.574367618,0.145975499
0.162073574,0.117552997,0.574398699,0.14597473
0.162155481,0.117441858,0.574428527,0.145974134
0.162237993,0.117331188,0.574457105,0.145973714
0.162321106,0.117220988,0.574484433,0.145973473
0.162404813,0.117111261,0.574510512,0.145973414
0.162489107,0.11700201,0.574535343,0.14597354
0.162573981,0.116893238,0.574558928,0.145973853
0.162659429,0.116784949,0.574581267,0.145974355
0.162745443,0.116677146,0.574602361,0.14597505
0.162832018,0.116569831,0.574622212,0.145975939
0.162919145,0.116463009,0.574640819,0.145977028
0.163006817,0.116356681,0.574658184,0.145978317
0.163095028,0.116250852,0.574674309,0.145979812
0.163183769,0.116145523,0.574689195,0.145981514
0.163273034,0.116040697,0.574702842,0.145983427
0.163362814,0.115936377,0.574715253,0.145985556
0.163453103,0.115832566,0.574726427,0.145987905
0.163543893,0.115729265,0.574736366,0.145990476
0.381697963,0.090705259,0.046512825,0.481083954
0.381630403,0.090809762,0.046468924,0.481090912
0.38156313,0.090914813,0.046425116,0.481096941
0.381496142,0.091020408,0.046381406,0.481102044
0.381429438,0.091126541,0.046337797,0.481106223
0.381363014,0.091233209,0.046294295,0.481109482
0.381296869,0.091340403,0.046250903,0.481111825
0.381231,0.09144812,0.046207626,0.481113255
0.381165403,0.091556353,0.046164467,0.481113777
0.381100076,0.091665096,0.04612143,0.481113397
0.381035017,0.091774344,0.046078519,0.48111212
0.380970221,0.091884091,0.046035736,0.481109953
0.380905688,0.091994329,0.045993084,0.4811069
0.380841416,0.092105052,0.045950565,0.481102968
0.380777407,0.092216252,0.045908181,0.48109816
0.380713661,0.092327924,0.045865934,0.481092481
0.380650179,0.092440058,0.045823825,0.481085937
0.380586965,0.092552648,0.045781857,0.48107853
0.380524021,0.092665686,0.045740028,0.481070266
0.38046135,0.092779162,0.045698339,0.481061148
0.380398955,0.092893072,0.045656791,0.481051182
0.380336838,0.093007406,0.045615385,0.481040371
0.380275001,0.093122159,0.04557412,0.481028719
0.380213444,0.093237325,0.045533,0.481016231
0.380152169,0.093352896,0.045492025,0.481002911
0.380091174,0.093468866,0.045451198,0.480988762
0.380030461,0.093585229,0.045410523,0.480973787
0.379970029,0.093701977,0.045370003,0.480957991
0.379909877,0.093819106,0.045329641,0.480941377
0.379850004,0.093936607,0.045289439,0.480923949
0.379790411,0.094054476,0.045249402,0.48090571
0.379731098,0.094172706,0.045209533,0.480886663
0.379672066,0.094291291,0.045169834,0.480866809
0.379613314,0.094410225,0.045130309,0.480846152
0.379554845,0.094529502,0.045090959,0.480824695
0.379496658,0.094649115,0.045051787,0.48080244
0.379438754,0.094769058,0.045012794,0.480779393
0.379381134,0.094889326,0.044973983,0.480755557
0.379323797,0.095009913,0.044935356,0.480730934
0.379266745,0.095130813,0.044896914,0.480705529
0.379209978,0.09525202,0.044858658,0.480679344
0.379153499,0.095373529,0.04482059,0.480652382
0.37909731,0.095495333,0.044782711,0.480624646
0.379041414,0.095617425,0.044745022,0.480596139
0.378985814,0.095739799,0.044707524,0.480566864
0.378930511,0.095862447,0.044670217,0.480536824
0.378875509,0.095985363,0.044633105,0.480506023
0.37882081,0.096108539,0.044596188,0.480474464
0.378766415,0.096231966,0.044559468,0.480442151
0.378712325,0.096355638,0.044522948,0.48040909
0.378658543,0.096479544,0.044486629,0.480375285
0.37860507,0.096603677,0.044450513,0.480340741
0.378551909,0.096728027,0.044414602,0.480305462
0.378499062,0.096852586,0.044378897,0.480269455
0.378446531,0.096977346,0.0443434,0.480232723
0.378394319,0.097102298,0.044308111,0.480195272
0.378342427,0.097227434,0.044273033,0.480157106
0.378290856,0.097352746,0.044238167,0.48011823
0.378239609,0.097478227,0.044203515,0.48007865
0.378188684,0.097603868,0.044169079,0.48003837
0.378138081,0.097729662,0.044134861,0.479997397
0.378087798,0.097855601,0.044100865,0.479955736
0.378037832,0.097981681,0.044067094,0.479913393
0.377988182,0.098107893,0.044033549,0.479870376
0.377938843,0.098234232,0.044000234,0.479826691
0.377889813,0.098360694,0.04396715,0.479782344
0.377841087,0.098487272,0.043934298,0.479737343
0.377792663,0.098613962,0.043901681,0.479691694
0.377744539,0.098740758,0.0438693,0.479645404
0.37769671,0.098867655,0.043837156,0.479598479
0.377649175,0.098994647,0.043805251,0.479550928
0.377601932,0.099121727,0.043773586,0.479502755
0.377554978,0.099248891,0.043742162,0.479453969
0.377508313,0.09937613,0.043710981,0.479404576
0.377461937,0.099503439,0.043680042,0.479354582
0.377415847,0.099630811,0.043649345,0.479303997
0.377370043,0.099758238,0.043618891,0.479252828
0.377324524,0.099885715,0.043588677,0.479201083
0.37727929,0.100013233,0.043558705,0.479148773
0.377234338,0.100140785,0.043528972,0.479095905
0.377189668,0.100268363,0.043499479,0.47904249
0.377145278,0.100395959,0.043470225,0.478988538
0.377101169,0.100523565,0.043441209,0.478934056
0.37705734,0.100651173,0.043412431,0.478879056
0.377013788,0.100778774,0.043383892,0.478823545
0.376970513,0.10090636,0.043355592,0.478767534
0.376927514,0.101033922,0.043327532,0.478711031
0.37688479,0.101161452,0.043299712,0.478654046
0.376842339,0.101288942,0.043272134,0.478596586
0.376800159,0.101416382,0.043244797,0.478538661
0.37675825,0.101543767,0.043217704,0.478480279
0.376716609,0.101671087,0.043190853,0.47842145
0.376675237,0.101798334,0.043164246,0.478362182
0.376634133,0.101925501,0.043137882,0.478302483
0.376593298,0.102052578,0.043111761,0.478242362
0.376552734,0.102179556,0.043085883,0.478181827
0.376512442,0.102306427,0.043060246,0.478120886
0.376472424,0.10243318,0.043034849,0.478059547
0.376432682,0.102559807,0.043009693,0.477997818
0.376393218,0.102686298,0.042984776,0.477935708
0.376354036,0.102812643,0.042960099,0.477873222
0.376315136,0.102938834,0.04293566,0.47781037
0.37627652,0.103064862,0.042911462,0.477747156
0.376238187,0.103190719,0.042887505,0.477683589
0.376200139,0.103316397,0.04286379,0.477619674
0.376162373,0.103441891,0.042840317,0.477555419
0.376124889,0.103567193,0.042817088,0.47749083
0.376087684,0.103692298,0.042794103,0.477425915
0.376050758,0.103817197,0.042771364,0.477360681
0.37601411,0.103941885,0.042748869,0.477295136
0.375977737,0.104066353,0.042726619,0.477229291
0.375941638,0.104190593,0.042704614,0.477163155
0.375905811,0.104314598,0.042682853,0.477096739
0.375870253,0.104438358,0.042661337,0.477030051
0.375834963,0.104561866,0.042640065,0.476963105
0.375799939,0.104685113,0.042619038,0.47689591
0.375765177,0.10480809,0.042598255,0.476828478
0.375730676,0.104930789,0.042577715,0.47676082
0.375696434,0.105053201,0.042557418,0.476692947
0.375662448,0.105175318,0.042537364,0.476624869
0.375628719,0.105297131,0.042517552,0.476556598
0.375595244,0.105418631,0.042497983,0.476488142
0.375562023,0.10553981,0.042478655,0.476419513
0.375529056,0.105660658,0.042459568,0.476350719
0.375496341,0.105781167,0.042440723,0.47628177
0.375463879,0.105901328,0.042422118,0.476212675
0.375431669,0.106021134,0.042403755,0.476143443
0.37539971,0.106140574,0.04238563,0.476074085
0.375368003,0.106259642,0.042367745,0.47600461
0.375336544,0.106378329,0.042350099,0.475935028
0.375305334,0.106496629,0.04233269,0.475865348
0.37527437,0.106614533,0.042315519,0.475795578
0.375243651,0.106732037,0.042298585,0.475725727
0.375213175,0.106849132,0.042281889,0.475655803
0.375182941,0.106965813,0.042265431,0.475585816
0.375152946,0.107082072,0.042249208,0.475515774
0.375123189,0.107197904,0.042233221,0.475445685
0.375093669,0.107313303,0.042217469,0.475375559
0.375064383,0.10742826,0.04220195,0.475305406
0.375035331,0.107542771,0.042186663,0.475235235
0.375006513,0.107656826,0.042171607,0.475165054
0.374977929,0.107770419,0.042156781,0.475094871
0.374949578,0.107883543,0.042142186,0.475024693
0.374921462,0.107996189,0.04212782,0.474954529
0.37489358,0.108108351,0.042113685,0.474884385
0.374865933,0.10822002,0.042099778,0.474814268
0.374838523,0.108331189,0.042086101,0.474744186
0.37481135,0.10844185,0.042072654,0.474674146
0.374784415,0.108551996,0.042059435,0.474604154
0.374757718,0.108661619,0.042046445,0.474534218
0.374731259,0.108770713,0.042033686,0.474464341
0.374705038,0.108879274,0.042021158,0.474394531
0.374679052,0.108987296,0.042008862,0.474324791
0.374653301,0.109094776,0.041996797,0.474255126
0.374627784,0.109201711,0.041984966,0.474185539
0.374602501,0.109308096,0.041973367,0.474116037
0.374577449,0.109413929,0.041962,0.474046623
0.374552628,0.109519205,0.041950864,0.473977303
0.374528037,0.10962392,0.041939959,0.473908083
0.374503676,0.109728071,0.041929284,0.47383897
0.374479543,0.109831654,0.041918837,0.473769966
0.37445564,0.109934665,0.041908618,0.473701078
0.374431964,0.110037099,0.041898628,0.473632308
0.374408517,0.110138954,0.041888869,0.47356366
0.374385298,0.110240224,0.04187934,0.473495138
0.374362306,0.110340908,0.041870043,0.473426743
0.374339542,0.110441,0.041860978,0.47335848
0.374317006,0.110540497,0.041852146,0.47329035
0.374294697,0.110639398,0.041843547,0.473222359
0.374272613,0.110737697,0.041835179,0.473154511
0.374250753,0.110835394,0.041827042,0.473086812
0.374229115,0.110932484,0.041819134,0.473019266
0.374207699,0.111028964,0.041811456,0.472951881
0.374186502,0.111124832,0.041804004,0.472884662
0.374165524,0.111220085,0.041796779,0.472817612
0.374144765,0.111314719,0.04178978,0.472750736
0.374124224,0.111408734,0.041783004,0.472684038
0.3741039,0.111502127,0.041776452,0.472617521
0.374083792,0.111594896,0.041770122,0.472551189
0.374063901,0.111687039,0.041764013,0.472485047
0.374044224,0.111778555,0.041758123,0.472419098
0.374024761,0.111869441,0.041752452,0.472353346
0.374005508,0.111959697,0.041746999,0.472287796
0.373986463,0.112049323,0.041741764,0.47222245
0.373967623,0.112138316,0.041736746,0.472157314
0.373948986,0.112226676,0.041731945,0.472092392
0.373930549,0.112314403,0.04172736,0.472027688
0.373912308,0.112401494,0.041722989,0.471963208
0.373894263,0.112487948,0.041718833,0.471898956
0.37387641,0.112573763,0.041714891,0.471834935
0.373858748,0.112658939,0.041711162,0.471771151
0.373841277,0.112743472,0.041707645,0.471707606
0.373823996,0.112827362,0.041704338,0.471644304
0.373806905,0.112910607,0.041701239,0.471581248
0.373790005,0.112993205,0.041698348,0.471518442
0.373773297,0.113075153,0.041695661,0.471455889
0.373756783,0.113156449,0.041693176,0.471393592
0.373740465,0.11323709,0.041690893,0.471331552
0.373724347,0.113317074,0.041688809,0.471269771
0.373708428,0.113396399,0.041686924,0.471208249
0.373692709,0.113475064,0.041685238,0.471146989
0.373677192,0.113553067,0.041683751,0.47108599
0.373661876,0.113630407,0.041682461,0.471025256
0.373646763,0.113707083,0.04168137,0.470964785
0.373631854,0.113783093,0.041680476,0.470904577
0.373617153,0.113858436,0.041679778,0.470844633
0.373602663,0.113933111,0.041679275,0.470784951
0.373588388,0.114007115,0.041678967,0.47072553
0.373574333,0.114080448,0.041678851,0.470666368
0.373560501,0.114153106,0.041678929,0.470607464
0.373546897,0.114225089,0.041679197,0.470548817
0.373533526,0.114296393,0.041679655,0.470490426
0.373520392,0.114367017,0.041680303,0.470432289
0.373507499,0.114436958,0.041681137,0.470374406
0.373494853,0.114506215,0.041682157,0.470316775
0.373482457,0.114574786,0.041683361,0.470259396
0.373470317,0.114642667,0.04168475,0.470202266
0.373458438,0.114709857,0.04168632,0.470145384
0.373446825,0.114776354,0.041688072,0.470088749
0.373435485,0.114842154,0.041690003,0.470032358
0.373424423,0.114907254,0.041692112,0.469976211
0.373413645,0.114971652,0.041694397,0.469920306
0.373403159,0.115035344,0.041696854,0.469864643
0.373392971,0.115098328,0.041699481,0.469809221
0.373383086,0.1151606,0.041702276,0.469754038
0.373373511,0.115222159,0.041705237,0.469699094
0.373364252,0.115283,0.041708362,0.469644386
0.373355313,0.115343122,0.041711653,0.469589912
0.3733467,0.115402522,0.041715107,0.469535671
0.373338417,0.115461195,0.041718725,0.469481662
0.373330468,0.115519141,0.041722507,0.469427883
0.373322857,0.115576356,0.041726455,0.469374332
0.373315586,0.115632837,0.04173057,0.469321007
0.373308662,0.115688582,0.041734851,0.469267904
0.373302088,0.115743589,0.0417393,0.469215022
0.37329587,0.115797856,0.041743916,0.469162358
0.373290012,0.115851379,0.041748699,0.46910991
0.37328452,0.115904157,0.041753649,0.469057674
0.3732794,0.115956187,0.041758765,0.469005648
0.373274659,0.116007467,0.041764048,0.468953826
0.373270305,0.116057994,0.041769495,0.468902206
0.373266345,0.116107766,0.041775107,0.468850782
0.373262786,0.116156782,0.041780882,0.46879955
0.373259637,0.116205038,0.04178682,0.468748505
0.373256903,0.116252535,0.041792917,0.468697644
0.373254594,0.11629927,0.041799174,0.468646963
0.373252716,0.116345242,0.041805587,0.468596455
0.373251278,0.11639045,0.041812154,0.468546118
0.373250286,0.116434894,0.041818872,0.468495948
0.373249746,0.116478574,0.041825741,0.468445939
0.373249666,0.116521489,0.041832756,0.468396089
0.373250049,0.11656364,0.041839918,0.468346393
0.373250901,0.116605029,0.041847223,0.468296846
0.373252228,0.116645656,0.041854672,0.468247444
0.373254036,0.116685523,0.04186226,0.468198181
0.373256331,0.11672463,0.041869988,0.468149051
0.37325912,0.116762979,0.041877852,0.46810005
0.373262408,0.116800572,0.041885849,0.468051171
0.373266202,0.11683741,0.041893977,0.468002411
0.373270509,0.116873496,0.041902233,0.467953762
0.373275332,0.116908832,0.041910615,0.467905221
0.373280677,0.116943422,0.041919122,0.46785678
0.373286545,0.116977271,0.041927752,0.467808432
0.37329294,0.117010388,0.041936503,0.467760169
0.373299862,0.11704278,0.041945376,0.467711983
0.373307312,0.117074456,0.041954368,0.467663864
0.37331529,0.117105426,0.041963478,0.467615805
0.373323797,0.117135701,0.041972707,0.467567795
0.37333283,0.117165289,0.041982053,0.467519828
0.373342388,0.117194202,0.041991514,0.467471896
0.37335247,0.117222448,0.042001091,0.46742399
0.373363074,0.117250038,0.042010783,0.467376105
0.373374197,0.117276982,0.042020589,0.467328233
0.373385835,0.117303288,0.042030509,0.467280368
0.373397987,0.117328968,0.04204054,0.467232505
0.373410649,0.117354028,0.042050682,0.46718464
0.373423818,0.11737848,0.042060933,0.467136769
0.373437491,0.11740233,0.042071292,0.467088887
0.373451663,0.117425587,0.042081756,0.467040993
0.373466332,0.11744826,0.042092324,0.466993084
0.373481493,0.117470355,0.042102995,0.466945157
0.373497141,0.117491881,0.042113768,0.46689721
0.373513271,0.117512845,0.042124643,0.46684924
0.373529877,0.117533257,0.042135621,0.466801245
0.373546954,0.117553125,0.042146699,0.466753222
0.373564494,0.117572459,0.042157879,0.466705168
0.373582492,0.117591269,0.042169157,0.466657081
0.373600942,0.117609563,0.042180534,0.466608961
0.373619837,0.117627351,0.042192007,0.466560805
0.373639172,0.11764464,0.042203576,0.466512612
0.373658941,0.117661439,0.042215239,0.466464381
0.373679139,0.117677755,0.042226995,0.466416111
0.37369976,0.117693596,0.042238843,0.466367802
0.373720798,0.117708967,0.04225078,0.466319454
0.373742248,0.117723876,0.042262806,0.466271071
0.373764104,0.117738327,0.042274917,0.466222652
0.37378636,0.117752327,0.042287113,0.4661742
0.373809012,0.117765881,0.042299391,0.466125716
0.373832054,0.117778993,0.042311749,0.466077204
0.373855482,0.11779167,0.042324185,0.466028663
0.373879291,0.117803915,0.042336696,0.465980098
0.373903476,0.117815733,0.04234928,0.465931511
0.373928032,0.11782713,0.042361934,0.465882904
0.373952955,0.117838109,0.042374656,0.46583428
0.373978238,0.117848676,0.042387445,0.465785641
0.374003877,0.117858836,0.042400299,0.465736988
0.374029864,0.117868593,0.042413219,0.465688324
0.374056195,0.117877951,0.042426205,0.465639649
0.374082861,0.117886917,0.042439259,0.465590962
0.374109857,0.117895495,0.042452382,0.465542266
0.374137176,0.117903689,0.042465574,0.46549356
0.374164811,0.117911506,0.042478838,0.465444846
0.374192755,0.117918949,0.042492173,0.465396123
0.374221004,0.117926023,0.04250558,0.465347393
0.37424955,0.117932733,0.042519061,0.465298656
0.374278389,0.117939082,0.042532616,0.465249914
0.374307514,0.117945074,0.042546246,0.465201166
0.374336921,0.117950713,0.042559951,0.465152415
0.374366604,0.117956002,0.042573732,0.465103662
0.374396556,0.117960946,0.04258759,0.465054908
0.374426771,0.117965549,0.042601526,0.465006154
0.374457244,0.117969815,0.04261554,0.464957401
0.374487966,0.11797375,0.042629633,0.464908651
0.374518931,0.117977359,0.042643807,0.464859904
0.374550131,0.117980648,0.042658061,0.46481116
0.374581561,0.117983621,0.042672397,0.464762422
0.374613211,0.117986283,0.042686816,0.46471369
0.374645076,0.11798864,0.042701319,0.464664966
0.374677148,0.117990695,0.042715906,0.464616251
0.374709419,0.117992454,0.042730577,0.464567549
0.374741885,0.11799392,0.042745335,0.464518861
0.374774536,0.117995097,0.042760178,0.464470189
0.374807368,0.117995989,0.042775106,0.464421537
0.374840374,0.117996599,0.04279012,0.464372906
0.374873547,0.117996932,0.042805219,0.464324302
0.37490688,0.117996989,0.042820402,0.46427573
0.374940367,0.117996774,0.042835667,0.464227192
0.374974001,0.11799629,0.042851016,0.464178694
0.375007775,0.117995541,0.042866447,0.464130237
0.375041682,0.117994529,0.042881962,0.464081826
0.375075717,0.117993261,0.04289756,0.464033462
0.375109871,0.11799174,0.04291324,0.463985149
0.375144137,0.117989972,0.042929002,0.463936888
0.375178509,0.117987961,0.042944846,0.463888684
0.375212977,0.117985712,0.042960772,0.463840539
0.375247536,0.117983229,0.042976778,0.463792457
0.375282178,0.117980517,0.042992866,0.46374444
0.375316894,0.117977579,0.043009036,0.463696491
0.375351676,0.11797442,0.043025288,0.463648616
0.375386517,0.117971043,0.043041622,0.463600818
0.375421409,0.117967452,0.043058038,0.463553102
0.375456343,0.117963649,0.043074537,0.463505471
0.375491315,0.117959637,0.043091119,0.463457929
0.375526318,0.117955419,0.043107781,0.463410481
0.375561348,0.117950998,0.043124524,0.463363131
0.3755964,0.117946374,0.043141345,0.46331588
0.375631472,0.117941552,0.043158244,0.463268732
0.375666561,0.117936532,0.04317522,0.463221687
0.375701663,0.117931316,0.043192272,0.463174749
0.375736777,0.117925908,0.043209398,0.463127918
0.375771897,0.117920309,0.043226598,0.463081196
0.37580702,0.117914522,0.043243873,0.463034585
0.375842141,0.117908551,0.043261223,0.462988085
0.375877258,0.117902397,0.043278647,0.462941698
0.375912366,0.117896064,0.043296145,0.462895425
0.375947464,0.117889552,0.043313717,0.462849267
0.375982549,0.117882863,0.043331363,0.462803225
0.376017617,0.117876,0.043349082,0.462757301
0.376052667,0.117868963,0.043366875,0.462711496
0.376087694,0.117861753,0.043384741,0.462665812
0.376122696,0.117854372,0.043402681,0.462620251
0.376157671,0.117846822,0.043420693,0.462574814
0.376192617,0.117839103,0.043438778,0.462529503
0.376227531,0.117831216,0.043456934,0.462484319
0.376262411,0.117823162,0.043475163,0.462439263
0.376297256,0.117814943,0.043493464,0.462394337
0.376332062,0.117806559,0.043511837,0.462349542
0.376366827,0.117798011,0.043530282,0.46230488
0.376401547,0.117789302,0.043548799,0.462260352
0.376436219,0.117780434,0.043567387,0.462215961
0.376470837,0.117771408,0.043586047,0.462171707
0.376505399,0.117762229,0.043604778,0.462127594
0.3765399,0.117752896,0.04362358,0.462083624
0.376574336,0.117743413,0.043642453,0.462039798
0.376608705,0.11773378,0.043661396,0.461996119
0.376643002,0.117723999,0.043680411,0.461952588
0.376677224,0.11771407,0.043699496,0.461909209
0.376711368,0.117703994,0.043718654,0.461865984
0.376745431,0.117693772,0.043737882,0.461822914
0.376779409,0.117683403,0.043757182,0.461780006
0.376813299,0.117672888,0.043776552,0.461737261
0.376847097,0.117662226,0.043795991,0.461694686
0.3768808,0.117651416,0.043815499,0.461652285
0.376914404,0.117640459,0.043835075,0.461610062
0.376947907,0.117629355,0.043854716,0.461568023
0.376981306,0.117618101,0.043874422,0.461526171
0.377014599,0.117606698,0.04389419,0.461484513
0.377047784,0.117595145,0.043914019,0.461443051
0.377080861,0.117583441,0.043933907,0.461401792
0.377113827,0.117571584,0.043953851,0.461360739
0.377146682,0.117559572,0.043973851,0.461319895
0.377179426,0.117547403,0.043993905,0.461279265
0.37721206,0.117535076,0.044014012,0.461238852
0.377244581,0.117522588,0.044034172,0.461198659
0.377276991,0.117509937,0.044054384,0.461158688
0.377309286,0.117497122,0.044074648,0.461118944
0.377341466,0.117484142,0.044094964,0.461079428
0.377373527,0.117470995,0.044115335,0.461040144
0.377405468,0.117457679,0.044135759,0.461001094
0.377437286,0.117444194,0.044156237,0.460962283
0.377468979,0.117430537,0.044176769,0.460923715
0.377500546,0.117416707,0.044197353,0.460885394
0.377531983,0.117402703,0.04421799,0.460847324
0.37756329,0.117388524,0.044238677,0.460809509
0.377594463,0.117374169,0.044259414,0.460771954
0.3776255,0.117359636,0.0442802,0.460734664
0.377656395,0.117344926,0.044301034,0.460697645
0.377687145,0.117330038,0.044321914,0.460660903
0.377717744,0.117314972,0.04434284,0.460624443
0.377748188,0.117299729,0.044363812,0.460588271
0.377778469,0.11728431,0.044384829,0.460552392
0.377808581,0.117268716,0.044405893,0.46051681
0.377838516,0.11725295,0.044427004,0.46048153
0.377868269,0.117237016,0.044448161,0.460446554
0.377897831,0.117220915,0.044469366,0.460411887
0.377927197,0.117204653,0.044490618,0.460377532
0.37795636,0.11718823,0.044511917,0.460343492
0.377985317,0.117171653,0.044533261,0.46030977
0.378014061,0.117154923,0.04455465,0.460276366
0.378042588,0.117138047,0.044576084,0.460243281
0.378070894,0.117121029,0.044597561,0.460210515
0.378098974,0.117103876,0.044619083,0.460178067
0.378126823,0.117086592,0.044640649,0.460145936
0.378154437,0.117069181,0.04466226,0.460114121
0.378181812,0.11705165,0.044683917,0.460082621
0.378208945,0.117034002,0.044705621,0.460051433
0.378235832,0.117016242,0.044727371,0.460020555
0.378262472,0.116998375,0.044749167,0.459989986
0.378288862,0.116980404,0.044771011,0.459959724
0.378315,0.116962335,0.0447929,0.459929766
0.378340884,0.116944171,0.044814835,0.45990011
0.378366513,0.116925918,0.044836813,0.459870756
0.378391885,0.116907578,0.044858836,0.459841702
0.378416998,0.116889156,0.0448809,0.459812946
0.378441849,0.116870654,0.044903007,0.45978449
0.378466438,0.116852077,0.044925153,0.459756332
0.378490762,0.116833426,0.044947339,0.459728473
0.378514818,0.116814706,0.044969563,0.459700914
0.378538605,0.116795917,0.044991824,0.459673654
0.378562121,0.116777062,0.045014122,0.459646695
0.378585366,0.116758143,0.045036455,0.459620035
0.378608339,0.116739163,0.045058822,0.459593675
0.378631041,0.116720123,0.045081224,0.459567612
0.378653472,0.116701026,0.045103659,0.459541844
0.378675632,0.116681873,0.045126127,0.459516369
0.378697521,0.116662666,0.045148627,0.459491185
0.378719139,0.116643409,0.045171159,0.459466293
0.378740484,0.116624103,0.045193722,0.459441692
0.378761554,0.116604749,0.045216315,0.459417381
0.37878235,0.11658535,0.04523894,0.45939336
0.378802868,0.116565907,0.045261595,0.459369631
0.378823108,0.11654642,0.045284279,0.459346194
0.378843068,0.116526891,0.045306991,0.45932305
0.378862747,0.11650732,0.045329731,0.459300202
0.378882145,0.116487708,0.045352496,0.459277651
0.378901262,0.116468055,0.045375285,0.459255399
0.378920095,0.116448362,0.045398097,0.459233447
0.378938644,0.11642863,0.045420929,0.459211798
0.378956907,0.116408858,0.045443781,0.459190454
0.378974882,0.116389047,0.045466652,0.459169419
0.37899257,0.116369196,0.045489541,0.459148694
0.379009968,0.116349306,0.045512445,0.45912828
0.379027078,0.116329377,0.045535365,0.45910818
0.379043899,0.116309407,0.045558298,0.459088396
0.379060434,0.116289395,0.045581242,0.459068929
0.379076684,0.116269343,0.045604193,0.45904978
0.37909265,0.116249248,0.04562715,0.459030952
0.379108335,0.116229112,0.045650109,0.459012444
0.379123741,0.116208934,0.045673068,0.458994258
0.379138867,0.116188714,0.045696026,0.458976393
0.379153714,0.116168453,0.045718983,0.458958849
0.379168281,0.116148152,0.04574194,0.458941627
0.379182566,0.116127813,0.045764895,0.458924725
0.379196568,0.116107437,0.045787851,0.458908144
0.379210283,0.116087026,0.045810806,0.458891885
0.379223709,0.116066581,0.045833763,0.458875947
0.379236843,0.116046103,0.045856723,0.458860331
0.379249682,0.116025594,0.045879686,0.458845038
0.379262223,0.116005057,0.045902653,0.458830067
0.379274465,0.115984491,0.045925624,0.45881542
0.379286404,0.1159639,0.0459486,0.458801096
0.379298039,0.115943287,0.045971579,0.458787095
0.379309368,0.115922652,0.045994561,0.458773418
0.37932039,0.115902001,0.046017545,0.458760064
0.379331102,0.115881337,0.046040529,0.458747032
0.379341502,0.115860665,0.046063511,0.458734323
0.379351588,0.115839988,0.04608649,0.458721935
0.379361356,0.115819313,0.046109464,0.458709867
0.379370804,0.115798645,0.046132433,0.458698118
0.379379929,0.115777989,0.046155396,0.458686686
0.379388729,0.115757351,0.046178352,0.458675568
0.379397203,0.115736735,0.0462013,0.458664762
0.37940535,0.115716147,0.046224239,0.458654265
0.379413169,0.11569559,0.046247169,0.458644072
0.379420662,0.11567507,0.046270087,0.45863418
0.379427829,0.11565459,0.046292995,0.458624587
0.379434671,0.115634154,0.046315889,0.458615285
0.379441191,0.115613766,0.046338771,0.458606272
0.379447393,0.115593429,0.046361638,0.458597541
0.379453277,0.115573145,0.046384491,0.458589087
0.379458847,0.115552918,0.046407329,0.458580906
0.379464106,0.115532749,0.04643015,0.458572995
0.379469057,0.11551264,0.046452953,0.458565349
0.379473702,0.115492592,0.046475738,0.458557968
0.379478045,0.115472606,0.046498501,0.458550848
0.379482088,0.115452682,0.046521241,0.45854399
0.379485833,0.11543282,0.046543956,0.458537391
0.379489283,0.115413021,0.046566643,0.458531053
0.379492442,0.115393286,0.046589299,0.458524972
0.379495312,0.115373615,0.046611922,0.45851915
0.379497898,0.115354008,0.046634509,0.458513586
0.379500202,0.115334464,0.046657056,0.458508278
0.37950223,0.115314983,0.04667956,0.458503228
0.379503984,0.115295564,0.04670202,0.458498433
0.37950547,0.115276206,0.046724431,0.458493893
0.379506691,0.115256908,0.046746792,0.458489609
0.379507651,0.115237669,0.0467691,0.458485579
0.379508355,0.11521849,0.046791352,0.458481803
0.379508805,0.115199371,0.046813544,0.45847828
0.379509006,0.11518031,0.046835673,0.45847501
0.379508961,0.115161309,0.046857738,0.458471992
0.379508673,0.115142368,0.046879735,0.458469224
0.379508145,0.115123487,0.046901663,0.458466704
0.379507381,0.115104667,0.046923521,0.458464431
0.379506383,0.115085907,0.046945306,0.458462404
0.379505154,0.115067209,0.046967017,0.45846062
0.379503696,0.115048572,0.046988653,0.458459079
0.379502013,0.115029996,0.047010212,0.458457778
0.379500108,0.115011481,0.047031693,0.458456718
0.379497983,0.114993026,0.047053093,0.458455897
0.379495643,0.114974632,0.04707441,0.458455315
0.379493091,0.114956296,0.047095642,0.45845497
0.379490334,0.11493802,0.047116785,0.458454861
0.379487375,0.114919801,0.047137837,0.458454987
0.379484221,0.114901641,0.047158795,0.458455344
0.379480878,0.114883538,0.047179655,0.458455929
0.379477352,0.114865495,0.047200415,0.458456738
0.37947365,0.114847512,0.047221073,0.458457765
0.379469776,0.114829591,0.04724163,0.458459004
0.379465735,0.114811734,0.047262084,0.458460446
0.379461535,0.114793945,0.047282437,0.458462083
0.379457185,0.114776223,0.047302688,0.458463904
0.379452692,0.114758571,0.047322838,0.4584659
0.379448067,0.114740989,0.047342884,0.45846806
0.379443322,0.114723478,0.047362827,0.458470372
0.379438468,0.114706039,0.047382667,0.458472826
0.379433517,0.114688671,0.047402402,0.45847541
0.37942848,0.114671375,0.047422034,0.45847811
0.379423369,0.114654151,0.047441563,0.458480917
0.379418194,0.114637,0.047460989,0.458483817
0.379412967,0.11461992,0.047480312,0.458486801
0.379407698,0.114602913,0.047499532,0.458489857
0.379402399,0.114585978,0.047518647,0.458492976
0.379397081,0.114569113,0.047537658,0.458496148
0.379391756,0.11455232,0.047556564,0.458499361
0.379386434,0.114535597,0.047575363,0.458502606
0.379381126,0.114518946,0.047594058,0.45850587
0.379375843,0.114502366,0.04761265,0.458509141
0.379370593,0.114485859,0.047631141,0.458512406
0.379365386,0.114469426,0.047649536,0.458515653
0.37936023,0.114453066,0.047667836,0.458518869
0.379355133,0.114436781,0.047686043,0.458522043
0.379350102,0.114420571,0.047704161,0.458525166
0.379345146,0.114404439,0.047722189,0.458528226
0.379340273,0.114388383,0.047740131,0.458531213
0.37933549,0.114372407,0.047757986,0.458534118
0.379330804,0.114356511,0.047775756,0.458536929
0.379326223,0.114340697,0.047793444,0.458539635
0.379321755,0.114324968,0.04781105,0.458542227
0.379317406,0.114309325,0.047828576,0.458544693
0.379313183,0.11429377,0.047846024,0.458547022
0.379309094,0.114278305,0.047863396,0.458549205
0.379305147,0.11426293,0.047880692,0.458551231
0.379301347,0.114247648,0.047897915,0.458553089
0.379297703,0.114232461,0.047915066,0.45855477
0.37929422,0.114217371,0.047932147,0.458556262
0.379290906,0.11420238,0.047949159,0.458557555
0.379287765,0.114187491,0.047966105,0.458558639
0.379284804,0.114172706,0.047982984,0.458559506
0.379282029,0.114158026,0.047999797,0.458560148
0.379279445,0.114143451,0.048016546,0.458560558
0.379277056,0.114128984,0.048033232,0.458560728
0.37927487,0.114114623,0.048049855,0.458560651
0.37927289,0.114100372,0.048066418,0.458560321
0.379271123,0.114086229,0.04808292,0.458559727
0.379269572,0.114072199,0.048099366,0.458558864
0.379268242,0.114058281,0.048115755,0.458557722
0.379267138,0.114044478,0.04813209,0.458556295
0.379266263,0.11403079,0.048148371,0.458554575
0.379265624,0.11401722,0.048164601,0.458552555
0.379265224,0.11400377,0.04818078,0.458550225
0.379265068,0.11399044,0.048196911,0.458547581
0.379265158,0.113977233,0.048212994,0.458544615
0.379265499,0.113964148,0.048229032,0.458541322
0.379266093,0.113951188,0.048245024,0.458537695
0.379266945,0.113938353,0.048260973,0.458533729
0.379268056,0.113925644,0.04827688,0.45852942
0.37926943,0.113913061,0.048292749,0.458524761
0.379271068,0.113900605,0.04830858,0.458519748
0.379272972,0.113888276,0.048324375,0.458514377
0.379275144,0.113876075,0.048340137,0.458508644
0.379277586,0.113864003,0.048355864,0.458502547
0.3792803,0.113852059,0.048371559,0.458496083
0.379283289,0.113840244,0.04838722,0.458489247
0.379286555,0.113828559,0.048402849,0.458482037
0.379290098,0.113817006,0.048418447,0.458474449
0.379293922,0.113805589,0.048434014,0.458466476
0.379298026,0.11379431,0.048449551,0.458458113
0.379302412,0.113783173,0.04846506,0.458449355
0.379307081,0.113772182,0.048480541,0.458440196
0.379312037,0.11376134,0.048495994,0.458430629
0.37931728,0.11375065,0.048511419,0.458420651
0.379322812,0.113740115,0.048526816,0.458410257
0.379328634,0.113729737,0.048542185,0.458399444
0.379334745,0.113719519,0.048557527,0.458388209
0.379341146,0.113709465,0.048572843,0.458376547
0.379347834,0.113699577,0.048588135,0.458364454
0.379354808,0.113689858,0.048603405,0.458351928
0.379362066,0.113680311,0.048618658,0.458338966
0.379369605,0.113670936,0.048633894,0.458325564
0.379377425,0.113661738,0.048649118,0.45831172
0.379385523,0.113652717,0.048664331,0.45829743
0.379393896,0.113643876,0.048679536,0.458282691
0.379402542,0.113635219,0.048694737,0.458267501
0.379411458,0.113626749,0.048709934,0.458251859
0.379420639,0.11361847,0.048725129,0.458235762
0.379430084,0.113610384,0.048740322,0.45821921
0.379439789,0.113602496,0.048755514,0.458202201
0.379449753,0.113594809,0.048770705,0.458184733
0.379459972,0.113587327,0.048785894,0.458166807
0.379470447,0.113580052,0.048801081,0.45814842
0.379481177,0.113572987,0.048816265,0.458129571
0.379492159,0.113566134,0.048831449,0.458110258
0.379503393,0.113559496,0.048846633,0.458090478
0.379514878,0.113553073,0.048861821,0.458070228
0.379526614,0.11354687,0.048877013,0.458049504
0.3795386,0.113540886,0.04889221,0.458028305
0.379550836,0.113535124,0.048907413,0.458006627
0.379563322,0.113529585,0.048922624,0.45798447
0.379576057,0.11352427,0.048937842,0.457961831
0.379589041,0.113519181,0.048953068,0.45793871
0.379602272,0.113514317,0.048968303,0.457915107
0.379615749,0.11350968,0.048983549,0.457891021
0.379629472,0.113505268,0.048998806,0.457866454
0.379643437,0.113501083,0.049014075,0.457841405
0.379657645,0.113497123,0.049029356,0.457815876
0.379672092,0.11349339,0.049044649,0.457789869
0.379686777,0.113489883,0.049059955,0.457763385
0.379701698,0.113486603,0.049075274,0.457736424
0.379716853,0.113483551,0.049090606,0.45770899
0.379732239,0.113480728,0.049105952,0.457681082
0.379747853,0.113478135,0.04912131,0.457652702
0.379763695,0.113475773,0.049136681,0.457623851
0.379779762,0.113473643,0.049152064,0.457594531
0.379796052,0.113471746,0.049167459,0.457564743
0.379812562,0.113470083,0.049182864,0.457534491
0.379829292,0.113468653,0.04919828,0.457503775
0.379846238,0.113467457,0.049213706,0.457472599
0.379863397,0.113466496,0.049229142,0.457440965
0.379880767,0.113465769,0.049244587,0.457408877
0.379898345,0.113465277,0.049260041,0.457376337
0.379916129,0.11346502,0.049275503,0.457343348
0.379934118,0.113464997,0.049290972,0.457309913
0.379952312,0.113465207,0.049306446,0.457276035
0.37997071,0.11346565,0.049321924,0.457241716
0.379989314,0.113466324,0.049337406,0.457206956
0.380008124,0.113467229,0.049352891,0.457171757
0.380027143,0.113468361,0.049368379,0.457136117
0.380046372,0.113469719,0.049383869,0.45710004
0.380065814,0.113471301,0.049399361,0.457063524
0.380085472,0.113473102,0.049414854,0.457026572
0.380105346,0.11347512,0.049430347,0.456989186
0.380125439,0.113477353,0.049445839,0.456951369
0.380145754,0.113479797,0.049461327,0.456913123
0.380166292,0.113482449,0.049476811,0.456874448
0.380187056,0.113485307,0.049492288,0.456835349
0.380208049,0.113488367,0.049507757,0.456795827
0.380229274,0.113491625,0.049523215,0.456755885
0.380250736,0.113495078,0.049538661,0.456715526
0.380272438,0.11349872,0.049554091,0.456674751
0.380294385,0.113502548,0.049569503,0.456633564
0.380316581,0.113506558,0.049584894,0.456591967
0.380339031,0.113510746,0.049600262,0.456549961
0.380361738,0.113515107,0.049615605,0.456507549
0.380384706,0.113519641,0.049630922,0.456464731
0.380407938,0.113524342,0.049646211,0.456421509
0.380431437,0.11352921,0.049661471,0.456377883
0.380455204,0.11353424,0.049676702,0.456333854
0.380479244,0.113539431,0.049691901,0.456289423
0.38050356,0.11354478,0.049707068,0.456244592
0.419080656,0.071553529,0.189863082,0.319502733
0.418978617,0.071656497,0.189810945,0.31955394
0.418875562,0.071759433,0.189759663,0.319605342
0.418771499,0.071862331,0.189709229,0.31965694
0.41866644,0.071965184,0.189659639,0.319708736
0.418560395,0.072067986,0.189610887,0.319760732
0.418453376,0.072170728,0.189562968,0.319812928
0.418345395,0.072273403,0.189515876,0.319865326
0.418236461,0.072376004,0.18946961,0.319917925
0.418126585,0.072478521,0.189424167,0.319970726
0.418015778,0.072580947,0.189379546,0.320023729
0.41790405,0.072683271,0.189335744,0.320076934
0.417791411,0.072785486,0.189292761,0.320130342
0.417677871,0.072887583,0.189250594,0.320183952
0.41756344,0.072989553,0.189209242,0.320237765
0.417448128,0.07309139,0.189168702,0.32029178
0.417331945,0.073193086,0.189128972,0.320345997
0.417214901,0.073294635,0.189090049,0.320400414
0.417097008,0.073396029,0.189051932,0.320455032
0.416978274,0.073497264,0.189014615,0.320509848
0.416858709,0.073598334,0.188978096,0.320564861
0.416738323,0.073699233,0.188942374,0.320620069
0.416617123,0.073799958,0.188907448,0.320675471
0.416495116,0.073900505,0.188873316,0.320731063
0.41637231,0.07400087,0.188839979,0.320786841
0.416248712,0.074101047,0.188807437,0.320842804
0.416124328,0.074201032,0.188775693,0.320898947
0.415999164,0.074300821,0.188744748,0.320955267
0.415873227,0.074400409,0.188714603,0.321011761
0.415746525,0.074499788,0.18868526,0.321068427
0.415619064,0.074598955,0.188656721,0.32112526
0.415490852,0.074697904,0.188628986,0.321182259
0.415361896,0.074796629,0.188602057,0.321239419
0.415232203,0.074895125,0.188575934,0.321296738
0.415101782,0.074993387,0.188550618,0.321354213
0.41497064,0.075091411,0.188526108,0.321411841
0.414838784,0.075189191,0.188502406,0.32146962
0.414706222,0.075286721,0.188479512,0.321527546
0.414572959,0.075383996,0.188457429,0.321585616
0.414439001,0.075481011,0.188436161,0.321643827
0.414304354,0.075577762,0.188415711,0.321702172
0.414169023,0.075674245,0.188396083,0.321760649
0.414033013,0.075770456,0.188377281,0.321819251
0.413896328,0.075866392,0.188359305,0.321877975
0.413758973,0.075962053,0.18834216,0.321936814
0.413620954,0.076057436,0.188325847,0.321995763
0.413482276,0.07615254,0.188310369,0.322054815
0.413342942,0.076247364,0.188295729,0.322113965
0.413202957,0.076341905,0.188281933,0.322173205
0.413062324,0.076436161,0.188268985,0.32223253
0.412921048,0.07653013,0.188256889,0.322291933
0.412779132,0.076623809,0.188245649,0.32235141
0.41263658,0.076717195,0.188235271,0.322410954
0.412493396,0.076810287,0.188225758,0.32247056
0.412349585,0.07690308,0.188217113,0.322530222
0.412205151,0.076995571,0.18820934,0.322589938
0.412060097,0.077087757,0.188202443,0.322649704
0.411914428,0.077179632,0.188196422,0.322709517
0.41176815,0.077271193,0.188191282,0.322769376
0.411621266,0.077362434,0.188187024,0.322829276
0.411473785,0.077453352,0.18818365,0.322889214
0.41132571,0.077543942,0.188181161,0.322949187
0.41117705,0.0776342,0.188179559,0.323009191
0.411027811,0.077724123,0.188178844,0.323069222
0.410878001,0.077813707,0.188179018,0.323129275
0.410727627,0.077902948,0.18818008,0.323189345
0.410576698,0.077991844,0.188182031,0.323249427
0.410425223,0.07808039,0.188184871,0.323309516
0.410273211,0.078168583,0.1881886,0.323369606
0.410120672,0.078256419,0.188193217,0.323429692
0.409967615,0.078343894,0.188198723,0.323489768
0.409814051,0.078431004,0.188205118,0.323549827
0.40965999,0.078517745,0.1882124,0.323609864
0.409505443,0.078604113,0.188220571,0.323669873
0.409350422,0.078690102,0.18822963,0.323729847
0.409194936,0.078775708,0.188239577,0.323789779
0.409038997,0.078860926,0.188250412,0.323849665
0.408882615,0.078945751,0.188262135,0.323909499
0.408725801,0.079030179,0.188274745,0.323969275
0.408568567,0.079114206,0.188288239,0.324028987
0.408410922,0.079197829,0.188302616,0.324088633
0.408252878,0.079281044,0.188317873,0.324148206
0.408094445,0.079363847,0.188334006,0.324207703
0.407935634,0.079446235,0.188351011,0.32426712
0.407776456,0.079528204,0.188368886,0.324326454
0.407616923,0.079609751,0.188387623,0.324385703
0.407457046,0.079690871,0.18840722,0.324444864
0.407296836,0.079771559,0.188427669,0.324503936
0.407136305,0.079851811,0.188448966,0.324562918
0.406975463,0.079931623,0.188471103,0.32462181
0.406814323,0.080010989,0.188494077,0.324680612
0.406652894,0.080089904,0.188517879,0.324739323
0.406491186,0.080168364,0.188542506,0.324797944
0.406329212,0.080246362,0.188567951,0.324856475
0.40616698,0.080323895,0.188594209,0.324914917
0.406004501,0.080400958,0.188621273,0.324973269
0.405841785,0.080477547,0.188649136,0.325031533
0.405678841,0.08055366,0.188677791,0.325089709
0.405515678,0.080629294,0.18870723,0.325147798
0.405352304,0.08070445,0.188737446,0.3252058
0.405188727,0.080779126,0.18876843,0.325263717
0.405024956,0.08085332,0.188800174,0.32532155
0.404860997,0.080927033,0.188832669,0.325379301
0.40469686,0.081000262,0.188865906,0.325436972
0.404532553,0.081073005,0.188899875,0.325494567
0.404368085,0.08114526,0.188934567,0.325552088
0.404203465,0.081217024,0.188969974,0.325609536
0.404038703,0.081288294,0.189006087,0.325666916
0.403873808,0.081359067,0.189042897,0.325724228
0.40370879,0.081429339,0.189080395,0.325781476
0.403543659,0.081499107,0.189118572,0.325838662
0.403378423,0.081568368,0.18915742,0.325895789
0.403213091,0.08163712,0.189196928,0.325952861
0.403047673,0.081705361,0.189237087,0.326009878
0.402882178,0.081773089,0.189277889,0.326066844
0.402716613,0.081840302,0.189319325,0.32612376
0.402550988,0.081906999,0.189361385,0.326180627
0.402385313,0.081973178,0.189404061,0.326237449
0.402219595,0.082038837,0.189447342,0.326294225
0.402053846,0.082103975,0.189491221,0.326350959
0.401888074,0.082168589,0.189535685,0.326407652
0.401722289,0.082232678,0.189580724,0.326464308
0.401556501,0.082296242,0.189626328,0.326520929
0.401390718,0.082359277,0.189672486,0.326577519
0.40122495,0.082421784,0.189719186,0.32663408
0.401059204,0.082483762,0.189766419,0.326690615
0.400893488,0.082545208,0.18981418,0.326747125
0.400727806,0.082606122,0.189862461,0.326803612
0.400562165,0.082666503,0.189911258,0.326860074
0.400396569,0.082726351,0.189960567,0.326916513
0.400231025,0.082785664,0.190010384,0.326972928
0.400065537,0.082844441,0.190060704,0.327029318
0.399900112,0.082902681,0.190111523,0.327085683
0.399734756,0.082960384,0.190162836,0.327142024
0.399569475,0.083017549,0.190214636,0.32719834
0.399404276,0.083074176,0.190266917,0.327254631
0.399239169,0.083130264,0.190319673,0.327310895
0.39907416,0.083185813,0.190372894,0.327367133
0.398909261,0.083240821,0.190426573,0.327423345
0.398744479,0.08329529,0.190480703,0.327479529
0.398579825,0.083349216,0.190535273,0.327535685
0.398415311,0.0834026,0.190590277,0.327591812
0.398250946,0.083455438,0.190645707,0.327647909
0.398086742,0.083507729,0.190701556,0.327703972
0.397922711,0.083559471,0.190757818,0.327760001
0.397758862,0.083610659,0.190814486,0.327815993
0.397595208,0.083661291,0.190871553,0.327871948
0.39743176,0.083711364,0.190929012,0.327927864
0.39726853,0.083760875,0.190986856,0.327983739
0.397105531,0.083809821,0.191045077,0.328039572
0.396942775,0.083858199,0.191103665,0.328095361
0.396780274,0.083906009,0.191162612,0.328151105
0.396618041,0.083953247,0.191221911,0.328206801
0.396456087,0.083999913,0.19128155,0.32826245
0.396294425,0.084046004,0.191341522,0.328318049
0.396133069,0.084091516,0.191401816,0.328373598
0.395972031,0.084136449,0.191462423,0.328429096
0.395811325,0.084180799,0.191523334,0.328484542
0.395650964,0.084224562,0.191584538,0.328539935
0.395490962,0.084267736,0.191646028,0.328595274
0.395331332,0.084310318,0.191707793,0.328650557
0.395172087,0.084352304,0.191769826,0.328705783
0.395013242,0.084393693,0.191832118,0.328760947
0.39485481,0.084434482,0.19189466,0.328816048
0.394696807,0.084474668,0.191957445,0.328871081
0.394539246,0.084514248,0.192020464,0.328926043
0.394382142,0.084553219,0.192083708,0.328980931
0.394225511,0.084591579,0.192147169,0.329035741
0.394069365,0.084629326,0.192210839,0.32909047
0.393913719,0.084666457,0.192274708,0.329145115
0.393758587,0.084702972,0.192338768,0.329199673
0.393603982,0.084738869,0.192403008,0.329254141
0.393449916,0.084774148,0.19246742,0.329308517
0.393296403,0.084808807,0.192531994,0.329362796
0.393143455,0.084842848,0.19259672,0.329416977
0.392991084,0.084876269,0.19266159,0.329471057
0.392839303,0.084909072,0.192726594,0.329525031
0.392688126,0.084941256,0.19279172,0.329578899
0.392537566,0.084972821,0.192856957,0.329632656
0.392387638,0.085003766,0.192922294,0.329686302
0.392238357,0.085034091,0.192987719,0.329739833
0.392089736,0.085063794,0.193053221,0.329793248
0.39194179,0.085092873,0.193118793,0.329846544
0.391794532,0.085121325,0.193184426,0.329899717
0.391647974,0.085149148,0.193250116,0.329952762
0.39150213,0.085176337,0.193315856,0.330005677
0.391357012,0.085202888,0.193381641,0.330058459
0.391212632,0.085228798,0.193447465,0.330111105
0.391069002,0.085254063,0.193513321,0.330163613
0.390926136,0.085278679,0.193579203,0.330215982
0.390784047,0.085302642,0.193645103,0.330268208
0.390642748,0.085325947,0.193711014,0.330320291
0.390502253,0.085348593,0.193776929,0.330372226
0.390362576,0.085370574,0.19384284,0.33042401
0.390223732,0.085391887,0.193908742,0.330475639
0.390085734,0.08541253,0.193974627,0.330527109
0.389948597,0.085432499,0.194040487,0.330578417
0.389812335,0.085451791,0.194106317,0.330629557
0.389676963,0.085470402,0.194172108,0.330680526
0.389542495,0.08548833,0.194237855,0.33073132
0.389408944,0.08550557,0.194303552,0.330781935
0.389276325,0.085522118,0.19436919,0.330832367
0.389144651,0.085537972,0.194434765,0.330882612
0.389013933,0.085553129,0.19450027,0.330932668
0.388884185,0.085567586,0.1945657,0.330982529
0.388755416,0.085581341,0.194631052,0.331032192
0.388627637,0.085594392,0.194696319,0.331081652
0.38850086,0.085606738,0.194761497,0.331130906
0.388375094,0.085618377,0.19482658,0.331179949
0.388250351,0.085629309,0.194891563,0.331228777
0.38812664,0.085639532,0.19495644,0.331277388
0.388003973,0.085649045,0.195021206,0.331325777
0.387882358,0.085657845,0.195085855,0.331373941
0.387761807,0.085665932,0.195150384,0.331421878
0.387642327,0.085673302,0.195214788,0.331469583
0.387523927,0.085679955,0.195279065,0.331517053
0.387406617,0.085685888,0.19534321,0.331564284
0.387290405,0.085691101,0.195407222,0.331611273
0.387175298,0.085695592,0.195471096,0.331658015
0.387061304,0.085699359,0.19553483,0.331704507
0.386948432,0.085702402,0.195598419,0.331750746
0.386836689,0.085704721,0.195661861,0.331796729
0.386726083,0.085706313,0.195725151,0.331842452
0.386616623,0.08570718,0.195788285,0.331887912
0.386508314,0.085707321,0.195851258,0.331933106
0.386401166,0.085706737,0.195914068,0.331978029
0.386295183,0.085705429,0.195976709,0.332022679
0.386190374,0.085703395,0.196039179,0.332067052
0.386086745,0.085700639,0.196101472,0.332111144
0.385984302,0.085697159,0.196163586,0.332154954
0.385883052,0.085692956,0.196225516,0.332198476
0.385783001,0.08568803,0.196287259,0.33224171
0.385684155,0.085682382,0.196348812,0.332284651
0.385586521,0.085676011,0.19641017,0.332327298
0.385490105,0.085668919,0.196471328,0.332369648
0.385394912,0.085661107,0.196532281,0.3324117
0.385300949,0.085652575,0.196593025,0.332453451
0.385208219,0.085643326,0.196653554,0.332494901
0.385116729,0.08563336,0.196713862,0.332536049
0.385026485,0.085622679,0.196773943,0.332576893
0.384937494,0.085611285,0.196833789,0.332617433
0.384849764,0.085599177,0.196893393,0.332657665
0.384763305,0.085586357,0.196952748,0.33269759
0.384678126,0.085572825,0.197011846,0.332737202
0.384594238,0.085558579,0.197070682,0.332776501
0.384511651,0.085543618,0.197129248,0.332815482
0.384430376,0.08552794,0.197187543,0.332854141
0.384350421,0.085511543,0.197245562,0.332892474
0.384271798,0.085494423,0.197303303,0.332930476
0.384194517,0.085476578,0.197360762,0.332968143
0.384118588,0.085458005,0.197417939,0.333005468
0.384044024,0.085438699,0.197474831,0.333042446
0.383970836,0.085418656,0.197531435,0.333079072
0.383899035,0.085397873,0.197587753,0.333115339
0.383828632,0.085376344,0.197643782,0.333151242
0.383759639,0.085354066,0.197699523,0.333186772
0.383692065,0.085331034,0.197754977,0.333221923
0.38362592,0.085307245,0.197810146,0.333256689
0.383561213,0.085282694,0.197865031,0.333291062
0.383497953,0.085257379,0.197919632,0.333325036
0.383436147,0.085231296,0.197973951,0.333358605
0.383375804,0.085204443,0.198027988,0.333391765
0.383316931,0.085176816,0.198081743,0.333424509
0.383259534,0.085148415,0.198135217,0.333456835
0.38320362,0.085119235,0.198188408,0.333488736
0.383149197,0.085089276,0.198241318,0.333520209
0.383096271,0.085058536,0.198293945,0.333551249
0.383044848,0.085027014,0.198346287,0.333581851
0.382994934,0.084994708,0.198398345,0.333612013
0.382946536,0.084961619,0.198450115,0.33364173
0.382899659,0.084927745,0.198501597,0.333670999
0.382854308,0.084893086,0.19855279,0.333699816
0.382810491,0.084857641,0.19860369,0.333728178
0.382768212,0.084821411,0.198654297,0.333756081
0.382727476,0.084784393,0.198704609,0.333783523
0.38268829,0.084746586,0.198754624,0.3338105
0.382650659,0.08470799,0.198804342,0.333837009
0.382614585,0.084668604,0.198853762,0.333863049
0.382580075,0.084628426,0.198902883,0.333888616
0.382547131,0.084587456,0.198951705,0.333913708
0.382515758,0.084545694,0.199000228,0.333938321
0.382485958,0.08450314,0.199048449,0.333962453
0.382457736,0.084459794,0.19909637,0.333986101
0.382431093,0.084415657,0.199143988,0.334009262
0.382406032,0.084370731,0.199191302,0.334031934
0.382382557,0.084325016,0.199238312,0.334054115
0.382360671,0.084278514,0.199285015,0.334075801
0.382340377,0.084231225,0.199331409,0.334096989
0.382321679,0.084183152,0.199377494,0.334117675
0.382304582,0.084134295,0.199423267,0.334137856
0.382289089,0.084084655,0.199468728,0.334157528
0.382275205,0.084034233,0.199513876,0.334176686
0.382262935,0.083983028,0.19955871,0.334195328
0.382252281,0.08393104,0.199603231,0.334213447
0.382243247,0.083878271,0.199647441,0.334231041
0.382235834,0.08382472,0.199691343,0.334248104
0.382230044,0.083770387,0.199734938,0.334264631
0.38222588,0.083715272,0.19977823,0.334280618
0.382223346,0.083659376,0.199821219,0.33429606
0.382222444,0.083602698,0.199863907,0.334310951
0.382223179,0.083545241,0.199906294,0.334325286
0.382225556,0.083487003,0.199948381,0.33433906
0.382229579,0.083427986,0.199990167,0.334352268
0.382235252,0.083368189,0.200031654,0.334364905
0.38224258,0.083307613,0.200072841,0.334376966
0.382251569,0.083246258,0.200113729,0.334388443
0.382262223,0.083184125,0.20015432,0.334399332
0.382274547,0.083121212,0.200194613,0.334409627
0.382288546,0.083057521,0.200234609,0.334419324
0.382304225,0.08299305,0.200274308,0.334428417
0.382321588,0.0829278,0.200313709,0.334436903
0.382340641,0.08286177,0.200352811,0.334444779
0.382361388,0.08279496,0.200391612,0.334452039
0.382383835,0.082727372,0.200430111,0.334458682
0.382407988,0.082659008,0.200468303,0.334464702
0.382433851,0.082589867,0.200506185,0.334470097
0.382461428,0.082519953,0.200543754,0.334474865
0.382490721,0.082449267,0.200581008,0.334479003
0.382521734,0.08237781,0.200617945,0.33448251
0.382554469,0.082305584,0.200654563,0.334485383
0.382588929,0.08223259,0.200690861,0.33448762
0.382625117,0.082158827,0.200726838,0.334489217
0.382663037,0.082084297,0.200762492,0.334490174
0.382702692,0.082008998,0.200797822,0.334490488
0.382744086,0.08193293,0.200832828,0.334490157
0.382787221,0.081856092,0.200867506,0.33448918
0.382832103,0.081778482,0.200901856,0.334487559
0.382878734,0.081700101,0.200935874,0.334485292
0.382927116,0.081620946,0.200969558,0.33448238
0.38297725,0.081541018,0.201002907,0.334478825
0.383029138,0.081460315,0.201035918,0.334474629
0.383082778,0.081378837,0.20106859,0.334469795
0.383138169,0.081296583,0.201100923,0.334464325
0.383195311,0.081213551,0.201132914,0.334458224
0.383254204,0.08112974,0.201164563,0.334451493
0.383314845,0.081045149,0.201195868,0.334444137
0.383377234,0.080959777,0.201226828,0.33443616
0.383441369,0.080873623,0.201257442,0.334427566
0.383507246,0.080786687,0.20128771,0.334418357
0.383574862,0.080698969,0.201317631,0.334408538
0.383644214,0.080610469,0.201347206,0.334398111
0.383715298,0.08052119,0.201376434,0.334387078
0.38378811,0.080431135,0.201405315,0.33437544
0.383862645,0.080340308,0.201433848,0.3343632
0.383938898,0.080248715,0.20146203,0.334350357
0.384016864,0.080156362,0.20148986,0.334336914
0.384096537,0.080063256,0.201517338,0.334322869
0.384177911,0.079969403,0.201544461,0.334308225
0.384260977,0.07987481,0.201571231,0.334292982
0.38434573,0.079779483,0.201597647,0.33427714
0.384432162,0.079683427,0.201623709,0.334260702
0.384520266,0.079586648,0.201649417,0.334243669
0.384610036,0.079489151,0.20167477,0.334226043
0.384701467,0.079390941,0.201699767,0.334207825
0.384794554,0.079292023,0.201724407,0.334189016
0.384889293,0.079192401,0.201748687,0.334169619
0.384985679,0.079092081,0.201772605,0.334149635
0.385083709,0.078991066,0.201796159,0.334129065
0.385183381,0.078889362,0.201819347,0.33410791
0.385284692,0.078786972,0.201842166,0.33408617
0.385387641,0.078683903,0.20186461,0.334063846
0.385492227,0.078580157,0.201886679,0.334040937
0.385598448,0.07847574,0.201908368,0.334017444
0.385706301,0.078370657,0.201929676,0.333993366
0.385815785,0.078264912,0.201950604,0.333968699
0.385926896,0.078158509,0.201971152,0.333943443
0.386039631,0.078051451,0.201991323,0.333917595
0.386153986,0.077943744,0.202011117,0.333891154
0.386269958,0.077835389,0.202030537,0.333864117
0.386387542,0.077726391,0.202049585,0.333836481
0.386506736,0.077616755,0.202068264,0.333808245
0.386627534,0.077506483,0.202086576,0.333779406
0.386749932,0.077395582,0.202104525,0.333749961
0.386873924,0.077284055,0.202122112,0.333719909
0.386999506,0.077171908,0.202139339,0.333689246
0.387126672,0.077059146,0.20215621,0.333657972
0.387255418,0.076945772,0.202172726,0.333626084
0.387385739,0.076831792,0.202188888,0.333593581
0.38751763,0.076717209,0.202204699,0.333560462
0.387651085,0.076602029,0.202220161,0.333526725
0.3877861,0.076486256,0.202235277,0.333492367
0.387922667,0.076369896,0.202250049,0.333457388
0.388060779,0.076252953,0.202264483,0.333421785
0.38820043,0.076135433,0.202278581,0.333385556
0.388341611,0.076017341,0.202292349,0.333348699
0.388484314,0.075898682,0.202305792,0.333311212
0.38862853,0.075779461,0.20231892,0.333273089
0.38877425,0.075659682,0.202331742,0.333234326
0.388921462,0.075539351,0.202344268,0.333194919
0.389070158,0.075418472,0.202356508,0.333154862
0.389220329,0.075297047,0.202368474,0.33311415
0.389371966,0.075175082,0.202380172,0.33307278
0.389525059,0.07505258,0.202391613,0.333030747
0.3896796,0.074929545,0.202402806,0.33298805
0.38983558,0.07480598,0.202413757,0.332944684
0.38999299,0.074681889,0.202424476,0.332900646
0.390151822,0.074557275,0.20243497,0.332855933
0.39031207,0.074432141,0.202445248,0.332810541
0.390473726,0.074306492,0.202455317,0.332764466
0.390636783,0.074180329,0.202465185,0.332717703
0.390801234,0.074053656,0.202474861,0.332670249
0.39096707,0.073926478,0.202484353,0.332622099
0.391134283,0.073798799,0.202493666,0.332573251
0.391302865,0.073670624,0.202502809,0.332523701
0.391472807,0.073541958,0.202511788,0.332473447
0.391644098,0.073412806,0.202520611,0.332422485
0.391816728,0.073283174,0.202529286,0.332370812
0.391990685,0.073153066,0.202537823,0.332318426
0.392165959,0.073022488,0.202546231,0.332265322
0.392342537,0.072891444,0.202554519,0.332211499
0.39252041,0.072759939,0.202562696,0.332156955
0.392699566,0.072627976,0.202570769,0.332101689
0.392879995,0.072495559,0.202578745,0.332045701
0.393061687,0.072362694,0.202586628,0.331988991
0.393244631,0.072229385,0.202594426,0.331931558
0.393428817,0.072095637,0.202602143,0.331873404
0.393614232,0.071961456,0.202609784,0.331814528
0.393800867,0.071826849,0.202617353,0.331754931
0.393988709,0.071691819,0.202624857,0.331694614
0.394177747,0.071556372,0.202632302,0.331633579
0.394367968,0.071420513,0.202639693,0.331571826
0.39455936,0.071284245,0.202647038,0.331509357
0.394751913,0.071147573,0.202654342,0.331446173
0.394945617,0.0710105,0.202661609,0.331382273
0.395140465,0.07087303,0.202668845,0.331317659
0.395336449,0.070735166,0.202676054,0.331252332
0.39553356,0.070596911,0.202683237,0.331186292
0.395731791,0.070458268,0.202690399,0.331119543
0.395931132,0.070319239,0.202697542,0.331052087
0.396131576,0.070179828,0.202704668,0.330983928
0.396333114,0.070040037,0.20271178,0.330915069
0.396535734,0.069899869,0.20271888,0.330845516
0.396739427,0.06975933,0.20272597,0.330775274
0.396944181,0.069618423,0.202733049,0.330704347
0.397149984,0.069477153,0.202740119,0.330632744
0.397356823,0.069335523,0.202747183,0.330560471
0.397564685,0.069193539,0.202754243,0.330487533
0.397773557,0.069051204,0.202761302,0.330413936
0.397983426,0.068908521,0.202768366,0.330339687
0.398194277,0.068765493,0.20277544,0.33026479
0.398406098,0.068622122,0.202782529,0.330189252
0.398618875,0.068478412,0.202789636,0.330113077
0.398832596,0.068334366,0.202796765,0.330036273
0.39904725,0.068189987,0.202803917,0.329958846
0.399262824,0.06804528,0.202811094,0.329880801
0.399479305,0.06790025,0.202818297,0.329802148
0.399696681,0.067754901,0.202825525,0.329722894
0.399914938,0.067609236,0.202832778,0.329643048
0.400134061,0.067463261,0.202840056,0.329562622
0.400354037,0.067316979,0.202847357,0.329481627
0.400574851,0.067170393,0.20285468,0.329400076
0.400796487,0.067023508,0.202862026,0.329317979
0.401018931,0.066876327,0.202869393,0.329235349
0.401242164,0.066728853,0.202876785,0.329152198
0.401466172,0.066581091,0.202884201,0.329068536
0.401690937,0.066433046,0.202891641,0.328984376
0.401916442,0.066284721,0.202899106,0.328899731
0.402142671,0.066136122,0.202906593,0.328814614
0.402369607,0.065987252,0.202914101,0.32872904
0.402597235,0.065838115,0.202921625,0.328643024
0.40282554,0.065688715,0.202929163,0.328556582
0.403054506,0.065539055,0.20293671,0.328469729
0.403284122,0.065389138,0.202944262,0.328382479
0.403514373,0.065238968,0.202951813,0.328294846
0.403745246,0.065088549,0.202959361,0.328206843
0.40397673,0.064937888,0.202966902,0.32811848
0.404208813,0.064786989,0.20297443,0.328029768
0.404441482,0.06463586,0.202981941,0.327940717
0.404674726,0.064484509,0.202989429,0.327851336
0.404908531,0.064332943,0.20299689,0.327761636
0.405142887,0.064181168,0.203004316,0.327671628
0.405377783,0.064029191,0.203011704,0.327581322
0.405613205,0.063877018,0.203019047,0.32749073
0.405849144,0.063724655,0.203026339,0.327399861
0.406085589,0.063572106,0.203033576,0.327308728
0.406322529,0.063419378,0.203040752,0.327217342
0.406559953,0.063266475,0.203047861,0.327125711
0.406797852,0.063113403,0.203054899,0.327033847
0.407036213,0.062960166,0.203061862,0.326941759
0.407275027,0.06280677,0.203068747,0.326849456
0.407514283,0.062653219,0.203075549,0.326756949
0.407753972,0.062499518,0.203082264,0.326664247
0.407994084,0.062345671,0.203088886,0.326571359
0.408234611,0.062191683,0.203095411,0.326478294
0.408475542,0.062037561,0.203101833,0.326385064
0.408716865,0.061883311,0.203108147,0.326291677
0.408958569,0.061728941,0.203114347,0.326198144
0.409200642,0.061574459,0.203120426,0.326104474
0.409443072,0.061419874,0.203126379,0.326010676
0.409685847,0.061265195,0.203132199,0.325916759
0.409928956,0.061110431,0.20313788,0.325822733
0.410172384,0.060955592,0.203143416,0.325728607
0.410416122,0.060800687,0.203148802,0.325634389
0.410660157,0.060645724,0.203154031,0.325540088
0.410904478,0.060490711,0.203159098,0.325445713
0.411149075,0.060335656,0.203163997,0.325351273
0.411393936,0.060180567,0.20316872,0.325256776
0.411639052,0.060025452,0.203173262,0.325162235
0.411884413,0.059870316,0.203177614,0.325067658
0.412130008,0.059715166,0.203181768,0.324973058
0.41237583,0.059560007,0.203185716,0.324878447
0.412621869,0.059404845,0.203189448,0.324783838
0.412868117,0.059249685,0.203192956,0.324689242
0.413114565,0.059094532,0.20319623,0.324594674
0.413361203,0.05893939,0.203199261,0.324500146
0.413608022,0.058784266,0.20320204,0.324405671
0.413855009,0.058629165,0.203204562,0.324311264
0.414102153,0.058474093,0.203206819,0.324216935
0.41434944,0.058319057,0.203208804,0.324122699
0.414596858,0.058164063,0.203210512,0.324028567
0.414844392,0.058009118,0.203211938,0.323934552
0.415092029,0.057854229,0.203213075,0.323840667
0.415339754,0.057699401,0.203213919,0.323746926
0.415587553,0.057544641,0.203214463,0.323653343
0.415835411,0.057389955,0.203214702,0.323559933
0.416083314,0.057235347,0.203214627,0.323466712
0.416331247,0.057080824,0.203214233,0.323373695
0.416579197,0.05692639,0.203213513,0.323280899
0.416827151,0.056772051,0.203212461,0.323188338
0.417075092,0.056617812,0.203211071,0.323096025
0.417323008,0.056463678,0.203209339,0.323003975
0.417570883,0.056309654,0.203207261,0.322912202
0.417818703,0.056155746,0.203204832,0.322820719
0.418066456,0.056001957,0.203202048,0.32272954
0.418314127,0.055848293,0.203198903,0.322638677
0.418561705,0.055694759,0.203195392,0.322548145
0.418809175,0.055541358,0.203191511,0.322457956
0.419056525,0.055388096,0.203187255,0.322368124
0.419303741,0.055234977,0.203182619,0.322278663
0.419550813,0.055082006,0.203177598,0.322189584
0.419797726,0.054929186,0.203172187,0.322100901
0.42004447,0.054776522,0.203166381,0.322012627
0.420291031,0.054624019,0.203160177,0.321924773
0.420537399,0.054471681,0.20315357,0.32183735
0.42078356,0.054319514,0.203146555,0.321750371
0.4210295,0.054167526,0.203139129,0.321663845
0.421275207,0.054015723,0.203131287,0.321577783
0.421520668,0.05386411,0.203123025,0.321492196
0.421765873,0.053712696,0.203114337,0.321407095
0.422010809,0.053561485,0.203105218,0.321322488
0.422255466,0.053410484,0.203095664,0.321238385
0.422499834,0.053259698,0.203085671,0.321154797
0.422743901,0.053109132,0.203075236,0.321071731
0.422987657,0.052958792,0.203064355,0.320989196
0.423231093,0.052808683,0.203053024,0.3209072
0.423474201,0.05265881,0.203041238,0.320825751
0.423716973,0.052509177,0.203028994,0.320744857
0.423959403,0.052359788,0.203016287,0.320664522
0.424201486,0.052210648,0.203003114,0.320584753
0.424443215,0.05206176,0.20298947,0.320505556
0.424684585,0.051913127,0.202975351,0.320426937
0.424925593,0.051764753,0.202960753,0.320348901
0.425166234,0.05161664,0.202945671,0.320271455
0.425406502,0.051468792,0.202930102,0.320194604
0.425646394,0.051321212,0.20291404,0.320118354
0.425885904,0.051173903,0.202897482,0.32004271
0.426125026,0.051026869,0.202880426,0.319967678
0.426363754,0.050880114,0.20286287,0.319893262
0.426602076,0.050733643,0.202844816,0.319819465
0.426839986,0.050587459,0.202826264,0.319746291
0.427077472,0.050441568,0.202807216,0.319673744
0.427314527,0.050295974,0.202787673,0.319601827
0.427551142,0.05015068,0.202767634,0.319530544
0.427787313,0.05000569,0.2027471,0.319459897
0.428023033,0.049861008,0.202726069,0.31938989
0.428258297,0.049716637,0.202704541,0.319320525
0.4284931,0.049572577,0.202682517,0.319251805
0.428727439,0.049428831,0.202659999,0.319183731
0.428961311,0.049285401,0.202636985,0.319116303
0.429194713,0.049142287,0.202613478,0.319049521
0.429427644,0.048999492,0.202589477,0.318983387
0.429660103,0.048857016,0.202564982,0.318917899
0.429892087,0.048714861,0.202539994,0.318853058
0.430123594,0.048573028,0.202514513,0.318788864
0.430354622,0.048431519,0.202488541,0.318725318
0.430585166,0.048290335,0.202462077,0.318662422
0.430815223,0.048149478,0.202435121,0.318600178
0.431044787,0.048008949,0.202407673,0.318538591
0.431273855,0.04786875,0.202379733,0.318477662
0.431502421,0.047728882,0.202351299,0.318417398
0.43173048,0.047589346,0.202322371,0.318357803
0.431958026,0.047450143,0.202292947,0.318298883
0.432185053,0.047311274,0.202263028,0.318240645
0.432411554,0.04717274,0.202232613,0.318183093
0.432637522,0.047034542,0.202201701,0.318126235
0.432862949,0.046896683,0.202170291,0.318070077
0.433087826,0.046759165,0.202138383,0.318014626
0.433312145,0.046621987,0.202105977,0.317959891
0.433535898,0.046485153,0.202073072,0.317905877
0.433759074,0.046348662,0.202039671,0.317852592
0.433981665,0.046212517,0.202005777,0.317800041
0.434203662,0.046076718,0.201971391,0.31774823
0.434425053,0.045941267,0.201936517,0.317697163
0.434645832,0.045806166,0.201901157,0.317646844
0.434865989,0.045671418,0.201865314,0.317597279
0.435085517,0.045537024,0.201828988,0.31754847
0.435304408,0.045402989,0.20179218,0.317500422
0.435522655,0.045269316,0.201754891,0.317453138
0.435740252,0.045136007,0.201717119,0.317406621
0.435957194,0.045003067,0.201678865,0.317360874
0.436173477,0.044870498,0.201640128,0.317315897
0.436389099,0.044738303,0.201600906,0.317271693
0.436604056,0.044606483,0.201561197,0.317228264
0.436818346,0.044475041,0.201521001,0.317185612
0.437031966,0.044343979,0.201480316,0.317143739
0.437244913,0.044213299,0.201439139,0.31710265
0.437457184,0.044083001,0.201397469,0.317062346
0.437668776,0.043953089,0.201355305,0.31702283
0.437879686,0.043823563,0.201312646,0.316984105
0.438089908,0.043694427,0.201269493,0.316946172
0.438299437,0.043565683,0.201225846,0.316909034
0.438508264,0.043437334,0.201181709,0.316872693
0.438716383,0.043309383,0.201137083,0.316837151
0.438923786,0.043181834,0.20109197,0.316802411
0.439130467,0.04305469,0.20104637,0.316768473
0.439336421,0.042927953,0.201000286,0.31673534
0.439541643,0.042801626,0.200953719,0.316703011
0.439746126,0.042675713,0.20090667,0.31667149
0.439949866,0.042550216,0.200859142,0.316640776
0.440152856,0.042425139,0.200811135,0.31661087
0.440355089,0.042300485,0.200762652,0.316581774
0.440556558,0.042176258,0.200713696,0.316553488
0.440757258,0.04205246,0.20066427,0.316526013
0.44095718,0.041929094,0.200614374,0.316499352
0.441156318,0.041806162,0.200564011,0.316473509
0.441354666,0.041683667,0.200513182,0.316448485
0.441552216,0.041561609,0.200461889,0.316424286
0.441748962,0.041439991,0.200410133,0.316400915
0.441944894,0.041318813,0.200357914,0.316378378
0.442140007,0.041198077,0.200305235,0.31635668
0.442334293,0.041077785,0.200252095,0.316335827
0.442527744,0.040957935,0.200198496,0.316315824
0.442720353,0.040838531,0.200144439,0.316296677
0.442912114,0.040719572,0.200089924,0.316278391
0.443103019,0.040601061,0.200034952,0.316260968
0.443293065,0.040483,0.199979521,0.316244414
0.443482244,0.040365394,0.199923632,0.31622873
0.443670552,0.040248247,0.199867282,0.316213919
0.443857984,0.040131561,0.199810472,0.316199983
0.444044536,0.040015341,0.199753199,0.316186924
0.444230202,0.039899589,0.199695464,0.316174745
0.444414978,0.039784308,0.199637268,0.316163446
0.44459886,0.039669499,0.199578613,0.316153029
0.444781843,0.039555164,0.1995195,0.316143494
0.444963923,0.039441306,0.19945993,0.316134841
0.445145097,0.039327924,0.199399906,0.316127072
0.445325363,0.039215023,0.199339428,0.316120187
0.445504715,0.039102602,0.199278497,0.316114186
0.445683148,0.038990665,0.199217118,0.31610907
0.445860656,0.038879213,0.199155292,0.316104839
0.446037231,0.038768249,0.199093025,0.316101495
0.446212865,0.038657776,0.199030321,0.316099038
0.446387548,0.038547796,0.198967186,0.31609747
0.446561269,0.038438311,0.198903626,0.316096794
0.446734019,0.038329323,0.198839647,0.316097011
0.446905787,0.038220837,0.198775254,0.316098122
0.447076565,0.038112853,0.198710453,0.316100129
0.447246344,0.038005376,0.19864525,0.31610303
0.447415116,0.037898407,0.19857965,0.316106827
0.447582872,0.037791949,0.198513659,0.31611152
0.447749605,0.037686003,0.198447283,0.316117109
0.447915307,0.03758057,0.198380528,0.316123594
0.448079972,0.037475653,0.198313401,0.316130974
0.448243592,0.037371252,0.198245908,0.316139248
0.448406163,0.037267367,0.198178056,0.316148413
0.44856768,0.037163999,0.198109852,0.316158469
0.448728137,0.037061148,0.198041302,0.316169414
0.44888753,0.036958813,0.197972412,0.316181244
0.449045856,0.036856995,0.197903189,0.31619396
0.449203112,0.036755692,0.197833639,0.316207557
0.449359293,0.036654904,0.197763769,0.316222034
0.449514396,0.036554631,0.197693585,0.316237388
0.449668419,0.036454872,0.197623094,0.316253615
0.449821357,0.036355628,0.197552302,0.316270712
0.449973208,0.0362569,0.197481217,0.316288675
0.45012397,0.036158688,0.197409842,0.3163075
0.450273639,0.036060995,0.197338183,0.316327182
0.450422212,0.035963823,0.197266245,0.316347719
0.450569687,0.035867173,0.197194032,0.316369108
0.45071606,0.035771047,0.197121548,0.316391345
0.450861327,0.035675447,0.197048799,0.316414427
0.451005484,0.035580371,0.196975791,0.316438354
0.451148527,0.035485822,0.19690253,0.316463121
0.451290451,0.035391797,0.196829022,0.316488729
0.451431253,0.035298298,0.196755271,0.316515178
0.451570925,0.035205322,0.196681284,0.31654247
0.451709463,0.035112869,0.196607063,0.316570606
0.451846859,0.035020937,0.196532615,0.316599589
0.451983107,0.034929528,0.196457945,0.31662942
0.452118199,0.03483864,0.196383058,0.316660103
0.452252127,0.034748276,0.19630796,0.316691637
0.45238488,0.034658439,0.196232657,0.316724024
0.45251645,0.034569131,0.196157154,0.316757265
0.452646827,0.034480356,0.196081456,0.316791361
0.452776001,0.034392118,0.196005569,0.316826312
0.452903962,0.03430442,0.195929496,0.316862122
0.453030703,0.034217264,0.195853241,0.316898792
0.453156215,0.034130655,0.195776807,0.316936323
0.453280489,0.034044596,0.195700196,0.316974719
0.453403519,0.033959088,0.195623412,0.317013981
0.163003323,0.087744389,0.073823484,0.675428805
0.162982432,0.087771905,0.073725252,0.67552041
0.162961667,0.087799396,0.073627294,0.675611644
0.162941025,0.087826861,0.073529611,0.675702503
0.162920507,0.087854302,0.07343221,0.675792981
0.16290011,0.087881719,0.073335093,0.675883077
0.162879835,0.087909114,0.073238264,0.675972787
0.162859679,0.087936488,0.073141726,0.676062107
0.162839642,0.087963841,0.073045482,0.676151035
0.162819724,0.087991173,0.072949536,0.676239567
0.162799925,0.088018486,0.07285389,0.676327699
0.162780243,0.08804578,0.072758549,0.676415428
0.162760679,0.088073054,0.072663517,0.676502749
0.162741233,0.088100309,0.0725688,0.676589658
0.162721904,0.088127544,0.072474402,0.67667615
0.162702693,0.088154758,0.072380329,0.67676222
0.162683599,0.088181951,0.072286586,0.676847864
0.162664622,0.088209124,0.072193176,0.676933078
0.162645764,0.088236275,0.072100104,0.677017857
0.162627023,0.088263406,0.072007373,0.677102197
0.162608402,0.088290518,0.071914987,0.677186093
0.162589901,0.08831761,0.071822949,0.67726954
0.162571521,0.088344684,0.071731262,0.677352534
0.162553263,0.088371741,0.071639928,0.677435068
0.162535129,0.088398783,0.071548951,0.677517138
0.162517118,0.088425812,0.071458334,0.677598736
0.162499233,0.088452829,0.071368081,0.677679857
0.162481472,0.088479835,0.071278197,0.677760495
0.162463838,0.088506833,0.071188686,0.677840644
0.162446328,0.088533823,0.071099551,0.677920298
0.162428944,0.088560807,0.071010795,0.677999454
0.162411686,0.088587786,0.070922424,0.678078104
0.162394553,0.088614765,0.070834439,0.678156244
0.162377547,0.088641743,0.070746844,0.678233866
0.162360667,0.088668725,0.070659644,0.678310964
0.162343913,0.088695713,0.070572842,0.678387532
0.162327287,0.088722708,0.070486443,0.678463562
0.162310787,0.088749713,0.070400451,0.678539049
0.162294415,0.088776729,0.070314869,0.678613987
0.162278169,0.088803759,0.0702297,0.678688371
0.16226205,0.088830802,0.070144949,0.678762198
0.162246058,0.088857862,0.070060617,0.678835464
0.162230191,0.088884939,0.069976707,0.678908163
0.16221445,0.088912035,0.069893222,0.678980293
0.162198834,0.088939153,0.069810165,0.679051848
0.162183343,0.088966295,0.069727537,0.679122826
0.162167974,0.088993462,0.069645342,0.679193222
0.162152728,0.089020657,0.069563583,0.679263032
0.162137603,0.089047881,0.069482263,0.679332253
0.162122597,0.089075135,0.069401386,0.679400881
0.162107711,0.089102421,0.069320956,0.679468912
0.162092943,0.089129739,0.069240974,0.679536343
0.162078293,0.089157091,0.069161445,0.679603171
0.162063759,0.089184478,0.069082369,0.679669394
0.162049341,0.089211899,0.069003751,0.67973501
0.162035037,0.089239357,0.068925592,0.679800015
0.162020846,0.089266851,0.068847894,0.679864408
0.162006767,0.089294383,0.068770662,0.679928188
0.161992797,0.089321954,0.068693897,0.679991352
0.161978936,0.089349564,0.068617603,0.680053897
0.161965181,0.089377214,0.068541783,0.680115822
0.161951531,0.089404905,0.068466441,0.680177123
0.161937982,0.089432639,0.06839158,0.680237799
0.161924532,0.089460415,0.068317203,0.680297849
0.161911179,0.089488236,0.068243314,0.680357271
0.16189792,0.089516102,0.068169915,0.680416062
0.161884753,0.089544015,0.068097011,0.680474221
0.161871675,0.089571975,0.068024603,0.680531746
0.161858683,0.089599984,0.067952695,0.680588638
0.161845775,0.089628042,0.067881288,0.680644894
0.161832946,0.089656151,0.067810385,0.680700517
0.161820195,0.089684311,0.067739988,0.680755506
0.161807518,0.089712523,0.067670096,0.680809863
0.161794912,0.089740786,0.067600712,0.68086359
0.161782373,0.089769102,0.067531837,0.680916689
0.161769898,0.08979747,0.067463471,0.68096916
0.161757485,0.089825892,0.067395617,0.681021006
0.16174513,0.089854366,0.067328276,0.681072228
0.16173283,0.089882894,0.067261449,0.681122827
0.161720582,0.089911474,0.067195136,0.681172807
0.161708382,0.089940108,0.067129341,0.68122217
0.161696226,0.089968793,0.067064064,0.681270917
0.16168411,0.08999753,0.066999306,0.681319053
0.161672032,0.090026317,0.06693507,0.681366581
0.161659987,0.090055153,0.066871356,0.681413503
0.161647971,0.090084038,0.066808166,0.681459825
0.16163598,0.09011297,0.066745499,0.681505551
0.161624011,0.090141948,0.066683357,0.681550683
0.16161206,0.090170972,0.066621741,0.681595227
0.161600123,0.090200041,0.066560649,0.681639188
0.161588196,0.090229153,0.066500083,0.681682568
0.161576277,0.090258308,0.066440042,0.681725373
0.161564361,0.090287507,0.066380525,0.681767608
0.161552445,0.090316748,0.066321532,0.681809276
0.161540525,0.090346032,0.066263063,0.68185038
0.161528597,0.09037536,0.066205119,0.681890923
0.161516659,0.090404732,0.066147702,0.681930906
0.161504707,0.090434149,0.066090813,0.681970331
0.161492738,0.090463609,0.066034455,0.682009198
0.161480749,0.090493114,0.065978627,0.682047509
0.161468738,0.090522663,0.065923333,0.682085265
0.161456703,0.090552256,0.065868574,0.682122467
0.16144464,0.090581892,0.065814351,0.682159117
0.161432547,0.090611571,0.065760666,0.682195216
0.16142042,0.090641294,0.06570752,0.682230766
0.161408256,0.09067106,0.065654913,0.682265771
0.161396052,0.090700869,0.065602849,0.68230023
0.161383804,0.090730722,0.065551326,0.682334147
0.16137151,0.090760619,0.065500348,0.682367523
0.161359167,0.09079056,0.065449915,0.682400358
0.161346775,0.090820545,0.065400028,0.682432652
0.161334333,0.090850573,0.065350688,0.682464406
0.161321839,0.090880645,0.065301897,0.68249562
0.161309293,0.09091076,0.065253655,0.682526293
0.161296694,0.090940917,0.065205964,0.682556425
0.161284043,0.090971117,0.065158825,0.682586015
0.16127134,0.09100136,0.065112237,0.682615064
0.161258584,0.091031645,0.0650662,0.682643571
0.161245777,0.091061971,0.065020716,0.682671536
0.161232919,0.091092339,0.064975782,0.68269896
0.161220009,0.091122749,0.0649314,0.682725842
0.161207049,0.0911532,0.064887568,0.682752183
0.161194038,0.091183692,0.064844288,0.682777982
0.161180976,0.091214224,0.064801559,0.682803241
0.161167865,0.091244795,0.064759382,0.682827958
0.161154703,0.091275406,0.064717756,0.682852135
0.161141492,0.091306056,0.064676682,0.682875771
0.161128232,0.091336743,0.06463616,0.682898866
0.161114922,0.091367467,0.06459619,0.68292142
0.161101564,0.091398229,0.064556773,0.682943434
0.161088157,0.091429027,0.064517909,0.682964907
0.161074701,0.091459861,0.064479599,0.68298584
0.161061196,0.09149073,0.064441841,0.683006234
0.16104764,0.091521632,0.064404638,0.68302609
0.161034035,0.091552567,0.064367987,0.683045411
0.161020379,0.091583534,0.064331889,0.683064199
0.161006671,0.09161453,0.064296343,0.683082456
0.160992912,0.091645556,0.064261347,0.683100185
0.1609791,0.091676611,0.064226901,0.683117387
0.160965237,0.091707695,0.064193003,0.683134065
0.16095132,0.091738807,0.064159654,0.68315022
0.160937349,0.091769947,0.06412685,0.683165854
0.160923324,0.091801117,0.064094591,0.683180968
0.160909244,0.091832315,0.064062876,0.683195565
0.160895108,0.091863541,0.064031703,0.683209647
0.160880918,0.091894796,0.06400107,0.683223216
0.160866672,0.091926079,0.063970974,0.683236274
0.160852372,0.09195739,0.063941415,0.683248823
0.160838017,0.091988729,0.063912391,0.683260863
0.160823606,0.092020097,0.063883902,0.683272396
0.160809139,0.092051494,0.063855946,0.683283421
0.160794616,0.092082921,0.063828524,0.683293939
0.160780037,0.092114379,0.063801633,0.683303951
0.160765401,0.092145869,0.063775274,0.683313456
0.160750708,0.092177391,0.063749446,0.683322455
0.16073596,0.092208946,0.063724148,0.683330946
0.160721157,0.092240533,0.063699379,0.683338931
0.1607063,0.092272155,0.063675137,0.683346407
0.160691392,0.092303812,0.063651421,0.683353375
0.160676434,0.092335503,0.06362823,0.683359833
0.160661428,0.092367231,0.06360556,0.68336578
0.160646379,0.092398996,0.06358341,0.683371215
0.160631287,0.092430799,0.063561777,0.683376137
0.160616156,0.092462642,0.063540659,0.683380543
0.160600989,0.092494525,0.063520054,0.683384433
0.160585788,0.092526449,0.063499958,0.683387805
0.160570555,0.092558417,0.063480371,0.683390657
0.160555294,0.09259043,0.06346129,0.683392986
0.160540007,0.092622487,0.063442714,0.683394792
0.160524698,0.09265459,0.063424639,0.683396073
0.16050937,0.09268674,0.063407064,0.683396827
0.160494026,0.092718936,0.063389987,0.683397052
0.16047867,0.092751177,0.063373404,0.683396748
0.160463308,0.092783465,0.063357314,0.683395914
0.160447944,0.092815797,0.063341712,0.683394547
0.160432583,0.092848175,0.063326596,0.683392646
0.160417231,0.092880596,0.063311963,0.68339021
0.160401894,0.09291306,0.06329781,0.683387237
0.160386576,0.092945565,0.063284133,0.683383725
0.160371284,0.092978112,0.06327093,0.683379675
0.160356023,0.093010697,0.063258197,0.683375084
0.160340798,0.09304332,0.063245931,0.683369951
0.160325616,0.093075981,0.063234128,0.683364275
0.160310483,0.093108677,0.063222785,0.683358055
0.160295405,0.093141407,0.063211899,0.683351289
0.160280389,0.09317417,0.063201466,0.683343975
0.160265439,0.093206965,0.063191483,0.683336113
0.160250563,0.09323979,0.063181947,0.6833277
0.160235766,0.093272644,0.063172855,0.683318735
0.160221054,0.093305528,0.063164203,0.683309215
0.160206434,0.093338439,0.063155989,0.683299138
0.16019191,0.093371379,0.063148209,0.683288502
0.16017749,0.093404346,0.06314086,0.683277304
0.160163178,0.093437341,0.063133937,0.683265544
0.160148981,0.093470363,0.063127438,0.683253218
0.160134902,0.093503413,0.063121358,0.683240327
0.160120949,0.09353649,0.063115694,0.683226868
0.160107124,0.093569593,0.063110442,0.683212841
0.160093435,0.093602722,0.063105598,0.683198245
0.160079885,0.093635876,0.06310116,0.683183079
0.160066479,0.093669054,0.063097124,0.683167343
0.160053222,0.093702255,0.063093487,0.683151036
0.16004012,0.093735477,0.063090244,0.683134159
0.160027176,0.09376872,0.063087394,0.68311671
0.160014397,0.093801981,0.063084932,0.683098691
0.160001786,0.093835259,0.063082855,0.6830801
0.159989348,0.093868553,0.06308116,0.683060939
0.159977088,0.093901862,0.063079843,0.683041208
0.159965009,0.093935185,0.063078901,0.683020905
0.159953117,0.093968521,0.063078332,0.683000031
0.159941414,0.09400187,0.063078131,0.682978585
0.159929905,0.094035231,0.063078295,0.682956568
0.159918593,0.094068604,0.063078822,0.682933982
0.159907481,0.094101986,0.063079706,0.682910827
0.159896572,0.094135378,0.063080944,0.682887106
0.15988587,0.094168777,0.063082534,0.682862819
0.159875377,0.094202183,0.063084471,0.68283797
0.159865096,0.094235595,0.063086752,0.682812557
0.159855031,0.094269011,0.063089373,0.682786584
0.159845183,0.094302432,0.063092332,0.682760053
0.159835556,0.094335854,0.063095625,0.682732965
0.15982615,0.094369278,0.063099247,0.682705325
0.15981697,0.094402701,0.063103196,0.682677133
0.159808015,0.094436122,0.063107469,0.682648395
0.159799287,0.094469538,0.063112062,0.682619112
0.159790789,0.094502948,0.063116974,0.68258929
0.15978252,0.094536348,0.0631222,0.682558932
0.159774482,0.094569739,0.063127737,0.682528042
0.159766677,0.094603117,0.06313358,0.682496625
0.159759106,0.094636481,0.063139727,0.682464686
0.159751769,0.094669829,0.063146173,0.682432228
0.159744669,0.094703159,0.063152915,0.682399257
0.159737807,0.094736468,0.063159948,0.682365777
0.159731184,0.094769754,0.06316727,0.682331792
0.1597248,0.094803015,0.06317488,0.682297305
0.159718658,0.094836248,0.063182773,0.682262321
0.159712758,0.094869452,0.063190949,0.682226841
0.159707101,0.094902625,0.063199405,0.682190869
0.159701688,0.094935764,0.063208139,0.682154409
0.159696519,0.094968868,0.063217148,0.682117465
0.159691596,0.095001934,0.063226429,0.682080041
0.159686918,0.09503496,0.063235978,0.682042144
0.159682485,0.095067943,0.063245792,0.682003779
0.159678299,0.095100881,0.063255867,0.681964953
0.15967436,0.095133769,0.063266198,0.681925674
0.159670666,0.095166605,0.063276781,0.681885949
0.159667218,0.095199385,0.063287611,0.681845785
0.159664016,0.095232107,0.063298684,0.681805193
0.159661059,0.095264768,0.063309995,0.681764178
0.159658346,0.095297365,0.063321539,0.681722751
0.159655877,0.095329894,0.063333311,0.681680918
0.15965365,0.095362353,0.063345308,0.681638689
0.159651666,0.095394738,0.063357525,0.681596071
0.159649922,0.095427048,0.063369958,0.681553072
0.159648417,0.095459279,0.063382603,0.681509701
0.159647149,0.09549143,0.063395456,0.681465965
0.159646116,0.0955235,0.063408514,0.68142187
0.159645316,0.095555487,0.063421772,0.681377425
0.159644747,0.095587391,0.063435227,0.681332635
0.159644407,0.095619212,0.063448874,0.681287507
0.159644295,0.095650949,0.06346271,0.681242046
0.159644407,0.095682603,0.06347673,0.68119626
0.159644744,0.095714174,0.063490929,0.681150153
0.159645304,0.095745662,0.063505303,0.681103731
0.159646086,0.095777067,0.063519848,0.681056999
0.159647088,0.095808387,0.06353456,0.681009965
0.159648313,0.095839623,0.063549433,0.680962631
0.159649758,0.095870774,0.063564463,0.680915004
0.159651427,0.095901839,0.063579647,0.680867087
0.159653321,0.095932817,0.063594979,0.680818884
0.159655441,0.095963706,0.063610455,0.680770398
0.15965779,0.095994506,0.063626071,0.680721632
0.159660369,0.096025216,0.063641824,0.680672592
0.15966318,0.096055833,0.063657708,0.680623279
0.159666224,0.096086357,0.06367372,0.680573699
0.159669504,0.096116787,0.063689854,0.680523856
0.15967302,0.096147121,0.063706107,0.680473753
0.159676774,0.096177358,0.063722473,0.680423395
0.159680767,0.096207499,0.063738949,0.680372785
0.159684999,0.096237543,0.063755531,0.680321927
0.159689472,0.09626749,0.063772213,0.680270824
0.159694186,0.09629734,0.063788992,0.680219481
0.159699142,0.096327093,0.063805864,0.680167901
0.159704341,0.096356749,0.063822823,0.680116087
0.159709783,0.096386307,0.063839867,0.680064043
0.159715469,0.096415768,0.063856991,0.680011772
0.159721399,0.096445131,0.063874193,0.679959276
0.159727572,0.096474397,0.063891469,0.679906561
0.15973399,0.096503566,0.063908815,0.679853629
0.159740653,0.096532636,0.063926227,0.679800485
0.159747559,0.096561609,0.063943701,0.679747132
0.159754708,0.096590484,0.063961233,0.679693575
0.159762101,0.096619261,0.063978819,0.679639819
0.159769736,0.09664794,0.063996456,0.679585868
0.159777613,0.09667652,0.064014138,0.679531729
0.159785731,0.096705003,0.064031861,0.679477406
0.159794089,0.096733386,0.064049621,0.679422905
0.159802686,0.09676167,0.064067412,0.679368232
0.15981152,0.096789853,0.064085232,0.679313394
0.159820591,0.096817937,0.064103076,0.679258396
0.159829896,0.096845919,0.064120941,0.679203243
0.159839433,0.096873801,0.064138824,0.679147941
0.159849201,0.096901582,0.064156722,0.679092496
0.159859197,0.09692926,0.064174631,0.679036911
0.159869419,0.096956836,0.06419255,0.678981195
0.159879865,0.096984308,0.064210476,0.678925351
0.159890534,0.097011675,0.064228404,0.678869388
0.159901423,0.097038935,0.064246332,0.67881331
0.15991253,0.097066089,0.064264257,0.678757124
0.159923854,0.097093135,0.064282175,0.678700836
0.159935391,0.097120072,0.064300083,0.678644454
0.159947141,0.097146899,0.064317978,0.678587982
0.159959101,0.097173614,0.064335859,0.678531427
0.159971268,0.097200215,0.064353721,0.678474796
0.15998364,0.097226702,0.064371563,0.678418095
0.159996216,0.097253071,0.064389381,0.678361332
0.160008992,0.097279321,0.064407173,0.678304514
0.160021966,0.09730545,0.064424936,0.678247648
0.160035136,0.097331456,0.064442667,0.678190741
0.160048499,0.097357337,0.064460364,0.6781338
0.160062051,0.097383092,0.064478025,0.678076833
0.16007579,0.097408718,0.064495646,0.678019846
0.160089713,0.097434215,0.064513227,0.677962846
0.160103817,0.097459579,0.064530764,0.67790584
0.1601181,0.097484809,0.064548256,0.677848834
0.160132559,0.097509904,0.0645657,0.677791837
0.160147193,0.097534861,0.064583092,0.677734854
0.160161998,0.09755968,0.064600432,0.67767789
0.160176974,0.097584359,0.064617716,0.677620952
0.160192117,0.097608898,0.064634942,0.677564043
0.160207428,0.097633296,0.064652109,0.677507167
0.160222904,0.097657555,0.064669212,0.677450329
0.160238544,0.097681673,0.064686251,0.677393532
0.160254348,0.09770565,0.064703221,0.677336781
0.160270313,0.097729486,0.064720121,0.67728008
0.160286439,0.09775318,0.064736949,0.677223432
0.160302724,0.097776732,0.064753701,0.677166842
0.160319169,0.097800141,0.064770375,0.677110315
0.160335774,0.097823407,0.064786967,0.677053853
0.160352537,0.097846528,0.064803475,0.67699746
0.160369461,0.097869503,0.064819897,0.676941139
0.160386546,0.097892331,0.06483623,0.676884893
0.160403793,0.097915011,0.064852472,0.676828724
0.160421201,0.097937541,0.064868624,0.676772634
0.160438772,0.097959922,0.064884682,0.676716624
0.160456507,0.097982152,0.064900646,0.676660694
0.160474407,0.098004231,0.064916514,0.676604848
0.160492472,0.098026159,0.064932284,0.676549085
0.160510704,0.098047933,0.064947953,0.67649341
0.160529103,0.098069555,0.06496352,0.676437823
0.160547671,0.098091021,0.06497898,0.676382328
0.160566408,0.098112332,0.064994331,0.676326928
0.160585317,0.098133485,0.06500957,0.676271628
0.160604396,0.098154478,0.065024694,0.676216432
0.160623648,0.098175312,0.065039697,0.676161343
0.160643074,0.098195983,0.065054577,0.676106366
0.160662674,0.098216492,0.06506933,0.676051504
0.16068245,0.098236837,0.065083951,0.675996761
0.160702404,0.098257018,0.065098438,0.67594214
0.160722537,0.098277036,0.065112786,0.675887641
0.160742851,0.09829689,0.065126991,0.675833268
0.160763349,0.098316579,0.065141052,0.675779021
0.160784033,0.098336103,0.065154963,0.675724901
0.160804907,0.098355462,0.065168723,0.675670908
0.160825975,0.098374654,0.065182329,0.675617042
0.16084724,0.09839368,0.065195778,0.675563302
0.160868708,0.098412537,0.065209067,0.675509687
0.160890383,0.098431226,0.065222192,0.675456198
0.160912269,0.098449746,0.065235151,0.675402834
0.160934369,0.098468095,0.065247941,0.675349596
0.160956688,0.098486271,0.065260558,0.675296483
0.160979229,0.098504273,0.065273,0.675243498
0.161001997,0.098522099,0.065285263,0.675190642
0.161024995,0.098539746,0.065297343,0.675137915
0.161048228,0.098557212,0.065309238,0.675085322
0.161071701,0.098574494,0.065320942,0.675032862
0.161095417,0.09859159,0.065332454,0.674980539
0.161119384,0.098608497,0.065343769,0.67492835
0.161143605,0.098625213,0.065354885,0.674876297
0.161168087,0.098641738,0.065365799,0.674824376
0.161192836,0.09865807,0.065376508,0.674772586
0.161217857,0.098674208,0.06538701,0.674720925
0.161243155,0.098690152,0.065397303,0.67466939
0.161268738,0.098705901,0.065407383,0.674617978
0.161294611,0.098721454,0.065417247,0.674566688
0.161320779,0.098736809,0.065426893,0.674515518
0.161347249,0.098751967,0.065436319,0.674464466
0.161374025,0.098766925,0.06544552,0.67441353
0.161401113,0.098781682,0.065454496,0.674362709
0.161428518,0.098796237,0.065463242,0.674312003
0.161456245,0.098810589,0.065471756,0.674261409
0.161484299,0.098824735,0.065480036,0.674210929
0.161512685,0.098838674,0.065488079,0.674160562
0.161541407,0.098852404,0.06549588,0.674110309
0.161570469,0.098865923,0.065503438,0.674060171
0.161599876,0.098879229,0.065510748,0.674010147
0.161629632,0.098892322,0.065517808,0.673960238
0.161659743,0.098905198,0.065524615,0.673910444
0.161690212,0.098917858,0.065531166,0.673860764
0.161721045,0.098930298,0.065537458,0.673811199
0.161752246,0.098942518,0.065543488,0.673761748
0.16178382,0.098954516,0.065549253,0.673712411
0.161815771,0.09896629,0.065554752,0.673663188
0.161848103,0.098977838,0.06555998,0.673614079
0.161880821,0.098989159,0.065564937,0.673565084
0.161913927,0.099000252,0.065569618,0.673516203
0.161947426,0.099011115,0.065574022,0.673467437
0.16198132,0.099021747,0.065578146,0.673418787
0.162015613,0.099032148,0.065581988,0.673370252
0.162050306,0.099042315,0.065585546,0.673321832
0.162085403,0.099052249,0.065588819,0.67327353
0.162120904,0.099061946,0.065591805,0.673225345
0.162156813,0.099071406,0.065594503,0.673177278
0.162193131,0.099080626,0.065596911,0.673129332
0.162229862,0.099089605,0.065599026,0.673081506
0.162267008,0.099098342,0.065600847,0.673033803
0.16230457,0.099106834,0.065602372,0.672986224
0.162342552,0.09911508,0.065603598,0.67293877
0.162380955,0.099123079,0.065604521,0.672891445
0.16241978,0.099130831,0.065605139,0.672844249
0.16245903,0.099138335,0.06560545,0.672797186
0.162498706,0.099145589,0.065605449,0.672750256
