raw_ch1,raw_ch2,raw_ch3,raw_ch4,processed_ch1,processed_ch2,processed_ch3,processed_ch4
0.02235737735381566,0.025551288404360755,0.01596955525272547,-0.06387822101090188,0.2876016428422652,0.25784687075044216,0.078834424154723,0.2245489753093465
0.0,-0.06387822101090188,-0.0031939110505450944,-0.02235737735381566,0.2876018747289667,0.2578293046930803,0.0788312062583018,0.22455414541662663
-0.39604497026759167,-0.1501138193756194,-0.028745199454905845,0.19802248513379583,0.2876022538388982,0.2578118251211038,0.07882798829176006,0.22455940638433738
-0.8974890052031714,-0.3481363045094153,-0.18205292988107036,0.41201452552031714,0.28760277884690577,0.25779443173706923,0.07882476994382025,0.22456475714723198
-0.7314056305748264,-0.5461587896432111,-0.19802248513379583,0.4247901697224975,0.2876034486342823,0.25777712415101184,0.07882155089746713,0.22457019662473438
-0.22676768458870167,-0.5621283448959365,-0.12775644202180375,0.38965714816650143,0.28760426261409455,0.2577599021118655,0.07881833092698191,0.22457572391073366
0.20121639618434092,-0.43756581392467786,-0.04152084365708622,0.24273723984142714,0.28760522066079297,0.2577427656989921,0.07881510993197745,0.22458133835010285
0.3098093719028741,-0.25231897299306244,-0.028745199454905845,0.09581733151635283,0.2876063227949703,0.2577257153556422,0.07881188788106681,0.22458703946890782
0.3161971940039643,0.0031939110505450944,0.009581733151635281,-0.12456253097125865,0.2876075689975904,0.2577087517403787,0.07880866472835962,0.2245928268199444
0.373687592913776,0.21718595143706637,0.07026604311199207,-0.25231897299306244,0.2876089592228849,0.25769187549387307,0.07880544036464637,0.22459869986041084
0.27148243929633303,0.32897283820614465,0.1053990646679881,-0.3353606603072349,0.28761049345424394,0.25767508710454134,0.07880221462091855,0.22460465795655837
0.17885901883052527,0.3098093719028741,-0.02235737735381566,-0.24593115089197226,0.28761217170148845,0.2576583869621521,0.07879898730146277,0.22461070047961768
0.14053208622398414,0.29064590559960357,0.060684309960356786,-0.24273723984142714,0.28761399392443365,0.2576417754735234,0.0787957581979051,0.22461682687115625
0.1117868867690783,0.18205292988107036,0.07345995416253714,-0.2076042182854311,0.28761595992838956,0.25762525309702905,0.07879252707679953,0.22462303662990962
0.1501138193756194,0.28425808349851334,0.028745199454905845,-0.2107981293359762,0.2876180692913147,0.25760882030185955,0.0787892936742108,0.22462932926919643
0.1117868867690783,0.29064590559960357,0.07984777626362735,-0.16927728567888997,0.2876203213381651,0.2575924775356594,0.07878605769810398,0.2246357042836656
0.012775644202180378,0.12136861992071357,0.07345995416253714,-0.07345995416253714,0.28762271512803744,0.25757622522632867,0.07878281883069914,0.22464216111226715
-0.08304168731417244,0.0,0.038326932606541124,-0.03193911050545094,0.2876252494168717,0.2575600637378198,0.07877957673665419,0.22464869907190188
-0.05429648785926659,-0.047908665758176414,0.038326932606541124,0.05429648785926659,0.2876279226183335,0.25754399324303767,0.07877633106155126,0.2246553172742708
-0.3704936818632309,-0.18205292988107036,-0.035133021555996034,0.2587067950941526,0.2876307328277123,0.2575280136232126,0.0787730814140559,0.224662014592553
-1.0539906466798812,-0.4184023476214073,-0.23634941774033696,0.4503414581268582,0.28763367801642503,0.25751212451182165,0.07876982737058955,0.22466878975054624
-0.8272229620911794,-0.47908665758176416,-0.2139920403865213,0.45672928022794845,0.28763675645541964,0.2574963254803901,0.07876656854627441,0.22467564152300684
-0.1565016414767096,-0.47269883548067393,-0.08942950941526263,0.3481363045094153,0.28763996707363193,0.2574806162558361,0.07876330468909559,0.22468256891914345
0.3481363045094153,-0.35133021555996036,-0.012775644202180378,0.2107981293359762,0.28764330936987065,0.25746499684322555,0.07876003568672806,0.22468957122114697
0.4663110133795837,-0.22996159563924676,-0.025551288404360755,0.012775644202180378,0.2876467830785838,0.2574494675051618,0.07875676147448935,0.22469664786560892
0.4471475470763132,0.047908665758176414,0.01596955525272547,-0.17885901883052527,0.28765038803975945,0.25743402862607,0.07875348194385931,0.22470379825958076
0.35771803766105054,0.2076042182854311,0.08623559836471753,-0.306615460852329,0.2876541242588537,0.25741868053732503,0.07875019691205076,0.2247110216792452
0.22676768458870167,0.32897283820614465,0.1117868867690783,-0.3353606603072349,0.2876579919098686,0.25740342342731504,0.07874690614485223,0.22471831733071546
0.17247119672943506,0.3098093719028741,0.08623559836471753,-0.20121639618434092,0.287661991228812,0.25738825739925436,0.07874360940317465,0.2247256844684837
0.13733817517343905,0.2555128840436075,-0.09262342046580772,-0.2491250619425173,0.2876661223758666,0.25737318257435154,0.07874030647495507,0.22473312242954446
0.1117868867690783,0.2076042182854311,-0.12136861992071357,-0.23954332879088208,0.2876703853297449,0.25735819911707675,0.07873699718185106,0.22474063059536195
0.13733817517343905,0.23315550668979185,0.07665386521308225,-0.2619007061446977,0.28767477982914963,0.25734330719119913,0.0787336813818104,0.22474820836833714
0.17566510777998018,0.14053208622398414,0.09901124256689792,-0.18524684093161545,0.287679305356568,0.2573285069100604,0.07873035897005119,0.2247558551727243
0.09581733151635283,0.006387822101090189,0.06387822101090188,-0.07984777626362735,0.2876839611510626,0.2573137982796406,0.07872702986952958,0.2247635704283755
0.08304168731417244,-0.08942950941526263,0.04152084365708622,-0.03193911050545094,0.2876887462097775,0.2572991811080058,0.07872369401322744,0.22477135346875243
-0.1533077304261645,-0.10220515361744302,0.038326932606541124,0.16608337462834488,0.2876936592647666,0.25728465493075925,0.07872035131901285,0.224779203448251
-0.7409873637264618,-0.29064590559960357,-0.11817470887016848,0.3641058597621407,0.287698698836762,0.2572702190259959,0.07871700167200928,0.22478711934023796
-1.0859297571853321,-0.475892746531219,-0.2619007061446977,0.46950492443012876,0.2877038635272432,0.2572558725358157,0.07871364495601149,0.22479510007585493
-0.7218238974231912,-0.5525466117443013,-0.22676768458870167,0.4056267034192269,0.2877091524819359,0.2572416146698092,0.07871028114857387,0.22480314474135787
-0.038326932606541124,-0.440759724975223,-0.07984777626362735,0.29064590559960357,0.2877145656090876,0.2572274449042952,0.07870691040558916,0.2248112526904497
0.23315550668979185,-0.28425808349851334,-0.035133021555996034,0.14053208622398414,0.2877201033006729,0.25721336305392223,0.07870353304016717,0.22481942350385464
0.3641058597621407,-0.09901124256689792,-0.02235737735381566,-0.08304168731417244,0.28772576600872307,0.25719936917048997,0.07870014941666913,0.22482765684090208
0.43756581392467786,0.1628894635777998,0.05749039890981169,-0.2235737735381566,0.28773155411552265,0.2571854633471118,0.07869675986219803,0.22483595229197392
0.43756581392467786,0.32897283820614465,0.02235737735381566,-0.3353606603072349,0.2877374680481607,0.2571716455795603,0.07869336463847311,0.22484430934229138
0.17885901883052527,0.3449423934588701,0.07984777626362735,-0.303421549801784,0.287743508364673,0.25715791578386415,0.07868996394595443,0.22485272745850216
0.13095035307234884,0.3002276387512388,0.05429648785926659,-0.23634941774033696,0.2877496756881781,0.25714427390249867,0.07868655793654841,0.22486120618373498
0.10220515361744302,0.23954332879088208,0.05429648785926659,-0.2139920403865213,0.28775597054148094,0.2571307199603969,0.07868314672765567,0.22486974514654606
0.060684309960356786,0.2810641724479683,-0.04471475470763132,-0.2235737735381566,0.287762393205674,0.25711725404042474,0.07867973040581167,0.2248783440113877
0.05429648785926659,0.3353606603072349,0.009581733151635281,-0.21718595143706637,0.2877689436471087,0.2571038762527674,0.07867630901576905,0.22488700243913626
0.05429648785926659,0.2203798624876115,0.02235737735381566,-0.11817470887016848,0.28777562148015823,0.2570905867406057,0.07867288254081463,0.2248957200655435
0.07026604311199207,0.03193911050545094,0.01596955525272547,-0.05110257680872151,0.2877824259519254,0.2570773856585402,0.07866945088403213,0.22490449645473948
0.019163466303270562,-0.08304168731417244,0.006387822101090189,-0.02235737735381566,0.28778935594298666,0.25706427306280405,0.07866601385913834,0.22491333101276975
-0.32258501610505447,-0.18205292988107036,-0.012775644202180378,0.17885901883052527,0.287796409991625,0.2570512487937103,0.07866257118672619,0.22492222291644837
-0.9773367814667987,-0.3353606603072349,-0.1628894635777998,0.4279840807730426,0.2878035864565738,0.25703831247791864,0.07865912250601052,0.2249311711495506
-0.6834969648166501,-0.5461587896432111,-0.1533077304261645,0.4311779918235877,0.28781088390239634,0.25702546367047907,0.07865566743268003,0.22494017467575925
-0.24593115089197226,-0.5397709675421208,-0.09581733151635283,0.38965714816650143,0.2878183014322761,0.25701270206893856,0.07865220563864517,0.22494923263842093
0.2076042182854311,-0.4152084365708622,-0.047908665758176414,0.24273723984142714,0.28782583861848704,0.2570000276875306,0.07864873687740502,0.22495834444069274
0.3449423934588701,-0.2587067950941526,-0.025551288404360755,0.07665386521308225,0.2878334951892324,0.25698744088129444,0.0786452609395607,0.22496750966975262
0.36729977081268583,0.3449423934588701,0.11498079781962338,-0.373687592913776,0.2878412708615824,0.256974942233982,0.0786417776013339,0.22497672795741852
0.3130032829534192,0.3609119487115956,0.035133021555996034,-0.29703372770069375,0.28784916536752503,0.2569625324496111,0.07863828661465802,0.22498599892974158
0.3257789271555996,0.33855457135777994,-0.0031939110505450944,-0.2810641724479683,0.28785717849625386,0.2569502123318606,0.07863478771224579,0.22499532226974261
0.08942950941526263,0.27787026139742316,-0.10220515361744302,-0.303421549801784,0.2878653100657133,0.2569379827952622,0.0786312805912852,0.22500469776677656
0.1565016414767096,0.14372599727452925,0.08942950941526263,-0.19163466303270565,0.2878735598257902,0.2569258448283644,0.07862776491036627,0.22501412530243797
0.17566510777998018,0.1628894635777998,0.13095035307234884,-0.09901124256689792,0.2878819273498224,0.2569137994000914,0.078624240326578,0.22502360479626013
0.18205292988107036,0.06707213206144698,0.11817470887016848,-0.04471475470763132,0.2878904119942411,0.256901847354668,0.07862070653817325,0.22503313610631556
0.17885901883052527,-0.025551288404360755,0.06387822101090188,-0.04471475470763132,0.28789901291845554,0.2568899893258603,0.07861716330246467,0.2250427189144719
0.09901124256689792,-0.04471475470763132,0.047908665758176414,0.0031939110505450944,0.28790772909672574,0.25687822566498425,0.0786136104197865,0.22505235264717444
0.08942950941526263,-0.09262342046580772,0.038326932606541124,0.012775644202180378,0.28791655929191257,0.25686655639820377,0.0786100476933345,0.22506203643458253
0.038326932606541124,-0.09581733151635283,0.04471475470763132,0.07665386521308225,0.2879255020034548,0.25685498123640865,0.07860647489459685,0.22507176909602286
-0.3098093719028741,-0.19482857408325072,-0.06707213206144698,0.27148243929633303,0.2879345554415322,0.2568434996223108,0.07860289175156994,0.2250815491781801
-0.9933063367195243,-0.4088206144697721,-0.2587067950941526,0.4503414581268582,0.2879437176618404,0.2568321108159995,0.07859929797512695,0.22509137508897867
-0.849580339444995,-0.4503414581268582,-0.24273723984142714,0.45353536917740334,0.2879529869552371,0.25682081404794027,0.07859569334636614,0.2251012453079908
-0.19802248513379583,-0.4599231912784935,-0.07665386521308225,0.32897283820614465,0.2879623622217545,0.25680960869910985,0.07859207781363635,0.2251111585597744
0.1053990646679881,-0.3098093719028741,-0.019163466303270562,0.18844075198216054,0.2879718429070513,0.2567984944041192,0.0785884514870556,0.2251211138380911
0.2203798624876115,-0.19163466303270565,-0.01596955525272547,-0.01596955525272547,0.2879814286016271,0.2567874710199363,0.07858481452941565,0.22513111027694943
0.3130032829534192,0.1053990646679881,0.01596955525272547,-0.20441030723488604,0.2879911187724433,0.2567765384889375,0.07858116705502768,0.22514114697065438
0.440759724975223,0.29064590559960357,0.04471475470763132,-0.3257789271555996,0.2880009127809697,0.2567656966964639,0.07857750909317116,0.22515122289276088
0.24593115089197226,0.3609119487115956,0.07345995416253714,-0.35133021555996036,0.2880108100046335,0.2567549454399404,0.07857384059658427,0.22516133697651475
0.17247119672943506,0.306615460852329,0.04152084365708622,-0.23634941774033696,0.28802080987513345,0.25674428451484305,0.07857016146710676,0.2251714882408931
0.14053208622398414,0.25231897299306244,-0.1565016414767096,-0.2810641724479683,0.2880309117914571,0.25673371379247806,0.07856647158307176,0.2251816758291062
0.12775644202180375,0.2491250619425173,-0.07984777626362735,-0.2076042182854311,0.28804111500130264,0.256723233211008,0.07856277083211805,0.22519189897178032
0.1565016414767096,0.33855457135777994,0.09262342046580772,-0.21718595143706637,0.2880514185356752,0.25671284273606626,0.0785590591397637,0.22520215694208875
0.1501138193756194,0.28425808349851334,0.10220515361744302,-0.12775644202180375,0.2880618211961099,0.25670254236150697,0.0785553364715892,0.2252124490137685
0.07984777626362735,0.13414426412289396,0.07026604311199207,-0.05749039890981169,0.288072321557872,0.2566923321187786,0.07855160282211082,0.22522277440130636
0.012775644202180378,0.0,0.028745199454905845,-0.02235737735381566,0.2880829179462891,0.2566822120080703,0.07854785820105416,0.22523313217518712
-0.27148243929633303,-0.08304168731417244,0.01596955525272547,0.17885901883052527,0.2880936083996176,0.2566721818555992,0.07854410260226038,0.22524352119150148
-0.7793142963330029,-0.3257789271555996,-0.14053208622398414,0.35133021555996036,0.28810439075629235,0.256662241230949,0.07854033597556956,0.2252539401165372
-1.1402262450445986,-0.5046379459861249,-0.2650946171952428,0.4471475470763132,0.2881152630067758,0.25665238954414554,0.07853655826119155,0.22526438757627767
-0.6164248327552032,-0.606843099603568,-0.23634941774033696,0.3800754150148662,0.28812622376802677,0.25664262628713075,0.07853276949850266,0.2252748623448216
0.05429648785926659,-0.4854744796828543,-0.09901124256689792,0.2682885282457879,0.28813727244713727,0.25663295126573826,0.07852896991917142,0.22528536344269684
0.2746763503468781,-0.3161971940039643,-0.038326932606541124,0.14053208622398414,0.2881484089174261,0.25662336468312746,0.07852515992858027,0.22529589009221263
0.3257789271555996,-0.12775644202180375,-0.0031939110505450944,-0.08304168731417244,0.28815963310748033,0.25661386703604266,0.07852133999742196,0.22530644157785404
0.3832693260654113,0.14053208622398414,0.060684309960356786,-0.24273723984142714,0.28817094488540074,0.25660445890317707,0.0785175105615325,0.2253170171148049
0.43437190287413274,0.3098093719028741,0.1053990646679881,-0.3449423934588701,0.28818234414736627,0.25659514077862994,0.07851367199186363,0.22532761582824015
0.20121639618434092,0.3193911050545094,0.06387822101090188,-0.32897283820614465,0.288193830888707,0.2565859130577465,0.07850982462265645,0.22533823685084445
0.1533077304261645,0.2746763503468781,0.047908665758176414,-0.2619007061446977,0.28820540516426124,0.25657677612287055,0.07850596877916101,0.2253488794255309
0.12775644202180375,0.20441030723488604,0.0,-0.23315550668979185,0.288217066956489,0.2565677303915995,0.07850210476571629,0.22535954292068827
0.08304168731417244,0.2203798624876115,-0.04471475470763132,-0.20441030723488604,0.288228816049445,0.25655877628463475,0.07849823283088359,0.22537022677912835
0.08304168731417244,0.2587067950941526,0.006387822101090189,-0.18524684093161545,0.2882406519588318,0.2565499141784182,0.0784943531439553,0.22538093045983196
0.012775644202180378,0.16608337462834488,0.012775644202180378,-0.09581733151635283,0.2882525738891482,0.2565411443894033,0.0784904657879026,0.22539165338743053
-0.05110257680872151,0.01596955525272547,-0.02235737735381566,-0.038326932606541124,0.28826458069558875,0.256532467146246,0.07848657075460945,0.22540239488770364
-0.06387822101090188,-0.04471475470763132,-0.02235737735381566,-0.0031939110505450944,0.28827667086080566,0.25652388249858554,0.07848266794328225,0.22541315410161472
-0.39604497026759167,-0.16927728567888997,-0.07984777626362735,0.19802248513379583,0.2882888425331978,0.2565153902239395,0.07847875717185798,0.22542392992391494
-0.8751316278493557,-0.38646323711595637,-0.2139920403865213,0.41201452552031714,0.2883010937226127,0.25650698985094195,0.07847483821786085,0.2254347210520162
-0.574903989098117,-0.5589344338453914,-0.1628894635777998,0.4184023476214073,0.2883134226601299,0.2564986808328216,0.07847091090025694,0.22544552616647467
-0.11817470887016848,-0.5717100780475718,-0.08942950941526263,0.3800754150148662,0.28832582804179496,0.25649046279335813,0.07846697515194759,0.22545634412612744
0.3130032829534192,-0.4503414581268582,-0.03193911050545094,0.23315550668979185,0.2883383089066718,0.25648233571326656,0.07846303101176279,0.22546717404153482
0.45353536917740334,-0.2555128840436075,-0.006387822101090189,0.06387822101090188,0.2883508643856899,0.2564742999536566,0.07845907854868421,0.22547801519876845
0.4471475470763132,0.04471475470763132,0.03193911050545094,-0.13733817517343905,0.2883634936613165,0.2564663561053297,0.07845511778729812,0.22548886689894193
0.39604497026759167,0.24273723984142714,0.07026604311199207,-0.2810641724479683,0.2883761960719838,0.2564585047639725,0.07845114867797742,0.22549972834170218
0.2107981293359762,0.3481363045094153,0.1117868867690783,-0.35452412661050536,0.28838897114135453,0.25645074640744564,0.07844717111631426,0.22551059865257733
0.14053208622398414,0.3353606603072349,-0.04152084365708622,-0.2810641724479683,0.2884018184784096,0.2564430814515922,0.07844318498291832,0.22552147700091985
0.1117868867690783,0.2555128840436075,0.08304168731417244,-0.24593115089197226,0.2884147376183623,0.25643551035575146,0.07843919016189434,0.22553236267272275
0.08942950941526263,0.21718595143706637,0.009581733151635281,-0.22676768458870167,0.28842772789332743,0.256428033639838,0.07843518652877793,0.2255432550530565
0.24593115089197226,0.20441030723488604,0.05429648785926659,-0.2139920403865213,0.28844078838041726,0.2564206518261506,0.07843117392756035,0.22555415357421832
0.2107981293359762,0.16927728567888997,0.09262342046580772,-0.1565016414767096,0.28845391793218056,0.25641336537657305,0.07842715215889191,0.22556505767274304
0.04152084365708622,0.07345995416253714,0.060684309960356786,-0.06707213206144698,0.2884671152297206,0.2564061746406801,0.07842312099409515,0.22557596674032537
-0.09262342046580772,-0.05110257680872151,0.009581733151635281,-0.035133021555996034,0.288480378763073,0.2563990797892743,0.07841908019080551,0.22558688004684974
-0.05429648785926659,-0.08304168731417244,0.047908665758176414,0.07665386521308225,0.2884937067539167,0.25639208074131387,0.07841502947781019,0.2255977966588277
-0.39923888131813673,-0.2139920403865213,-0.060684309960356786,0.2810641724479683,0.28850709713944533,0.25638517713958525,0.0784109685333492,0.2256087154199805
-1.0539906466798812,-0.4152084365708622,-0.23954332879088208,0.4631171023290387,0.28852054775495395,0.2563783684258616,0.07840689700759457,0.22561963505467333
-0.8336107841922695,-0.47269883548067393,-0.2235737735381566,0.4599231912784935,0.28853405675755195,0.2563716540136088,0.07840281460802571,0.22563055437151203
-0.1117868867690783,-0.48866839073339935,-0.08942950941526263,0.34174848240832506,0.28854762297535524,0.2563650334825687,0.07839872119173855,0.22564147243800212
0.27148243929633303,-0.3353606603072349,-0.009581733151635281,0.20441030723488604,0.2885612457917419,0.256358506691157,0.0783946167645844,0.2256523886057558
0.36729977081268583,-0.19163466303270565,0.0,0.0,0.288574924766969,0.2563520737496761,0.0783905013803243,0.22566330238096266
0.4471475470763132,0.11498079781962338,0.06387822101090188,-0.18205292988107036,0.28858865947236495,0.2563457348760549,0.07838637504265338,0.2256742132349259
0.39285105921704655,0.29703372770069375,0.08623559836471753,-0.3193911050545094,0.28860244956328224,0.2563394902409625,0.07838223768350303,0.22568512050532386
0.17885901883052527,0.36729977081268583,0.08942950941526263,-0.34174848240832506,0.2886162948348049,0.25633333993085794,0.07837808919879269,0.22569602346696402
0.13414426412289396,0.3449423934588701,0.07345995416253714,-0.28425808349851334,0.2886301951410649,0.25632728403631755,0.07837392948545567,0.2257069214661946
0.09581733151635283,0.2619007061446977,-0.3257789271555996,-0.24273723984142714,0.2886441502359441,0.256321322738923,0.07836975847631919,0.22571781397720814
0.09262342046580772,0.2938398166501486,-0.13414426412289396,-0.18844075198216054,0.2886581596456973,0.25631545631248104,0.07836557621267512,0.22572870056730757
0.13733817517343905,0.303421549801784,-0.01596955525272547,-0.21718595143706637,0.2886722226155795,0.25630968508471275,0.07836138289744846,0.22573958083310183
0.11817470887016848,0.24593115089197226,0.028745199454905845,-0.12456253097125865,0.28868633810891187,0.2563040094186911,0.07835717883299649,0.22575045434915453
0.035133021555996034,0.06387822101090188,0.019163466303270562,-0.047908665758176414,0.2887005048173102,0.25629842968223204,0.07835296430528926,0.22576132061685486
-0.03193911050545094,-0.047908665758176414,0.02235737735381566,-0.012775644202180378,0.2887147211386918,0.25629294614927967,0.07834873952397918,0.2257721789848168
-0.2555128840436075,-0.09262342046580772,0.035133021555996034,0.19482857408325072,0.2887289851513603,0.25628755887266863,0.07834450461406309,0.22578302857800092
-0.7665386521308226,-0.3002276387512388,-0.14372599727452925,0.36729977081268583,0.2887432947193932,0.256282267639835,0.07834025963206893,0.22579386832954262
-1.0731541129831517,-0.5142196791377601,-0.2682885282457879,0.440759724975223,0.2887576478438206,0.2562770720801778,0.07833600462889152,0.2258046971423074
-0.7186299863726462,-0.5844857222497523,-0.2107981293359762,0.39604497026759167,0.2887720431271792,0.25627197189319795,0.07833173976066932,0.2258155140805291
-0.060684309960356786,-0.4503414581268582,-0.05110257680872151,0.2810641724479683,0.28878647996010864,0.25626696707013547,0.07832746536482396,0.22582631846573387
0.2746763503468781,-0.24273723984142714,0.0,0.14372599727452925,0.288800958237311,0.2562620579607562,0.0783231819157266,0.22583710983405975
0.5589344338453914,-0.1117868867690783,0.047908665758176414,-0.08623559836471753,0.28881547797068446,0.2562572451445995,0.07831888990454071,0.22584788779735043
0.511025768087215,0.1053990646679881,0.08942950941526263,-0.2555128840436075,0.2888300392281173,0.2562525292104841,0.07831458976452835,0.22585865190773532
0.46950492443012876,0.21718595143706637,0.035133021555996034,-0.3609119487115956,0.2888446422939033,0.25624791059545515,0.07831028187534142,0.225869401636745
0.1596955525272547,0.32897283820614465,0.09581733151635283,-0.3257789271555996,0.28885928772190844,0.2562433895667767,0.07830596658638184,0.22588013647666558
0.12456253097125865,0.27148243929633303,0.07665386521308225,-0.2682885282457879,0.2888739761928152,0.2562389663119322,0.07830164422805909,0.22589085604209175
0.1053990646679881,0.2203798624876115,-0.0031939110505450944,-0.22996159563924676,0.2888887082962212,0.25623464102007254,0.07829731511576964,0.22590156007877976
0.12136861992071357,0.27787026139742316,-0.04471475470763132,-0.1565016414767096,0.28890348438202523,0.2562304138883878,0.07829297953283004,0.22591224840290924
0.14053208622398414,0.303421549801784,0.03193911050545094,-0.13733817517343905,0.28891830451763767,0.25622628510553913,0.07828863770165768,0.22592292082188453
0.028745199454905845,0.18844075198216054,0.04471475470763132,-0.060684309960356786,0.2889331684875835,0.25622225485850425,0.07828428977486906,0.22593357705673586
-0.08304168731417244,0.01596955525272547,0.006387822101090189,-0.03193911050545094,0.2889480757755604,0.2562183233035168,0.07827993583918401,0.22594421666795572
-0.1501138193756194,-0.05110257680872151,-0.025551288404360755,-0.012775644202180378,0.28896302554096664,0.256214490452007,0.07827557591001766,0.22595483898626775
-0.4982501238850346,-0.13733817517343905,-0.05110257680872151,0.2139920403865213,0.28897801667392464,0.25621075605286486,0.07827120992401004,0.22596544308034922
-0.9581733151635283,-0.35133021555996036,-0.19802248513379583,0.43437190287413274,0.2889930480278027,0.2562071195932971,0.07826683776192837,0.22597602783064727
-0.6100370106541129,-0.5365770564915758,-0.1501138193756194,0.4599231912784935,0.2890081187969976,0.25620358045059966,0.07826245932026754,0.22598659212668426
-0.25231897299306244,-0.5589344338453914,-0.07984777626362735,0.39604497026759167,0.2890232287499696,0.25620013812849146,0.0782580745826083,0.22599713507441818
0.13095035307234884,-0.4311779918235877,0.009581733151635281,0.24593115089197226,0.2890383780794741,0.25619679244977667,0.07825368361574356,0.22600765607306467
0.33216674925668976,-0.2938398166501486,0.012775644202180378,0.060684309960356786,0.2890535670706467,0.2561935435936991,0.0782492864964268,0.22601815472862627
0.4599231912784935,-0.035133021555996034,0.035133021555996034,-0.1596955525272547,0.28906879594728396,0.2561903919644663,0.07824488324208931,0.22602863067931594
0.5046379459861249,0.23315550668979185,0.07345995416253714,-0.306615460852329,0.2890840649616328,0.25618733797980264,0.07824047379206563,0.2260390834759685
0.32897283820614465,0.35452412661050536,0.09901124256689792,-0.373687592913776,0.2890993745342467,0.25618438194348186,0.07823605803357046,0.2260495126180826
0.20441030723488604,0.3098093719028741,0.08623559836471753,-0.3193911050545094,0.28911472526595083,0.2561815240912105,0.07823163584237966,0.22605991768093037
0.1628894635777998,0.24273723984142714,0.07026604311199207,-0.2619007061446977,0.28913011781041975,0.25617876468977363,0.07822720710834727,0.22607029839306664
0.12456253097125865,0.22676768458870167,-0.02235737735381566,-0.23634941774033696,0.2891455527176564,0.256176104049086,0.07822277173057336,0.22608065461782248
0.2139920403865213,0.3130032829534192,0.09262342046580772,-0.2235737735381566,0.28916103034020585,0.2561735424791137,0.07821832959382623,0.22609098629219013
0.24273723984142714,0.3353606603072349,0.1117868867690783,-0.16927728567888997,0.2891765508233123,0.2561710802857615,0.07821388056263077,0.22610129337317372
0.14372599727452925,0.19163466303270565,0.07665386521308225,-0.060684309960356786,0.2891921141427846,0.2561687178029299,0.07820942450631375,0.2261115757831593
0.06387822101090188,0.028745199454905845,0.035133021555996034,-0.02235737735381566,0.28920772010925055,0.2561664553654171,0.0782049613150003,0.2261218333259389
-0.11817470887016848,-0.025551288404360755,0.07026604311199207,0.09901124256689792,0.289223368307562,0.25616429317919726,0.0782004908804782,0.22613206559609542
-0.5525466117443013,-0.22676768458870167,-0.06707213206144698,0.2938398166501486,0.2892390580816526,0.2561622311938271,0.07819601307367081,0.2261422719614806
-1.1082871345391476,-0.4982501238850346,-0.2587067950941526,0.4854744796828543,0.2892547887511068,0.25616026913187095,0.07819152776321166,0.2261524516799315
-0.8655498946977205,-0.5844857222497523,-0.2555128840436075,0.45353536917740334,0.2892705600679809,0.25615840670549106,0.0781870348969751,0.22616260411099454
-0.1117868867690783,-0.5653222559464817,-0.13414426412289396,0.33216674925668976,0.28928637253837713,0.25615664388289555,0.07818253460109206,0.2261727288840732
0.28425808349851334,-0.35133021555996036,-0.07026604311199207,0.20121639618434092,0.2893022272514372,0.25615498103037715,0.07817802719586528,0.22618282590889668
0.3609119487115956,-0.17885901883052527,-0.04471475470763132,-0.01596955525272547,0.28931812546665026,0.2561534188548049,0.07817351311234613,0.22619289523828123
0.4439536360257681,0.08942950941526263,0.03193911050545094,-0.2107981293359762,0.28933406843373555,0.25615195819950703,0.0781689927951348,0.22620293688712956
0.5876796333002972,0.3098093719028741,0.08623559836471753,-0.32897283820614465,0.28935005747682313,0.2561505998440757,0.07816446665119622,0.22621295075004125
0.20121639618434092,0.33855457135777994,0.09262342046580772,-0.3449423934588701,0.2893660941056412,0.256149344454014,0.078159935048578,0.22622293667919827
0.12456253097125865,0.28425808349851334,0.07665386521308225,-0.2874519945490585,0.28938217997829363,0.2561481926648312,0.07815539834200026,0.2262328946115941
0.08942950941526263,0.2619007061446977,-0.07984777626362735,-0.24593115089197226,0.28939831670508914,0.25614714515242815,0.07815085689062451,0.22624282461518436
0.11817470887016848,0.22996159563924676,-0.1053990646679881,-0.20441030723488604,0.2894145056583469,0.2561462026214841,0.07814631106010353,0.22625272685095268
0.14053208622398414,0.3353606603072349,0.07026604311199207,-0.21718595143706637,0.28943074790197243,0.25614536577150193,0.07814176122521391,0.2262626015118215
0.06387822101090188,0.2682885282457879,0.09901124256689792,-0.11498079781962338,0.2894470441931928,0.2561446352985843,0.07813720777336995,0.22627244877150207
0.01596955525272547,0.05429648785926659,0.04471475470763132,-0.038326932606541124,0.2894633949738127,0.25614401189532865,0.07813265110005552,0.22628226872523127
0.07665386521308225,-0.07665386521308225,-0.0031939110505450944,-0.006387822101090189,0.28947980032956233,0.25614349616895193,0.07812809158920868,0.22629206130000942
-0.18524684093161545,-0.11498079781962338,-0.019163466303270562,0.2076042182854311,0.2894962599745324,0.25614308851508943,0.07812352957510396,0.2263018261817506
-0.7409873637264618,-0.3002276387512388,-0.18844075198216054,0.3832693260654113,0.2895127733621198,0.25614278907760973,0.07811896532337624,0.2263115628559741
-1.0571845577304262,-0.48866839073339935,-0.29064590559960357,0.4471475470763132,0.2895293400163775,0.25614259785260524,0.0781143990953698,0.22632127078209066
-0.6196187438057482,-0.5812918111992071,-0.21718595143706637,0.39604497026759167,0.28954595998077176,0.2561425148968592,0.07810983128086947,0.22633094959015795
0.05749039890981169,-0.46950492443012876,-0.10220515361744302,0.2810641724479683,0.28956263399480414,0.2561425405363039,0.07810526248267512,0.22634059917165317
0.38965714816650143,-0.32258501610505447,-0.04152084365708622,0.12456253097125865,0.2895793632196101,0.25614267544854324,0.07810069347603087,0.22635021962771318
0.4215962586719524,-0.1628894635777998,0.02235737735381566,-0.10220515361744302,0.28959614889792284,0.2561429205739576,0.07809612509525034,0.22635981112283987
0.28425808349851334,0.1628894635777998,0.07345995416253714,-0.2491250619425173,0.28961299228462994,0.25614327693009387,0.07809155814347156,0.22636937374931076
0.2076042182854311,0.3130032829534192,0.07984777626362735,-0.36729977081268583,0.28962989467843675,0.2561437454645532,0.0780869933677604,0.2263789075119922
0.1628894635777998,0.3257789271555996,0.09262342046580772,-0.33216674925668976,0.28964685735179463,0.25614432703926787,0.07808243147998724,0.22638841243344748
0.13095035307234884,0.2746763503468781,0.07665386521308225,-0.27148243929633303,0.2896638814363034,0.25614502250329785,0.07807787318230498,0.2263978886573311
0.1053990646679881,0.2076042182854311,-0.012775644202180378,-0.23315550668979185,0.2896809678411643,0.25614583273204233,0.07807331916968706,0.22640733645874433
0.16608337462834488,0.23954332879088208,-0.10859297571853319,-0.2076042182854311,0.28969811720940214,0.2561467585936011,0.07806877011082418,0.2264167561874439
0.08942950941526263,0.29064590559960357,0.12136861992071357,-0.17247119672943506,0.2897153299066179,0.25614780090858746,0.07806422664476415,0.22642614820425044
0.03193911050545094,0.1117868867690783,0.11498079781962338,-0.07345995416253714,0.2897326060124308,0.2561489604408412,0.07805968941494756,0.22643551282219415
-0.028745199454905845,-0.038326932606541124,0.060684309960356786,-0.035133021555996034,0.2897499452790792,0.2561502378574422,0.07805515909960264,0.22644485023134459
0.012775644202180378,-0.1117868867690783,0.019163466303270562,-0.009581733151635281,0.2897673470768543,0.25615163362798105,0.07805063639658766,0.22645416041006897
-0.4311779918235877,-0.20121639618434092,-0.06707213206144698,0.21718595143706637,0.28978481040311377,0.256153147957896,0.07804612197885384,0.22646344307479346
-0.9453976709613479,-0.3704936818632309,-0.22676768458870167,0.4311779918235877,0.289802334083751,0.2561547808404982,0.07804161648303706,0.22647269774602521
-0.5812918111992071,-0.5078318570366699,-0.17247119672943506,0.4631171023290387,0.28981991717568484,0.25615653221216805,0.0780371205729151,0.22648192394416214
-0.22996159563924676,-0.5301892343904856,-0.11498079781962338,0.4056267034192269,0.28983755924673976,0.25615840214823227,0.07803263501941643,0.2264911213981602
0.18844075198216054,-0.47269883548067393,-0.047908665758176414,0.24593115089197226,0.2898552602556136,0.2561603910173689,0.07802816070494427,0.22650029012580158
0.32897283820614465,-0.3002276387512388,0.0031939110505450944,0.060684309960356786,0.2898730202482934,0.2561624995202115,0.07802369855232215,0.2265094303490722
0.4311779918235877,0.0,0.05110257680872151,-0.16927728567888997,0.28989083922572634,0.25616472857669315,0.07801924944501615,0.2265185423180077
0.5142196791377601,0.2587067950941526,0.09901124256689792,-0.29703372770069375,0.289908717223483,0.2561670791112062,0.07801481419340454,0.22652762618986277
0.28425808349851334,0.39285105921704655,0.08623559836471753,-0.3641058597621407,0.2899266544305426,0.2561695519190193,0.07801039355714967,0.2265366820623884
0.14053208622398414,0.5142196791377601,0.07665386521308225,-0.3098093719028741,0.2899446511851609,0.2561721477490392,0.07800598828202339,0.22654571009359356
0.11498079781962338,0.2650946171952428,0.05749039890981169,-0.2587067950941526,0.2899627078229771,0.2561748674759513,0.07800159911021377,0.22655471057357104
0.09262342046580772,0.2139920403865213,0.009581733151635281,-0.22996159563924676,0.2899808245007487,0.2561777121439492,0.07799722676238355,0.22656368390657394
0.2107981293359762,0.19802248513379583,-0.009581733151635281,-0.2107981293359762,0.2899990011093809,0.25618068285790857,0.0779928719033599,0.2265726305520197
0.18205292988107036,0.19482857408325072,0.05110257680872151,-0.1469199083250743,0.2900172372843756,0.2561837806615129,0.07798853511085865,0.22658155096829843
0.03193911050545094,0.10220515361744302,0.07984777626362735,-0.05429648785926659,0.29003553244175584,0.25618700647476633,0.0779842168752781,0.2265904455519422
-0.03193911050545094,-0.006387822101090189,0.03193911050545094,-0.02235737735381566,0.29005388575048596,0.25619036103778536,0.07797991762697075,0.22659931455248947
0.04152084365708622,-0.04152084365708622,0.05429648785926659,0.1117868867690783,0.29007229605075574,0.25619384482343793,0.07797563775351277,0.2266081579909154
-0.4599231912784935,-0.18524684093161545,-0.06387822101090188,0.3098093719028741,0.29009076184276106,0.25619745797735977,0.07797137759725724,0.2266169756565651
-1.1018993124380576,-0.4439536360257681,-0.24593115089197226,0.4918623017839445,0.29010928150714554,0.2562012003781021,0.07796713747453352,0.22662576723562178
-0.948591582011893,-0.511025768087215,-0.24593115089197226,0.46950492443012876,0.29012785378662803,0.2562050718355034,0.07796291775594383,0.22663453252729207
-0.23315550668979185,-0.5493527006937562,-0.09581733151635283,0.3353606603072349,0.29014647818660655,0.2562090723302742,0.07795871896231646,0.22664327161109565
0.2203798624876115,-0.36729977081268583,-0.025551288404360755,0.20121639618434092,0.2901651548846722,0.2562132021610962,0.07795454176866301,0.22665198485401902
0.3768815039643211,-0.21718595143706637,-0.03193911050545094,-0.02235737735381566,0.2901838843178099,0.2562174619275892,0.0779503869056029,0.2266606727678546
0.4471475470763132,0.13733817517343905,0.028745199454905845,-0.2107981293359762,0.29020266694662106,0.2562218523752719,0.07794625506176807,0.22666933582409987
0.4631171023290387,0.3449423934588701,0.09901124256689792,-0.33216674925668976,0.2902215033001751,0.256226374228525,0.07794214685198601,0.22667797437062048
0.21718595143706637,0.3832693260654113,0.09262342046580772,-0.3481363045094153,0.2902403940571502,0.256231028152793,0.07793806283875686,0.22668658870922082
0.1565016414767096,0.5269953233399406,0.07984777626362735,-0.2938398166501486,0.29025933999387,0.2562358148590446,0.07793400356943328,0.2266951792231808
0.13095035307234884,0.24273723984142714,-0.09581733151635283,-0.24593115089197226,0.2902783418270233,0.25624073522565793,0.07792996959613352,0.22670374642463537
0.09901124256689792,0.20121639618434092,-0.2587067950941526,-0.20441030723488604,0.2902974000728374,0.25624579029980343,0.0779259614944033,0.22671229091630576
0.019163466303270562,0.18844075198216054,0.04471475470763132,-0.23315550668979185,0.290316514968127,0.25625098117164813,0.07792197990872507,0.22672081332946448
0.02235737735381566,0.1469199083250743,0.10220515361744302,-0.13095035307234884,0.2903356864099458,0.25625630884442996,0.07791802557351617,0.22672931427679208
0.07345995416253714,0.012775644202180378,0.06387822101090188,-0.04471475470763132,0.2903549139061404,0.2562617741557222,0.07791409927051417,0.226737794300758
-0.0031939110505450944,-0.07984777626362735,0.035133021555996034,0.0,0.29037419656255686,0.25626737770154473,0.0779102017766665,0.2267462537848961
-0.33216674925668976,-0.09262342046580772,-0.006387822101090189,0.2076042182854311,0.29039353311741306,0.2562731197722339,0.07790633382953176,0.22675469287240907
-0.7697325631813676,-0.28425808349851334,-0.17247119672943506,0.40243279236868185,0.29041292209612285,0.2562790003637641,0.07790249610682666,0.226763111499995
-1.0316332693260652,-0.475892746531219,-0.28425808349851334,0.4471475470763132,0.29043236217778057,0.25628501929538305,0.07789868927080597,0.22677150957556438
-0.5206075012388504,-0.613230921704658,-0.2107981293359762,0.39604497026759167,0.29045185261860734,0.2562911764222476,0.07789491408690533,0.22677988717991335
0.07984777626362735,-0.5142196791377601,-0.06707213206144698,0.2810641724479683,0.29047139335521976,0.2562974718646497,0.07789117150587728,0.2267882446543107
0.32897283820614465,-0.3353606603072349,-0.0031939110505450944,0.12775644202180375,0.2904909846944852,0.25630390612022624,0.07788746261557937,0.22679658254344384
0.45672928022794845,-0.10220515361744302,-0.0031939110505450944,-0.11817470887016848,0.2905106269883208,0.2563104799801962,0.07788378851298984,0.22680490144977963
0.4088206144697721,0.2235737735381566,0.07026604311199207,-0.2619007061446977,0.2905303206023007,0.2563171943173194,0.07788015021070616,0.22681320190448323
0.36729977081268583,0.35452412661050536,0.10859297571853319,-0.36729977081268583,0.2905500660205461,0.256324049930064,0.07787654862921793,0.22682148435832417
0.19163466303270565,0.3641058597621407,0.09262342046580772,-0.32897283820614465,0.29056986385631794,0.25633104755811137,0.07787298464424404,0.22682974928475455
0.1469199083250743,0.2938398166501486,0.07026604311199207,-0.2682885282457879,0.29058971474732054,0.25633818798031444,0.07786945912713267,0.22683799727451653
0.11498079781962338,0.23634941774033696,-0.035133021555996034,-0.22996159563924676,0.29060961921228307,0.2563454720490311,0.07786597294479713,0.22684622903889745
0.14372599727452925,0.2235737735381566,-0.03193911050545094,-0.18205292988107036,0.29062957754537816,0.2563529006408806,0.07786252693033786,0.22685444534842283
0.12456253097125865,0.25231897299306244,0.05110257680872151,-0.1628894635777998,0.29064958977626476,0.2563604745944124,0.07785912185352958,0.22686264696204803
0.24593115089197226,0.09262342046580772,0.07026604311199207,-0.07984777626362735,0.2906696556786464,0.256368194669777,0.07785575841339734,0.2268708345633668
0.1628894635777998,-0.009581733151635281,0.047908665758176414,-0.025551288404360755,0.29068977481019864,0.25637606148622893,0.07785243725097978,0.2268790086910796
0.07665386521308225,-0.07026604311199207,0.035133021555996034,-0.0031939110505450944,0.2907099465413845,0.25638407541530484,0.0778491589584975,0.2268871696579618
-0.4599231912784935,-0.20441030723488604,-0.03193911050545094,0.2139920403865213,0.29073017005913904,0.2563922365140373,0.07784592407109799,0.22689531750080455
-1.0731541129831517,-0.3768815039643211,-0.20441030723488604,0.4471475470763132,0.2907504445069102,0.25640054458612277,0.07784273306892506,0.2269034520469239
-0.6260065659068385,-0.4982501238850346,-0.1533077304261645,0.47269883548067393,0.29077076936002877,0.25640899935753436,0.07783958643069398,0.22691157311847415
-0.2619007061446977,-0.511025768087215,-0.09901124256689792,0.39285105921704655,0.29079114470759476,0.25641760068353775,0.07783648470614273,0.2269196807491725
0.16608337462834488,-0.36729977081268583,-0.04152084365708622,0.25231897299306244,0.2908115711072499,0.2564263486875168,0.07783342852496102,0.22692777526169208
0.3161971940039643,-0.24273723984142714,-0.04152084365708622,0.05429648785926659,0.2908320492302607,0.2564352437598778,0.07783041853860191,0.2269358571755825
0.38646323711595637,0.0,0.02235737735381566,-0.16608337462834488,0.29085257968485895,0.2564442864152986,0.07782745535871737,0.22694392702840996
0.3481363045094153,0.2491250619425173,0.11498079781962338,-0.3098093719028741,0.29087316305538585,0.25645347709427335,0.07782453953177901,0.2269519852556597
0.25231897299306244,0.3832693260654113,0.08942950941526263,-0.373687592913776,0.29089379996795534,0.256462816070654,0.07782167155670386,0.2269600322287476
0.17247119672943506,0.3704936818632309,0.07984777626362735,-0.3161971940039643,0.290914491064321,0.2564723035433964,0.07781885192102234,0.22696806838252498
0.14053208622398414,0.27787026139742316,0.06707213206144698,-0.2587067950941526,0.2909352369039585,0.25648193977434247,0.07781608111516648,0.2269760942897832
0.10859297571853319,0.20121639618434092,-0.04152084365708622,-0.23954332879088208,0.29095603786281676,0.25649172511235463,0.07781335961844431,0.22698411064010224
0.1501138193756194,0.2810641724479683,-0.06387822101090188,-0.22676768458870167,0.2909768940692279,0.2565016599241631,0.07781068787783789,0.22699211817983822
0.1596955525272547,0.2746763503468781,0.1501138193756194,-0.1565016414767096,0.29099780538625414,0.256511744542691,0.07780806630473946,0.22700011766048578
0.05749039890981169,0.11817470887016848,0.1501138193756194,-0.05110257680872151,0.2910187714184272,0.2565219792575745,0.07780549531062572,0.22700810978078317
0.019163466303270562,-0.04152084365708622,0.08304168731417244,-0.028745199454905845,0.2910397914912572,0.2565323642675789,0.07780297535665388,0.22701609509705764
-0.09581733151635283,-0.10859297571853319,0.07345995416253714,0.11498079781962338,0.2910608645968615,0.256542899573321,0.07780050696140244,0.22702407393566656
-0.6739152316650149,-0.23954332879088208,-0.08623559836471753,0.3257789271555996,0.2910819894241476,0.2565535849134217,0.07779809066681997,0.22703204638990235
-1.1434201560951436,-0.4631171023290387,-0.2587067950941526,0.4982501238850346,0.2911031646523789,0.2565644198350386,0.07779572702786823,0.22704001245306046
-0.7888960294846381,-0.5812918111992071,-0.22996159563924676,0.4631171023290387,0.29112438945966823,0.2565754038891747,0.07779341667330411,0.2270479722366812
-0.060684309960356786,-0.5142196791377601,-0.07984777626362735,0.33855457135777994,0.2911456638105153,0.2565865368564414,0.07779116038274198,0.22705592613276365
0.27148243929633303,-0.3098093719028741,0.0,0.20121639618434092,0.2911669882136687,0.2565978188651233,0.07778895906955871,0.2270638748143837
0.4215962586719524,-0.1533077304261645,0.012775644202180378,-0.009581733151635281,0.2911883632953174,0.2566092503196595,0.07778681366747427,0.22707181909030696
0.49505621283448964,0.11498079781962338,0.028745199454905845,-0.23315550668979185,0.29120978966866135,0.25662083169879873,0.07778472502946739,0.22707975971905914
0.4854744796828543,0.3353606603072349,0.04152084365708622,-0.35452412661050536,0.2912312680595659,0.25663256338449447,0.07778269389839444,0.22708769733156292
0.2107981293359762,0.373687592913776,0.07984777626362735,-0.3481363045094153,0.29125279939528514,0.2566444456497379,0.07778072092377014,0.2270956325216829
0.1469199083250743,0.34174848240832506,0.06707213206144698,-0.2938398166501486,0.2912743847260073,0.25665647876972597,0.07777880669155578,0.22710356597726697
0.13095035307234884,0.2491250619425173,-0.2203798624876115,-0.2682885282457879,0.2912960250405846,0.25666866310406333,0.0777769517636534,0.2271114985198623
0.14053208622398414,0.18524684093161545,-0.07984777626362735,-0.2076042182854311,0.2913177211179805,0.25668099907084657,0.07777515673249694,0.22711943106446203
0.17885901883052527,0.2491250619425173,0.01596955525272547,-0.2107981293359762,0.29133947347743927,0.2566934870646924,0.07777342224759501,0.22712736455829396
0.09581733151635283,0.20121639618434092,0.04152084365708622,-0.10859297571853319,0.2913612823825767,0.25670612740109844,0.07777174896880946,0.22713529992121828
0.060684309960356786,0.060684309960356786,0.04471475470763132,-0.047908665758176414,0.29138314783432917,0.25671892028887466,0.07777013749971812,0.22714323797660754
0.09581733151635283,-0.047908665758176414,0.019163466303270562,0.0031939110505450944,0.29140506953257733,0.2567318657669343,0.07776858836372763,0.22715117936114687
-0.24593115089197226,-0.11817470887016848,-0.025551288404360755,0.22676768458870167,0.29142704686034443,0.2567449636149819,0.07776710200156872,0.2271591244577278
-0.9006829162537164,-0.32258501610505447,-0.1565016414767096,0.39604497026759167,0.2914490790090049,0.2567582133382054,0.07776567877655727,0.22716707344302486
-1.188134910802775,-0.5206075012388504,-0.27148243929633303,0.43437190287413274,0.29147116535945006,0.25677161429203926,0.07776431903162065,0.22717502646639562
-0.5685161669970267,-0.613230921704658,-0.2076042182854311,0.38965714816650143,0.2914933059711948,0.2567851659144608,0.07776302320371865,0.22718298384099067
0.047908665758176414,-0.4631171023290387,-0.06387822101090188,0.2619007061446977,0.2915155017156633,0.25679886794647006,0.07776179190151904,0.2271909461206421
0.19163466303270565,-0.27787026139742316,-0.0031939110505450944,0.12775644202180375,0.29153775389063835,0.2568127205011301,0.07776062586113137,0.22719891403876827
0.35452412661050536,-0.1053990646679881,-0.012775644202180378,-0.1117868867690783,0.29156006377088445,0.2568267239370304,0.07775952582447439,0.22720688836431593
0.47269883548067393,0.1596955525272547,0.05429648785926659,-0.27148243929633303,0.29158243250490806,0.2568408786362674,0.07775849244986324,0.22721486977886649
0.43756581392467786,0.35452412661050536,0.10859297571853319,-0.3704936818632309,0.2916048612587334,0.25685518485762676,0.07775752630275044,0.2272228588757909
0.20121639618434092,0.3481363045094153,0.09901124256689792,-0.33216674925668976,0.29162735132431616,0.25686964276003793,0.07775662789908748,0.22723085626959166
0.1501138193756194,0.306615460852329,0.07665386521308225,-0.2746763503468781,0.29164990406201097,0.25688425251483854,0.07775579774860363,0.22723886269266028
0.11817470887016848,0.2235737735381566,-0.025551288404360755,-0.22996159563924676,0.2916725207371984,0.2568990143581959,0.07775503636065967,0.22724687899817914
0.06387822101090188,0.21718595143706637,-0.20441030723488604,-0.24273723984142714,0.29169520237964164,0.25691392854947603,0.0777543442302572,0.22725490610340382
0.07345995416253714,0.24273723984142714,0.05429648785926659,-0.2139920403865213,0.2917179497059538,0.2569289953059093,0.07775372185359183,0.22726294493879723
0.13414426412289396,0.11498079781962338,0.060684309960356786,-0.09901124256689792,0.2917407630853359,0.25694421476085144,0.07775316975230134,0.22727099641002432
0.1053990646679881,-0.02235737735381566,0.02235737735381566,-0.04152084365708622,0.2917636425472669,0.2569595869110094,0.07775268844886864,0.22727906133217915
0.025551288404360755,-0.08304168731417244,0.012775644202180378,-0.006387822101090189,0.2917865878017661,0.2569751115238121,0.07775227841372705,0.2272871403289912
-0.48228056863230917,-0.2076042182854311,-0.03193911050545094,0.2203798624876115,0.29180959826554,0.25699078807594405,0.07775194002989676,0.22729523376239572
-1.0699602019326064,-0.4088206144697721,-0.19482857408325072,0.45672928022794845,0.2918326732485105,0.25700661581264644,0.07775167359770607,0.22730334178856776
-0.6930786979682854,-0.4982501238850346,-0.14053208622398414,0.48228056863230917,0.2918558123773928,0.2570225939245767,0.07775147939745897,0.2273114645599534
-0.21718595143706637,-0.5206075012388504,-0.06707213206144698,0.39923888131813673,0.2918790159083431,0.25703872175604753,0.07775135776250179,0.22731960244345165
0.1628894635777998,-0.373687592913776,-0.028745199454905845,0.2650946171952428,0.2919022845802064,0.2570549989385732,0.07775130907950299,0.22732775609862377
0.3481363045094153,-0.2235737735381566,-0.028745199454905845,0.07026604311199207,0.2919256192386565,0.25707142538180056,0.07775133372484548,0.22733592638672395
0.4631171023290387,0.03193911050545094,0.02235737735381566,-0.1628894635777998,0.2919490206651654,0.25708800112445696,0.07775143200822741,0.22734411419354802
0.4918623017839445,0.24593115089197226,0.09581733151635283,-0.3098093719028741,0.29197248966550104,0.2571047261371014,0.07775160415637913,0.2273523203060782
0.3161971940039643,0.3768815039643211,0.12775644202180375,-0.3609119487115956,0.291996027196278,0.25712160023517244,0.07775185033840538,0.22736054544111764
0.18205292988107036,0.35133021555996036,0.1053990646679881,-0.3002276387512388,0.2920196343604417,0.25713862316504155,0.07775217071695131,0.22736879036233754
0.1469199083250743,0.2650946171952428,0.08304168731417244,-0.25231897299306244,0.2920433122698095,0.2571557947269376,0.07775256548372415,0.22737705594665616
0.12456253097125865,0.2139920403865213,-0.038326932606541124,-0.22996159563924676,0.29206706188608755,0.2571731147921807,0.07775303485246592,0.22738534316034292
0.07345995416253714,0.2682885282457879,0.01596955525272547,-0.21718595143706637,0.2920908839203486,0.2571905832402042,0.07775357902056262,0.22739365300124667
0.1533077304261645,0.24273723984142714,0.10859297571853319,-0.14372599727452925,0.2921147787854031,0.2572081999114133,0.07775419813282354,0.22740198644874882
0.2139920403865213,0.02235737735381566,0.06387822101090188,-0.05749039890981169,0.2921387465955804,0.2572259645799473,0.07775489228134326,0.22741034440651045
0.13095035307234884,-0.09901124256689792,0.03193911050545094,-0.028745199454905845,0.29216278721129685,0.2572438768781396,0.07775566152666473,0.2274187276177718
0.04152084365708622,-0.08942950941526263,0.07345995416253714,0.13095035307234884,0.2921869002634913,0.25726193619507226,0.07775650589761847,0.2274271365869894
-0.6292004769573835,-0.22996159563924676,-0.08942950941526263,0.33216674925668976,0.2922110851625734,0.2572801416471699,0.07775742538252842,0.2274355715854794
-1.2009105550049552,-0.43756581392467786,-0.2555128840436075,0.4982501238850346,0.29223534130628726,0.25729849215978007,0.07775841995944682,0.22744403278876166
-0.9326220267591674,-0.48866839073339935,-0.22996159563924676,0.46950492443012876,0.2922596685730205,0.2573169866406411,0.07775948968020754,0.22745252049283574
-0.11498079781962338,-0.4599231912784935,-0.07665386521308225,0.34174848240832506,0.29228406768111553,0.2573356241708936,0.07776063475094049,0.22746103527260905
0.22996159563924676,-0.3098093719028741,-0.0031939110505450944,0.20121639618434092,0.29230853999233436,0.25735440410007765,0.07776185551405253,0.2274695779812593
0.39285105921704655,-0.22676768458870167,-0.012775644202180378,-0.04471475470763132,0.2923330870388668,0.2573733259988361,0.07776315233575047,0.22747814960700716
0.45672928022794845,0.11498079781962338,0.05749039890981169,-0.2203798624876115,0.292357710314136,0.2573923895191686,0.07776452550927797,0.22748675109363084
0.4599231912784935,0.3449423934588701,0.1053990646679881,-0.3449423934588701,0.2923824113580018,0.2574115942631222,0.07776597524027609,0.22749538326357857
0.2139920403865213,0.3768815039643211,0.09581733151635283,-0.3481363045094153,0.29240719184427283,0.25743093976409753,0.07776750168824609,0.22750404689602005
0.1565016414767096,0.33855457135777994,0.07345995416253714,-0.2938398166501486,0.292432053519892,0.25745042557863,0.07776910500734287,0.22751274284837583
0.12456253097125865,0.29703372770069375,-0.13414426412289396,-0.2491250619425173,0.2924569980429619,0.2574700513637137,0.0777707853608928,0.22752147209655238
0.1501138193756194,0.2746763503468781,-0.11817470887016848,-0.19163466303270565,0.29248202684594515,0.25748981686922756,0.07777254293104506,0.2275302356918068
0.2235737735381566,0.2938398166501486,0.009581733151635281,-0.19482857408325072,0.29250714109153436,0.25750972189375293,0.07777437792733727,0.22753903469084003
0.20121639618434092,0.20121639618434092,0.019163466303270562,-0.11817470887016848,0.2925323416999399,0.2575297662494349,0.07777629055716284,0.22754787009350722
0.07665386521308225,0.06707213206144698,-0.012775644202180378,-0.04471475470763132,0.29255762938131924,0.2575499497113681,0.07777828096555313,0.2275567427821664
-0.1053990646679881,-0.0031939110505450944,0.009581733151635281,-0.006387822101090189,0.2925830046115446,0.25757027191165044,0.07778034919538859,0.22756565344258936
-0.45353536917740334,-0.14372599727452925,0.0,0.21718595143706637,0.2926084676068531,0.2575907322188275,0.07778249517635186,0.2275746025006896
-0.8399986062933597,-0.38965714816650143,-0.1501138193756194,0.39923888131813673,0.2926340184661928,0.2576113297223994,0.07778471873413312,0.22758359016769938
-1.0316332693260652,-0.5908735443508424,-0.2555128840436075,0.41201452552031714,0.29265965754177226,0.2576320633956662,0.0777870196528832,0.22759261661547633
-0.5397709675421208,-0.6451700322101089,-0.18205292988107036,0.3832693260654113,0.29268538582267367,0.2576529323713452,0.07778939779250756,0.22760168216253707
0.03193911050545094,-0.4631171023290387,-0.05429648785926659,0.2619007061446977,0.2927112049791796,0.2576739361676266,0.0777918531648508,0.22761078734688006
0.29064590559960357,-0.29064590559960357,-0.01596955525272547,0.12136861992071357,0.29273711700637006,0.2576950747278196,0.07779438589074392,0.22761993286768206
0.4471475470763132,-0.09581733151635283,0.012775644202180378,-0.13095035307234884,0.29276312386761644,0.2577163482627322,0.07779699609077535,0.22762911944892647
0.4982501238850346,0.18524684093161545,0.08623559836471753,-0.27787026139742316,0.2927892274663457,0.25773775701442675,0.07779968381240102,0.2276383477256147
0.45672928022794845,0.36729977081268583,0.1117868867690783,-0.3704936818632309,0.29281542980403424,0.2577593011105278,0.07780244903292653,0.22764761825033558
0.17247119672943506,0.3481363045094153,0.1053990646679881,-0.32897283820614465,0.29284173304982997,0.25778098059433757,0.07780529170750225,0.22765693160156833
0.13095035307234884,0.28425808349851334,0.08304168731417244,-0.2650946171952428,0.2928681394343632,0.25780279553377644,0.07780821180769944,0.2276662884723205
0.10859297571853319,0.22996159563924676,0.0031939110505450944,-0.22676768458870167,0.29289465105424606,0.2578247460588072,0.07781120931810669,0.2276756896656592
0.17566510777998018,0.2139920403865213,-0.060684309960356786,-0.24593115089197226,0.29292126973377336,0.25784683231091415,0.07781428419780231,0.22768513603568213
0.13095035307234884,0.2555128840436075,0.06707213206144698,-0.20121639618434092,0.29294799699413476,0.2578690543826034,0.0778174363480117,0.22769462843869978
0.04152084365708622,0.1501138193756194,0.07984777626362735,-0.07665386521308225,0.2929748340583455,0.2578914122875171,0.07782066561701972,0.22770416769385168
-0.0031939110505450944,0.0,0.05429648785926659,-0.035133021555996034,0.29300178181540376,0.257913905919011,0.07782397182167317,0.2277137545091909
0.02235737735381566,-0.07984777626362735,0.012775644202180378,-0.012775644202180378,0.29302884074989755,0.2579365349551124,0.07782735474940565,0.22772338937751155
-0.38965714816650143,-0.2139920403865213,-0.035133021555996034,0.2203798624876115,0.2930560109302066,0.2579592987820268,0.07783081413554721,0.2277330725146333
-0.9901124256689793,-0.4088206144697721,-0.21718595143706637,0.4599231912784935,0.2930832922027724,0.2579821965476052,0.07783434965767365,0.22774280392616963
-0.6260065659068385,-0.48866839073339935,-0.16608337462834488,0.4854744796828543,0.2931106846091115,0.25800522734234105,0.07783796099639953,0.22775258361363895
-0.12775644202180375,-0.5014440349355798,-0.09581733151635283,0.38646323711595637,0.2931381886855418,0.25802839040489073,0.0778416479189413,0.2277624117917228
0.2810641724479683,-0.38646323711595637,-0.028745199454905845,0.23954332879088208,0.29316580533366876,0.25805168524800953,0.07784541028694118,0.22777228895970345
0.38646323711595637,-0.24593115089197226,-0.012775644202180378,0.05429648785926659,0.2931935355121051,0.25807511165310687,0.07784924798453834,0.22778221579766322
0.34174848240832506,0.035133021555996034,0.035133021555996034,-0.16608337462834488,0.2932213801328519,0.2580986695371033,0.07785316084297955,0.2277921929816508
0.35771803766105054,0.20121639618434092,0.07345995416253714,-0.3161971940039643,0.2932493401182892,0.2581223587600312,0.07785714861182559,0.22780222106758402
0.2555128840436075,0.3768815039643211,0.10859297571853319,-0.35452412661050536,0.29327741642668653,0.2581461790194,0.07786121097877514,0.22781230053381613
0.1565016414767096,0.4439536360257681,0.08942950941526263,-0.29703372770069375,0.2933056100044694,0.25817012992836375,0.0778653476117005,0.22782243190386542
0.12456253097125865,0.2682885282457879,0.06387822101090188,-0.24593115089197226,0.29333392168742267,0.25819421117162217,0.07786955818642387,0.22783261580943664
0.09581733151635283,0.20441030723488604,-0.04152084365708622,-0.24273723984142714,0.293362352091791,0.25821842255293204,0.07787384238071436,0.2278428529644565
0.17566510777998018,0.2491250619425173,0.019163466303270562,-0.23315550668979185,0.2933909015476051,0.25824276391376955,0.07787819984462202,0.22785314411329138
0.2107981293359762,0.2491250619425173,0.06387822101090188,-0.1596955525272547,0.2934195700988579,0.25826723505146065,0.07788263017191603,0.22786348999214728
0.07984777626362735,0.1053990646679881,0.05429648785926659,-0.06387822101090188,0.2934483575410536,0.2582918356901826,0.07788713289328741,0.22787389127968086
-0.0031939110505450944,-0.019163466303270562,0.028745199454905845,-0.01596955525272547,0.29347726341559494,0.2583165654293041,0.07789170748633416,0.22788434850954153
-0.1533077304261645,-0.038326932606541124,0.05110257680872151,0.13414426412289396,0.29350628694412345,0.25834142363488,0.07789635337829381,0.22789486198065415
-0.6643334985133795,-0.22676768458870167,-0.11498079781962338,0.3449423934588701,0.29353542704944746,0.2583664093634933,0.0779010699475042,0.22790543175508607
-1.0763480240336967,-0.5014440349355798,-0.2746763503468781,0.4918623017839445,0.29356468264247104,0.2583915214305584,0.077905856566505,0.22791605779823454
-0.8591620725966302,-0.5908735443508424,-0.23315550668979185,0.4599231912784935,0.2935940531074963,0.2584167586373867,0.07791071270306806,0.2279267401972821
-0.05749039890981169,-0.5238014122893954,-0.07345995416253714,0.3353606603072349,0.2936235385839218,0.2584421200334389,0.07791563800660965,0.22793747931282027
0.2587067950941526,-0.303421549801784,-0.025551288404360755,0.20441030723488604,0.29365313974613594,0.2584676050412762,0.07792063228270121,0.2279482757721362
0.2619007061446977,-0.16608337462834488,-0.028745199454905845,-0.04471475470763132,0.29368285736382255,0.258493213374225,0.07792569537910417,0.22795913032834156
0.35452412661050536,0.12775644202180375,0.04152084365708622,-0.22996159563924676,0.2937126920962167,0.2585189448297522,0.07793082709402126,0.2279700436872178
0.4663110133795837,0.3002276387512388,0.08304168731417244,-0.34174848240832506,0.29374264454244925,0.2585447991185949,0.07793602715373531,0.2279810164350141
0.24273723984142714,0.3832693260654113,0.1053990646679881,-0.3353606603072349,0.2937727153382912,0.25857077584418364,0.07794129523598259,0.2279920491158618
0.17566510777998018,0.3704936818632309,0.08623559836471753,-0.28425808349851334,0.29380290516337276,0.25859687460707975,0.07794663100683799,0.22800314234588842
0.1628894635777998,0.2587067950941526,-0.09262342046580772,-0.23634941774033696,0.29383321463564827,0.25862309510030734,0.07795203414434966,0.22801429684492483
0.1628894635777998,0.24273723984142714,-0.45353536917740334,-0.22676768458870167,0.2938636441927751,0.2586494371043755,0.07795750437721603,0.22802551339393196
0.24593115089197226,0.27148243929633303,0.05429648785926659,-0.2203798624876115,0.29389419404796385,0.2586759004206546,0.0779630415833073,0.22803679278138592
0.1565016414767096,0.17885901883052527,0.11498079781962338,-0.1117868867690783,0.2939248642055148,0.25870248481941194,0.07796864584860766,0.22804813576102614
-0.038326932606541124,-0.012775644202180378,0.07026604311199207,-0.04152084365708622,0.2939556544650208,0.258729189988081,0.07797431739155616,0.2280595429914727
-0.10220515361744302,-0.1053990646679881,0.04471475470763132,-0.019163466303270562,0.29398656436535664,0.2587560154331712,0.07798005645681855,0.22807101494197007
-0.3641058597621407,-0.10220515361744302,-0.012775644202180378,0.2235737735381566,0.2940175931438089,0.25878296038935467,0.07798586326077435,0.22808255182314205
-0.8687438057482655,-0.306615460852329,-0.1469199083250743,0.4247901697224975,0.29404873987365326,0.2588100238229503,0.07799173796628443,0.22809415363894542
-1.0763480240336967,-0.5493527006937562,-0.24593115089197226,0.4247901697224975,0.2940800038469912,0.25883720455665943,0.07799768071218577,0.22810582037080113
-0.5653222559464817,-0.6707213206144698,-0.16608337462834488,0.40243279236868185,0.29411138500192974,0.258864501503685,0.07800369170711,0.22811755216922153
0.07984777626362735,-0.5301892343904856,-0.04471475470763132,0.28425808349851334,0.2941428840082224,0.25889191391901,0.07800977129183265,0.22812934942842938
0.3768815039643211,-0.306615460852329,-0.019163466303270562,0.11498079781962338,0.29417450192897526,0.2589194415018165,0.07801591989258747,0.22814121272673257
0.5365770564915758,-0.1053990646679881,-0.01596955525272547,-0.13733817517343905,0.2942062398853408,0.2589470842712253,0.07802213791773385,0.2281531426829862
0.574903989098117,0.19802248513379583,0.07026604311199207,-0.2874519945490585,0.29423809905591375,0.2589748423199684,0.07802842569252122,0.2281651398329749
0.4247901697224975,0.38646323711595637,0.13414426412289396,-0.36729977081268583,0.2942700808362801,0.25900271565044103,0.07803478346404746,0.22817720463248414
0.1596955525272547,0.3768815039643211,0.10859297571853319,-0.32258501610505447,0.29430218686417536,0.25903070420228463,0.07804121145243333,0.22818933756432194
0.11498079781962338,0.3002276387512388,0.08623559836471753,-0.2650946171952428,0.2943344188516482,0.25905880796778163,0.07804770989684667,0.2282015392213761
0.09262342046580772,0.25231897299306244,0.02235737735381566,-0.2203798624876115,0.2943667783560703,0.2590870270328481,0.07805427905541375,0.2282138102975825
0.08304168731417244,0.2587067950941526,0.04152084365708622,-0.22676768458870167,0.294399266629879,0.25911536152755055,0.07806091916532272,0.2282261515265681
0.009581733151635281,0.3161971940039643,0.10220515361744302,-0.18524684093161545,0.2944318845585908,0.2591438115749541,0.0780676304082082,0.22823856362684167
-0.060684309960356786,0.1628894635777998,0.08623559836471753,-0.08304168731417244,0.2944646326245588,0.25917237727629006,0.07807441291714723,0.22825104725682752
0.03193911050545094,-0.01596955525272547,0.04471475470763132,-0.038326932606541124,0.29449751088186427,0.25920105866890486,0.07808126680360505,0.22826360294595294
0.09581733151635283,-0.12775644202180375,0.009581733151635281,0.0,0.29453051895852117,0.2592298556151636,0.0780881921543215,0.22827623100095373
-0.3449423934588701,-0.23315550668979185,-0.07026604311199207,0.22676768458870167,0.29456365610807334,0.25925876771972334,0.07809518899955359,0.22828893144706142
-0.9677550483151636,-0.4056267034192269,-0.24273723984142714,0.45353536917740334,0.29459692140296423,0.25928779438427074,0.07810225731609462,0.22830170409269057
-0.613230921704658,-0.475892746531219,-0.16608337462834488,0.49505621283448964,0.29463031411023616,0.25931693497433417,0.07810939710492668,0.2283145487368981
-0.14372599727452925,-0.5333831454410307,-0.09581733151635283,0.39604497026759167,0.2946638339694389,0.2593461890040594,0.07811660847439392,0.2283274653913627
0.22676768458870167,-0.39604497026759167,-0.006387822101090189,0.25231897299306244,0.29469748107066296,0.2593755562602526,0.07812389163066831,0.22834045435831898
0.3768815039643211,-0.2682885282457879,-0.012775644202180378,0.04471475470763132,0.2947312555462808,0.2594050368095761,0.07813124678843598,0.2283535161306773
0.40243279236868185,0.01596955525272547,0.02235737735381566,-0.18524684093161545,0.29476515746303084,0.259434630869508,0.07813867408766532,0.22836665120456598
0.4311779918235877,0.2587067950941526,0.07984777626362735,-0.3098093719028741,0.2947991869093445,0.259464338610101,0.0781461735663583,0.22837985996003504
0.2650946171952428,0.39604497026759167,0.08942950941526263,-0.35771803766105054,0.29483334407075645,0.25949416005278286,0.07815374518467419,0.22839314270294306
0.1565016414767096,0.440759724975223,0.07345995416253714,-0.303421549801784,0.29486762919452936,0.25952409516090796,0.07816138886595085,0.2284064997857843
0.12775644202180375,0.2746763503468781,0.028745199454905845,-0.25231897299306244,0.2949020424610385,0.2595541439908652,0.07816910451546256,0.22841993167038058
0.10220515361744302,0.2587067950941526,-0.1533077304261645,-0.2491250619425173,0.2949365838467677,0.2595843067271566,0.07817689201542298,0.22843343890498713
0.1628894635777998,0.21718595143706637,-0.04152084365708622,-0.2555128840436075,0.2949712530488102,0.25961458360425715,0.07818475123148975,0.22844702207614806
0.11498079781962338,0.23315550668979185,0.02235737735381566,-0.1469199083250743,0.29500604947173487,0.2596449748220252,0.07819268202132544,0.22846068177305565
-0.0031939110505450944,0.060684309960356786,0.01596955525272547,-0.05429648785926659,0.2950409722255047,0.2596754804893413,0.07820068420568244,0.22847441853397477
-0.16608337462834488,-0.06387822101090188,0.006387822101090189,-0.025551288404360755,0.29507602009600636,0.25970610055077914,0.07820875752330043,0.22848823274756816
-0.2139920403865213,-0.07026604311199207,0.025551288404360755,0.13733817517343905,0.29511119154048066,0.25973683469320086,0.07821690160845832,0.2285021245598598
-0.6036491885530227,-0.2650946171952428,-0.11498079781962338,0.34174848240832506,0.29514648479570255,0.2597676823079087,0.07822511599883758,0.22851609387809532
-1.0316332693260652,-0.45672928022794845,-0.2587067950941526,0.49505621283448964,0.2951818981535296,0.2597986425775,0.07823340019233445,0.22853014051312265
-0.7697325631813676,-0.5046379459861249,-0.22996159563924676,0.46950492443012876,0.2952174303603245,0.25982971467365795,0.07824175375880471,0.2285442643966105
0.009581733151635281,-0.47269883548067393,-0.07984777626362735,0.33216674925668976,0.2952530808382452,0.25986089795974593,0.07825017643300763,0.22855846573454114
0.2874519945490585,-0.2938398166501486,-0.006387822101090189,0.19163466303270565,0.2952888494584909,0.2598921920786816,0.07825866809430969,0.2285727450001755
0.38646323711595637,-0.1565016414767096,-0.012775644202180378,-0.04471475470763132,0.2953247361503147,0.25992359688443734,0.07826722865227519,0.2285871027863857
0.4918623017839445,0.12775644202180375,0.04152084365708622,-0.23315550668979185,0.29536074079041197,0.25995511227125495,0.07827585794800189,0.2286015396279759
0.4982501238850346,0.3257789271555996,0.14053208622398414,-0.3481363045094153,0.2953968633363496,0.2599867380290874,0.07828455573668514,0.22861605593367113
0.2076042182854311,0.36729977081268583,0.12775644202180375,-0.3353606603072349,0.2954331039257189,0.26001847383872534,0.07829332173805563,0.22863065207012356
0.1533077304261645,0.32897283820614465,0.1053990646679881,-0.2810641724479683,0.295469462809487,0.2600503193762539,0.07830215569896093,0.22864532847757435
0.13414426412289396,0.2874519945490585,0.04471475470763132,-0.23315550668979185,0.29550594017131937,0.26008227439204834,0.07831105741203209,0.22866008569814555
0.13414426412289396,0.22996159563924676,0.028745199454905845,-0.2107981293359762,0.2955425359779338,0.26011433870083817,0.07832002668158229,0.22867492432805614
0.19802248513379583,0.2587067950941526,0.12136861992071357,-0.20441030723488604,0.2955792499285043,0.2601465121262545,0.07832906328111058,0.2286898449573396
0.21718595143706637,0.17566510777998018,0.09262342046580772,-0.11498079781962338,0.2956160814728117,0.2601787944505995,0.0783381669519252,0.2287048481219612
0.13095035307234884,0.0031939110505450944,0.05110257680872151,-0.038326932606541124,0.2956530298494975,0.2602111853571077,0.0783473374301828,0.22871993424561277
0.06387822101090188,-0.07345995416253714,0.03193911050545094,0.0031939110505450944,0.29569009408546043,0.2602436843290345,0.07835657444664186,0.22873510355192067
-0.3130032829534192,-0.12775644202180375,-0.028745199454905845,0.23315550668979185,0.2957272729610394,0.26027629055596907,0.0783658776927862,0.22875035599662463
-0.7952838515857285,-0.3098093719028741,-0.18524684093161545,0.4184023476214073,0.29576456508657545,0.26030900294323406,0.07837524680540287,0.22876569132000707
-0.9677550483151636,-0.5525466117443013,-0.2874519945490585,0.4184023476214073,0.2958019692184406,0.2603418202523161,0.07838468142455123,0.22878110923427114
-0.511025768087215,-0.6036491885530227,-0.19802248513379583,0.4088206144697721,0.29583948464858795,0.26037474133530475,0.07839418131199448,0.22879660961589426
-0.06707213206144698,-0.47908665758176416,-0.07984777626362735,0.27148243929633303,0.295877111286825,0.26040776535747906,0.07840374642263412,0.22881219257972826
0.2235737735381566,-0.34174848240832506,-0.04152084365708622,0.10859297571853319,0.29591484934267526,0.2604408918718143,0.07841337685471907,0.22882785841855546
0.39285105921704655,-0.05429648785926659,0.009581733151635281,-0.13095035307234884,0.29595269897998017,0.260474120702758,0.07842307273635393,0.2288436074559694
0.46950492443012876,0.16927728567888997,0.07026604311199207,-0.28425808349851334,0.29599066026534127,0.26050745171892326,0.0784328341419317,0.22885943992077878
0.35771803766105054,0.35771803766105054,0.11498079781962338,-0.373687592913776,0.2960287333041042,0.26054088466316994,0.07844266107596962,0.22887535595307118
0.14053208622398414,0.3609119487115956,0.07984777626362735,-0.3257789271555996,0.29606691830037235,0.2605744191699986,0.07845255350720706,0.22889135571726568
0.10859297571853319,0.29703372770069375,0.06387822101090188,-0.2682885282457879,0.29610521544939905,0.26060805488820893,0.07846251140030121,0.228907439490795
0.08623559836471753,0.23954332879088208,0.0031939110505450944,-0.2235737735381566,0.29614362476137734,0.2606417915361406,0.07847253470658357,0.22892360765721206
0.08623559836471753,0.2555128840436075,-0.04152084365708622,-0.23634941774033696,0.29618214594243353,0.2606756288621978,0.07848262332596258,0.2289398606450849
0.08942950941526263,0.29703372770069375,0.13414426412289396,-0.19163466303270565,0.29622077835350863,0.26070956659675604,0.07849277708673369,0.22895619887497737
0.05110257680872151,0.1469199083250743,0.09901124256689792,-0.07665386521308225,0.2962595210017394,0.2607436044347854,0.07850299577633428,0.22897262271562566
0.01596955525272547,-0.035133021555996034,0.05429648785926659,-0.03193911050545094,0.2962983725277072,0.26077774199222487,0.07851327918672357,0.22898913241059438
-0.012775644202180378,-0.1533077304261645,0.019163466303270562,-0.012775644202180378,0.29633733117658917,0.26081197870599065,0.07852362711273636,0.2290057279783718
-0.4439536360257681,-0.23315550668979185,-0.04152084365708622,0.23315550668979185,0.2963763948102571,0.2608463137714321,0.07853403931003981,0.2290224091551626
-1.02205153617443,-0.4056267034192269,-0.22676768458870167,0.475892746531219,0.2964155611170287,0.2608807462045778,0.07854451548124347,0.22903917546856023
-0.6675274095639246,-0.4854744796828543,-0.18844075198216054,0.49505621283448964,0.2964548280491513,0.26091527500059364,0.07855505533969535,0.22905602645261008
-0.18524684093161545,-0.5078318570366699,-0.09262342046580772,0.39285105921704655,0.29649419413648564,0.2609498993094128,0.07856565869784961,0.229072961869244
0.20121639618434092,-0.3609119487115956,-0.03193911050545094,0.24273723984142714,0.2965336583518893,0.260984618548313,0.07857632547426065,0.22908998177672757
0.3449423934588701,-0.18205292988107036,-0.028745199454905845,0.04152084365708622,0.29657321976334683,0.2610194323839486,0.07858705561559055,0.22910708641890423
0.4663110133795837,0.060684309960356786,0.02235737735381566,-0.17566510777998018,0.29661287738831665,0.26105434057856003,0.07859784901834004,0.22912427603259405
0.4631171023290387,0.25231897299306244,0.04471475470763132,-0.3161971940039643,0.2966526302840489,0.2610893428016457,0.07860870549475268,0.2291415507284849
0.2682885282457879,0.3704936818632309,0.09581733151635283,-0.3609119487115956,0.2966924776543252,0.2611244385632065,0.07861962477693213,0.22915891053721685
0.17566510777998018,0.5685161669970267,0.07984777626362735,-0.3002276387512388,0.2967324188217529,0.2611596273279989,0.07863060654651466,0.22917635553588217
0.13414426412289396,0.2650946171952428,0.009581733151635281,-0.24593115089197226,0.29677245308354494,0.26119490869427786,0.07864165046016261,0.22919388591166973
0.09581733151635283,0.17885901883052527,-0.17566510777998018,-0.24593115089197226,0.2968125795628634,0.26123028244494617,0.07865275615150286,0.22921150193466194
0.04471475470763132,0.1469199083250743,0.0,-0.25231897299306244,0.2968527971132135,0.2612657484201065,0.07866392323673974,0.22922920390637716
0.08942950941526263,0.12456253097125865,0.05749039890981169,-0.1533077304261645,0.2968931042602266,0.2613013063534171,0.07867515132017909,0.2292469921251918
0.08623559836471753,0.038326932606541124,0.03193911050545094,-0.06387822101090188,0.2969334991756012,0.26133695577561944,0.07868643996973222,0.22926486683782235
0.05429648785926659,-0.05429648785926659,0.0031939110505450944,-0.03193911050545094,0.2969739796811405,0.261372695952374,0.07869778868634368,0.2292828281474777
-0.035133021555996034,-0.08623559836471753,0.04471475470763132,0.1501138193756194,0.2970145432509201,0.26140852583610286,0.0787091968884292,0.22930087592568618
-0.6164248327552032,-0.2491250619425173,-0.10859297571853319,0.3449423934588701,0.29705518705049816,0.2614444440729691,0.07872066391447573,0.22931900981785383
-1.089123668235877,-0.45672928022794845,-0.2682885282457879,0.5142196791377601,0.2970959081887558,0.2614804491072941,0.07873218907498238,0.2293372293860786
-0.8240290510406343,-0.5238014122893954,-0.23634941774033696,0.4663110133795837,0.29713670420263244,0.2615165393799611,0.07874377176188044,0.2293555343267943
-0.07665386521308225,-0.48866839073339935,-0.07665386521308225,0.32897283820614465,0.2971775733725258,0.2615527135374743,0.07875541154073233,0.22937392462159448
0.2587067950941526,-0.303421549801784,0.0,0.19163466303270565,0.29721851452423287,0.26158897053205454,0.07876710812815849,0.22939240052263338
0.38965714816650143,-0.1596955525272547,0.0031939110505450944,-0.05110257680872151,0.29725952661310295,0.2616253095568278,0.07877886127055876,0.22941096239967768
0.4439536360257681,0.1533077304261645,0.06387822101090188,-0.23315550668979185,0.2973006085689043,0.26166172987125763,0.07879067064146804,0.22942961056402078
0.48228056863230917,0.3353606603072349,0.10220515361744302,-0.35452412661050536,0.2973417593950197,0.2616982306568765,0.0788025358266861,0.22944834520358276
0.2107981293359762,0.38646323711595637,0.1053990646679881,-0.33855457135777994,0.29738297825552595,0.261734811016704,0.07881445636983392,0.22946716646812554
0.1469199083250743,0.5365770564915758,0.08623559836471753,-0.28425808349851334,0.2974242644173455,0.2617714700999684,0.07882643181840815,0.22948607458548592
0.12136861992071357,0.2555128840436075,0.009581733151635281,-0.23634941774033696,0.2974656170840913,0.2618082072315793,0.07883846173143905,0.22950506988981215
0.10859297571853319,0.17885901883052527,-0.01596955525272547,-0.19482857408325072,0.2975070352477466,0.26184502191758197,0.07885054564413027,0.22952415277125615
0.11498079781962338,0.20121639618434092,0.1053990646679881,-0.19482857408325072,0.2975485176220924,0.26188191371472425,0.07886268302783206,0.22954332360857987
0.12456253097125865,0.1628894635777998,0.11498079781962338,-0.09262342046580772,0.2975900626272471,0.2619188820959705,0.07887487329881282,0.22956258271150062
0.13095035307234884,0.025551288404360755,0.05110257680872151,-0.038326932606541124,0.29763166839517186,0.2619559263799311,0.07888711586361624,0.2295819302562695
0.05429648785926659,-0.05429648785926659,0.038326932606541124,-0.0031939110505450944,0.2976733327763609,0.26199304566208015,0.078899410134058,0.2296013662000988
-0.3800754150148662,-0.13414426412289396,-0.012775644202180378,0.24273723984142714,0.2977150533544837,0.2620302387449631,0.0789117554950743,0.2296208902232414
-0.8879072720515362,-0.3481363045094153,-0.18844075198216054,0.4184023476214073,0.2977568275848749,0.2620675041544393,0.0789241512811208,0.22964050179177758
-0.9422037599108027,-0.574903989098117,-0.2619007061446977,0.39923888131813673,0.29779865315820647,0.26210484029301423,0.07893659682609558,0.22966020034715942
-0.4631171023290387,-0.5940674554013875,-0.17247119672943506,0.38965714816650143,0.2978405283844388,0.2621422456891279,0.07894909157385628,0.22967998548927726
0.035133021555996034,-0.39604497026759167,-0.06387822101090188,0.2746763503468781,0.297882452215573,0.2621797192053384,0.07896163513940234,0.2296998570389566
0.20441030723488604,-0.23315550668979185,-0.05429648785926659,0.11498079781962338,0.2979244238785249,0.26221726006008583,0.07897422725671635,0.22971981497844549
0.2587067950941526,-0.006387822101090189,-0.038326932606541124,-0.13414426412289396,0.2979664425133244,0.2622548676515658,0.07898686768115264,0.22973985931663124
0.475892746531219,0.12136861992071357,0.03193911050545094,-0.2938398166501486,0.2980085071029601,0.2622925413091543,0.07899955612612176,0.22975998997342004
0.38646323711595637,0.306615460852329,0.10859297571853319,-0.3800754150148662,0.29805061660681437,0.262330280143315,0.07901229224524682,0.22978020678944175
0.20121639618434092,0.35452412661050536,0.08623559836471753,-0.32897283820614465,0.2980927700718712,0.26236808308868037,0.07902507564999611,0.22980050964021484
0.1565016414767096,0.29064590559960357,0.07026604311199207,-0.27148243929633303,0.29813496659275185,0.26240594904921166,0.07903790594061191,0.22982089852376084
0.12456253097125865,0.24593115089197226,0.03193911050545094,-0.22676768458870167,0.29817720516963875,0.2624438769802096,0.07905078271246817,0.22984137355111722
0.03193911050545094,0.24593115089197226,-0.02235737735381566,-0.2555128840436075,0.2982194845824122,0.2624818658696217,0.07906370552992499,0.22986193488514858
0.047908665758176414,0.2203798624876115,0.06707213206144698,-0.2076042182854311,0.298261803306365,0.2625199146891011,0.07907667389691043,0.22988258269299883
0.028745199454905845,0.08942950941526263,0.060684309960356786,-0.08942950941526263,0.2983041594512397,0.2625580223483341,0.0790896872526757,0.2299033171098081
-0.02235737735381566,0.0,0.019163466303270562,-0.038326932606541124,0.2983465507296985,0.26259618761771975,0.07910274498490866,0.22992413816753887
-0.0031939110505450944,-0.05110257680872151,0.0031939110505450944,0.012775644202180378,0.29838897444579976,0.2626344090152985,0.07911584642566931,0.2299450456901053
-0.3641058597621407,-0.22676768458870167,-0.06387822101090188,0.24273723984142714,0.29843142751982304,0.26267268474276884,0.07912899082981047,0.22996603922911873
-0.9677550483151636,-0.4215962586719524,-0.25231897299306244,0.46950492443012876,0.29847390667721374,0.2627110127599057,0.07914217739202396,0.2299871181330954
-0.6292004769573835,-0.5046379459861249,-0.20441030723488604,0.48228056863230917,0.2985164088538765,0.26274939098493416,0.07915540534107027,0.23000828175812657
-0.1117868867690783,-0.5174135901883052,-0.09581733151635283,0.3832693260654113,0.29855893149980123,0.2627878175144816,0.07916867404141842,0.23002952968098034
0.2555128840436075,-0.3768815039643211,-0.035133021555996034,0.24273723984142714,0.2986014724567793,0.26282629075259795,0.07918198299415999,0.2300508617608955
0.3449423934588701,-0.2139920403865213,-0.0031939110505450944,0.04152084365708622,0.29864402964396575,0.26286480939414664,0.0791953317450086,0.23007227803061484
0.45353536917740334,0.047908665758176414,0.047908665758176414,-0.17885901883052527,0.29868660095252186,0.26290337227265514,0.079208719793792,0.23009377851048218
0.4471475470763132,0.29703372770069375,0.09901124256689792,-0.3161971940039643,0.29872918434502177,0.2629419781705097,0.07922214656497951,0.23011536309438135
0.27148243929633303,0.38646323711595637,0.11498079781962338,-0.35133021555996036,0.2987717779464434,0.2629806257519766,0.07923561143794666,0.2301370315964658
0.1628894635777998,0.4471475470763132,0.08623559836471753,-0.2938398166501486,0.29881438001022687,0.26301931367013337,0.07924911379495914,0.23015878387366503
0.13095035307234884,0.2938398166501486,-0.03193911050545094,-0.24593115089197226,0.2988569887774849,0.2630580407078555,0.079262653038135,0.2301806198847835
0.1053990646679881,0.18844075198216054,-0.019163466303270562,-0.19802248513379583,0.29889960233110263,0.2630968058001578,0.07927622856138461,0.2302025396591363
0.10859297571853319,0.2203798624876115,0.04471475470763132,-0.2203798624876115,0.2989422185114826,0.26313560793735036,0.07928983970707154,0.23022454323235977
0.1565016414767096,0.2139920403865213,0.07026604311199207,-0.1469199083250743,0.29898483488893035,0.26317444606143287,0.07930348574807278,0.23024663059591807
0.05429648785926659,0.08304168731417244,0.05749039890981169,-0.047908665758176414,0.2990274487658423,0.2632133190147901,0.07931716590223252,0.23026880164959776
0.01596955525272547,-0.012775644202180378,0.03193911050545094,-0.009581733151635281,0.29907005716470125,0.2632522254829481,0.07933087934936568,0.2302910561223879
-0.06707213206144698,-0.07345995416253714,0.035133021555996034,0.1628894635777998,0.299112656782671,0.2632911639006376,0.07934462522731534,0.2303133934915854
-0.6100370106541129,-0.27148243929633303,-0.12136861992071357,0.3353606603072349,0.2991552440123948,0.26333013240663417,0.07935840262499466,0.2303358129952071
-1.1338384229435083,-0.475892746531219,-0.2682885282457879,0.5014440349355798,0.2991978152127533,0.2633691289403933,0.07937221062152729,0.23035831378309204
-0.9038768273042617,-0.5429648785926661,-0.23315550668979185,0.45353536917740334,0.2992403672208471,0.2634081514624225,0.07938604838862733,0.2303808951334414
-0.17885901883052527,-0.5046379459861249,-0.10220515361744302,0.3193911050545094,0.2992828977040689,0.2634471981772338,0.07939991528173455,0.2304035565970033
0.21718595143706637,-0.33855457135777994,-0.04471475470763132,0.16927728567888997,0.29932540499193605,0.2634862676356842,0.07941381082565097,0.23042629797933908
0.40243279236868185,-0.16608337462834488,-0.038326932606541124,-0.06387822101090188,0.2993678876396449,0.2635253586720591,0.07942773461367895,0.23044911918818814
0.47908665758176416,0.1565016414767096,0.03193911050545094,-0.24273723984142714,0.2994103442233463,0.2635644702273515,0.07944168621610752,0.23047202006478995
0.48866839073339935,0.34174848240832506,0.1053990646679881,-0.35452412661050536,0.29945277342264415,0.26360360119392134,0.07945566514666147,0.2304950003327521
0.2203798624876115,0.3704936818632309,0.10220515361744302,-0.34174848240832506,0.2994951741165487,0.2636427504024759,0.07946967087980288,0.23051805969032932
0.1628894635777998,0.35133021555996036,0.07984777626362735,-0.28425808349851334,0.29953754532417054,0.26368191671943375,0.07948370288750514,0.23054119792403766
0.13733817517343905,0.24593115089197226,0.05110257680872151,-0.23634941774033696,0.2995798860334235,0.2637210991161611,0.07949776065382846,0.23056441493338833
0.1533077304261645,0.22676768458870167,-0.1053990646679881,-0.22676768458870167,0.2996221950572083,0.2637602966426429,0.0795118436617934,0.23058771068207085
0.20441030723488604,0.2235737735381566,0.04152084365708622,-0.2235737735381566,0.29966447098453475,0.26379950835281746,0.07952595138262859,0.2306110851415911
0.09581733151635283,0.1533077304261645,0.06707213206144698,-0.11498079781962338,0.2997067121873977,0.2638387332428535,0.07954008327198427,0.230634538249712
0.047908665758176414,0.019163466303270562,0.025551288404360755,-0.04471475470763132,0.29974891681121607,0.26387797019260056,0.07955423875726086,0.23065806985198664
0.04152084365708622,-0.07665386521308225,0.01596955525272547,0.0,0.2997910827179388,0.2639172178774599,0.07956841721650812,0.23068167960660912
-0.32897283820614465,-0.1628894635777998,-0.035133021555996034,0.22676768458870167,0.29983320745140796,0.26395647469714745,0.07958261795705746,0.23070536690904642
-0.8591620725966302,-0.35133021555996036,-0.18205292988107036,0.4184023476214073,0.29987528837243005,0.2639957388065589,0.07959684021919845,0.23072913093889452
-0.9549794041129831,-0.5876796333002972,-0.2555128840436075,0.4184023476214073,0.29991732303575785,0.2640350082748431,0.07961108324460572,0.23075297084486007
-0.4631171023290387,-0.6292004769573835,-0.1596955525272547,0.39604497026759167,0.2999593095945436,0.2640742813304581,0.07962534638716112,0.23077688593753462
0.035133021555996034,-0.4503414581268582,-0.05110257680872151,0.2619007061446977,0.3000012468475844,0.2641135565756794,0.07963962916486997,0.23080087576113223
0.27787026139742316,-0.28425808349851334,-0.006387822101090189,0.1117868867690783,0.30004313389011833,0.26415283302908327,0.07965393119797136,0.2308249400288709
0.5397709675421208,-0.060684309960356786,0.02235737735381566,-0.13414426412289396,0.30008496979927435,0.26419210996825127,0.07966825209867055,0.23084907847792005
0.5844857222497523,0.2203798624876115,0.07026604311199207,-0.28425808349851334,0.30012675366778485,0.2642313866932301,0.07968259140494333,0.23087329075108448
0.3609119487115956,0.39285105921704655,0.09581733151635283,-0.3609119487115956,0.3001684848037789,0.26427066239351055,0.07969694858424103,0.23089757640571
0.12456253097125865,0.35771803766105054,0.08942950941526263,-0.3193911050545094,0.3002101627686852,0.2643099362032598,0.07971132307355708,0.23092193502181668
0.08942950941526263,0.29703372770069375,0.07026604311199207,-0.2619007061446977,0.30025178719138373,0.26434920732293166,0.07972571431051373,0.2309463662847085
0.07665386521308225,0.22676768458870167,0.038326932606541124,-0.2139920403865213,0.3002933575332263,0.2643884750497093,0.0797401217337025,0.23097086997642752
0.04152084365708622,0.22996159563924676,-0.025551288404360755,-0.2555128840436075,0.3003348729491699,0.26442773871702746,0.07975454475802449,0.23099544591765395
-0.02235737735381566,0.27787026139742316,0.1053990646679881,-0.19802248513379583,0.3003763322336037,0.26446699763229736,0.07976898275136152,0.23102009392350734
-0.0031939110505450944,0.13733817517343905,0.09901124256689792,-0.07345995416253714,0.3004177337883985,0.2645062510511364,0.07978343504403433,0.23104481376932534
-0.025551288404360755,0.009581733151635281,0.04152084365708622,-0.04152084365708622,0.3004590755983188,0.26454549813381867,0.07979790095971258,0.23106960511812472
0.0,-0.05749039890981169,0.025551288404360755,0.01596955525272547,0.3005003552223212,0.2645847378394984,0.0798123798177422,0.23109446741716644
-0.3130032829534192,-0.23634941774033696,-0.01596955525272547,0.25231897299306244,0.3005415698248588,0.26462396884162337,0.07982687089809826,0.23111939984221233
-0.983724603567889,-0.45353536917740334,-0.23315550668979185,0.48228056863230917,0.3005827163604017,0.2646631895876367,0.07984137342728025,0.2311444013763397
-0.6164248327552032,-0.5333831454410307,-0.20121639618434092,0.4982501238850346,0.30062379197468936,0.26470239850431027,0.07985588664282306,0.23116947102759253
0.0,-0.5621283448959365,-0.10220515361744302,0.36729977081268583,0.3006647943077775,0.2647415942315221,0.0798704098919341,0.23119460804431957
0.3481363045094153,-0.38646323711595637,-0.01596955525272547,0.23315550668979185,0.3007057213582273,0.26478077576055165,0.07988494264766291,0.23121981196867447
0.3768815039643211,-0.19802248513379583,-0.0031939110505450944,0.038326932606541124,0.3007465711803607,0.26481994241085155,0.07989948442357793,0.23124508251362574
0.32897283820614465,0.09901124256689792,0.035133021555996034,-0.18205292988107036,0.30078734181817945,0.2648590936593463,0.07991403467995323,0.2312704193719
0.3800754150148662,0.22676768458870167,0.060684309960356786,-0.32897283820614465,0.3008280313838521,0.2648982289376206,0.07992859278919409,0.2312958221085776
0.2076042182854311,0.3832693260654113,0.09581733151635283,-0.3481363045094153,0.30086863807690206,0.2649373475499851,0.07994315805583868,0.2313212902168404
0.14053208622398414,0.5206075012388504,0.07665386521308225,-0.2874519945490585,0.30090916012376856,0.26497644876693044,0.07995772975537523,0.23134682324255904
0.11498079781962338,0.29703372770069375,-0.08623559836471753,-0.24593115089197226,0.30094959566434926,0.26501553198772876,0.07997230716163123,0.23137242083772397
0.08304168731417244,0.19163466303270565,-0.18844075198216054,-0.23634941774033696,0.3009899426400943,0.2650545967942202,0.07998688956538576,0.2313980827281336
0.12136861992071357,0.1469199083250743,-0.012775644202180378,-0.2682885282457879,0.3010301987314719,0.26509364284138826,0.08000147629823116,0.2314238086658616
0.02235737735381566,0.07665386521308225,0.07665386521308225,-0.17566510777998018,0.3010703613329002,0.2651326696978662,0.08001606673135518,0.23144959840471263
-0.23315550668979185,-0.1596955525272547,0.047908665758176414,-0.08304168731417244,0.30111042754725936,0.2651716767399684,0.0800306602354572,0.23147545166620262
-0.2076042182854311,-0.17885901883052527,0.019163466303270562,-0.035133021555996034,0.3011503942243517,0.2652106631206057,0.08004525614594654,0.2315013680573425
-0.19802248513379583,-0.09901124256689792,0.025551288404360755,0.16927728567888997,0.30119025804228045,0.2652496277893443,0.08005985374414135,0.23152734698051888
-0.7154360753221011,-0.23954332879088208,-0.13095035307234884,0.35771803766105054,0.30123001561406665,0.26528856951494234,0.08007445224927287,0.23155338763435726
-1.0635723798315164,-0.4279840807730426,-0.2587067950941526,0.5078318570366699,0.30126966372769665,0.26532748693007124,0.08008905086246969,0.23157948915469206
-0.7729264742319127,-0.49505621283448964,-0.21718595143706637,0.45353536917740334,0.3013091997439341,0.2653663786654315,0.0801036488732867,0.23160565082483997
-0.038326932606541124,-0.4311779918235877,-0.08304168731417244,0.32258501610505447,0.3013486218049015,0.26540524352550354,0.08011824574473907,0.23163187221238282
0.2938398166501486,-0.29064590559960357,-0.02235737735381566,0.17885901883052527,0.3013879285784578,0.2654440805728533,0.08013284108830969,0.23165815314476834
0.4311779918235877,-0.11498079781962338,-0.006387822101090189,-0.060684309960356786,0.3014271188573182,0.2654828890598278,0.08014743455510288,0.23168449355567153
0.5078318570366699,0.19802248513379583,0.047908665758176414,-0.22996159563924676,0.30146619145382314,0.26552166826598905,0.0801620257420342,0.231710893314712
0.5174135901883052,0.39604497026759167,0.08942950941526263,-0.3481363045094153,0.3015051453377257,0.2655604173866381,0.08017661416713376,0.23173735216857178
0.2682885282457879,0.4184023476214073,0.1117868867690783,-0.32258501610505447,0.3015439797356119,0.26559913557961473,0.08019119930111483,0.231763869824725
0.20441030723488604,0.3768815039643211,0.08942950941526263,-0.2682885282457879,0.30158269407283733,0.26563782210051917,0.08020578061324668,0.2317904460594215
0.18844075198216054,0.2619007061446977,0.047908665758176414,-0.22676768458870167,0.30162128781084974,0.2656764763715354,0.08022035759179484,0.23181708073873541
0.13733817517343905,0.23315550668979185,-0.05110257680872151,-0.2139920403865213,0.3016597603032028,0.26571509793524684,0.08023492972771432,0.2318437737698293
0.07665386521308225,0.2938398166501486,0.028745199454905845,-0.2076042182854311,0.3016981107137934,0.2657536863669137,0.08024949648317943,0.23187052504714373
0.10859297571853319,0.21718595143706637,0.05429648785926659,-0.1053990646679881,0.301736337957748,0.26579224122489553,0.08026405726957914,0.23189733441149923
0.047908665758176414,0.05110257680872151,0.02235737735381566,-0.038326932606541124,0.3017744406556496,0.26583076201823824,0.08027861143945512,0.23192420159228244
0.025551288404360755,-0.09901124256689792,-0.0031939110505450944,-0.006387822101090189,0.30181241710305245,0.2658692481241893,0.08029315827981377,0.2319511261172625
-0.39285105921704655,-0.17247119672943506,-0.05429648785926659,0.22676768458870167,0.3018502652741732,0.26590769869596553,0.08030769700000198,0.23197810724581203
-0.8591620725966302,-0.33216674925668976,-0.19163466303270565,0.4279840807730426,0.301887982981089,0.26594611266647766,0.08032222674509443,0.2320051440235966
-0.8751316278493557,-0.5653222559464817,-0.23315550668979185,0.4247901697224975,0.3019255682568609,0.2659844888813177,0.0803367466732559,0.23203223547248492
-0.3832693260654113,-0.5972613664519327,-0.1533077304261645,0.4056267034192269,0.3019630197209734,0.26602282631908053,0.08035125606146597,0.23205938078662736
0.07345995416253714,-0.4311779918235877,-0.06387822101090188,0.2746763503468781,0.3020003365749339,0.26606112428956596,0.08036575434624847,0.23208657940682556
0.2587067950941526,-0.2619007061446977,-0.019163466303270562,0.11498079781962338,0.3020375182571988,0.2660993824719525,0.08038024106528086,0.23211383095757585
0.43756581392467786,-0.05110257680872151,0.009581733151635281,-0.14053208622398414,0.3020745641601572,0.2661376007615999,0.08039471575890061,0.23214113510118084
0.475892746531219,0.21718595143706637,0.06707213206144698,-0.29064590559960357,0.30211147364395197,0.2661757790418664,0.08040917790376474,0.2321684914164495
0.3353606603072349,0.38965714816650143,0.12456253097125865,-0.3641058597621407,0.3021482461836946,0.26621391706147235,0.08042362691023927,0.2321958994055918
0.20441030723488604,0.3353606603072349,0.1053990646679881,-0.3161971940039643,0.302184881409969,0.2662520144965572,0.08043806216921279,0.23222335860068138
0.16608337462834488,0.2938398166501486,0.08304168731417244,-0.2619007061446977,0.3022213790026989,0.26629007107067376,0.08045248309753354,0.23225086864246053
0.13095035307234884,0.20121639618434092,0.05749039890981169,-0.21718595143706637,0.3022577385456964,0.2663280865802491,0.08046688914320578,0.23227842926836015
0.07665386521308225,0.24273723984142714,-0.06387822101090188,-0.24593115089197226,0.30229395942309023,0.26636606083322023,0.08048127976087431,0.23230604025349005
-0.025551288404360755,0.28425808349851334,0.04471475470763132,-0.17885901883052527,0.30233004074894304,0.26640399359391337,0.08049565438709064,0.23233370136307696
-0.19163466303270565,0.13414426412289396,0.05429648785926659,-0.07026604311199207,0.30236598131934295,0.2664418845695592,0.08051001242585909,0.23236141231030671
-0.12456253097125865,-0.01596955525272547,0.019163466303270562,-0.028745199454905845,0.30240177962148007,0.2664797333729665,0.08052435323843463,0.23238917267906542
-0.047908665758176414,-0.09901124256689792,0.025551288404360755,0.03193911050545094,0.30243743387686917,0.26651753941947215,0.08053867612989851,0.23241698182419568
-0.4503414581268582,-0.23634941774033696,-0.01596955525272547,0.2619007061446977,0.302472942075574,0.26655530185306014,0.08055298033318345,0.23244483882617467
-0.9741428704162537,-0.440759724975223,-0.22676768458870167,0.475892746531219,0.302508302132103,0.26659301961165377,0.08056726501805508,0.23247274258048956
-0.6451700322101089,-0.48228056863230917,-0.2107981293359762,0.49505621283448964,0.3025435122547812,0.26663069161387787,0.08058152936568308,0.23250069201580176
-0.04152084365708622,-0.5142196791377601,-0.09262342046580772,0.373687592913776,0.3025785712075478,0.26666831695821136,0.08059577267007716,0.23252868630238344
0.27148243929633303,-0.3768815039643211,-0.019163466303270562,0.24593115089197226,0.3026134781406554,0.266705895035558,0.08060999435484978,0.23255672490499962
0.2682885282457879,-0.24593115089197226,-0.028745199454905845,0.028745199454905845,0.30264823224664544,0.2667434255131205,0.08062419388940152,0.23258480746548157
0.45672928022794845,0.05749039890981169,0.06387822101090188,-0.19482857408325072,0.3026828326450209,0.2667809081978471,0.08063837070554004,0.23261293361282231
0.648363943260654,0.32258501610505447,0.11498079781962338,-0.3257789271555996,0.3027172785036343,0.26681834286104306,0.0806525241824233,0.23264110285320191
0.3257789271555996,0.3609119487115956,0.12456253097125865,-0.35452412661050536,0.30275156921116847,0.2668557291719935,0.0806666536851392,0.23266931462536594
0.19802248513379583,0.41201452552031714,0.09901124256689792,-0.29703372770069375,0.3027857044202636,0.2668930667875865,0.08068075861037359,0.23269756842639233
0.1628894635777998,0.24273723984142714,-0.060684309960356786,-0.25231897299306244,0.3028196838958124,0.2669303554623871,0.08069483840109035,0.23272586386751606
0.13414426412289396,0.18844075198216054,-0.1533077304261645,-0.2650946171952428,0.3028535073166476,0.2669675950464361,0.0807088925338119,0.23275420064663954
0.19482857408325072,0.24273723984142714,-0.047908665758176414,-0.29703372770069375,0.30288717417088407,0.2670047853932763,0.08072292051258294,0.23278257850955364
0.1469199083250743,0.2587067950941526,0.060684309960356786,-0.18524684093161545,0.3029206837353804,0.26704192629045953,0.08073692186549764,0.23281099723523566
0.05429648785926659,0.08623559836471753,0.05110257680872151,-0.07984777626362735,0.30295403507253627,0.26707901744426943,0.08075089611937172,0.23283945660101615
-0.09262342046580772,-0.012775644202180378,0.035133021555996034,-0.019163466303270562,0.30298722699477065,0.2671160584323032,0.08076484277019891,0.2328679562847466
-0.18205292988107036,-0.07665386521308225,0.04471475470763132,0.17885901883052527,0.30302025802591,0.2671530485948196,0.08077876126767014,0.2328964957571562
-0.5780979001486619,-0.3002276387512388,-0.10220515361744302,0.35133021555996036,0.30305312646075455,0.26718998697726065,0.08079265101352902,0.23292507427689446
-1.0316332693260652,-0.48228056863230917,-0.23954332879088208,0.511025768087215,0.3030858306236647,0.26722687243112353,0.08080651139637277,0.232953691035034
-0.7345995416253717,-0.6292004769573835,-0.20121639618434092,0.4439536360257681,0.3031183692827758,0.2672637038489896,0.08082034187680376,0.23298234536727647
-0.09581733151635283,-0.574903989098117,-0.08304168731417244,0.3130032829534192,0.3031507418910872,0.26730048041361926,0.08083414206285362,0.23301103688769975
0.08942950941526263,-0.3193911050545094,0.0,0.17885901883052527,0.30318294836930954,0.26733720172476705,0.08084791169035246,0.23303976546013871
0.2810641724479683,-0.13095035307234884,0.009581733151635281,-0.05749039890981169,0.30321498867309726,0.26737386771836524,0.08086165051966826,0.2330685310441001
0.4599231912784935,0.1596955525272547,0.05429648785926659,-0.22676768458870167,0.30324686260461964,0.2674104784360842,0.08087535824585049,0.23309733352774464
0.511025768087215,0.3353606603072349,0.08942950941526263,-0.3449423934588701,0.30327856993610597,0.26744703383843793,0.08088903448245299,0.23312617267098315
0.23634941774033696,0.3641058597621407,0.1117868867690783,-0.3193911050545094,0.3033101105807557,0.2674835337959069,0.08090267880024947,0.23315504818899313
0.17885901883052527,0.306615460852329,0.08942950941526263,-0.2650946171952428,0.30334148459606647,0.2675199781906878,0.08091629077303891,0.2331839598599933
0.1501138193756194,0.2491250619425173,0.05429648785926659,-0.2235737735381566,0.303372692034344,0.2675563669760531,0.08092986999647608,0.2332129075463962
0.1117868867690783,0.18524684093161545,-0.060684309960356786,-0.23315550668979185,0.3034037327934876,0.26759270014154474,0.08094341607388356,0.2332418911483355
0.11498079781962338,0.23315550668979185,0.02235737735381566,-0.2235737735381566,0.3034346065396554,0.26762897763953986,0.08095692858809962,0.23327091055825375
0.05749039890981169,0.1565016414767096,0.05110257680872151,-0.10859297571853319,0.3034653126679419,0.26766519933215005,0.08097040707779923,0.233299965630425
-0.03193911050545094,0.019163466303270562,0.025551288404360755,-0.047908665758176414,0.30349585026650894,0.2677013649473285,0.08098385102377259,0.23332905612536706
0.006387822101090189,-0.09581733151635283,-0.01596955525272547,-0.0031939110505450944,0.3035262180736289,0.2677374740033101,0.0809972598416068,0.23335818161413108
-0.3002276387512388,-0.16927728567888997,-0.08304168731417244,0.23315550668979185,0.30355641446540665,0.2677735257441843,0.08101063287819883,0.23338734140577544
-0.8591620725966302,-0.3641058597621407,-0.2139920403865213,0.4311779918235877,0.30358643759927384,0.2678095191756075,0.08102396943888386,0.2334165345991779
-0.8591620725966302,-0.5812918111992071,-0.2491250619425173,0.43437190287413274,0.30361628579185496,0.2678454532240147,0.08103726887491751,0.23344576027350958
-0.3704936818632309,-0.5940674554013875,-0.13414426412289396,0.4184023476214073,0.3036459579045461,0.2678813269719358,0.08105053068619092,0.23347501768764417
0.06387822101090188,-0.4247901697224975,-0.012775644202180378,0.27148243929633303,0.30367545336078283,0.267917139852431,0.08106375454017233,0.23350430635749483
0.2587067950941526,-0.24593115089197226,0.012775644202180378,0.10220515361744302,0.3037047718080894,0.26795289167090514,0.08107694018189925,0.23353362598980376
0.4152084365708622,-0.02235737735381566,0.038326932606541124,-0.14053208622398414,0.3037339128383695,0.2679885824361258,0.08109008732382596,0.23356297632626322
0.4854744796828543,0.22996159563924676,0.08304168731417244,-0.2874519945490585,0.30376287600343777,0.2680242121226845,0.08110319560257899,0.23359235701547373
0.32258501610505447,0.3800754150148662,0.12456253097125865,-0.3609119487115956,0.30379166096360993,0.26805978055119656,0.08111626460462262,0.23362176762092204
0.20121639618434092,0.3609119487115956,0.09901124256689792,-0.3130032829534192,0.30382026753141156,0.2680952874636401,0.08112929391650804,0.23365120772974535
0.1565016414767096,0.27787026139742316,0.07984777626362735,-0.2555128840436075,0.3038486955658217,0.2681307326548749,0.0811422831570244,0.2336806770313323
0.13095035307234884,0.2235737735381566,0.05749039890981169,-0.21718595143706637,0.30387694482534056,0.268166116001417,0.0811552319727188,0.23371017530452617
0.13095035307234884,0.22676768458870167,-0.09262342046580772,-0.2491250619425173,0.30390501487129284,0.2682014373983951,0.08116814001527982,0.2337397023596638
0.09262342046580772,0.2746763503468781,0.06707213206144698,-0.17885901883052527,0.3039329050236482,0.2682366966996913,0.08118100692978046,0.23376925799451487
-0.06387822101090188,0.13733817517343905,0.07345995416253714,-0.06387822101090188,0.3039606143333311,0.2682718936967085,0.08119383235545695,0.23379884195433467
-0.1117868867690783,-0.009581733151635281,0.025551288404360755,-0.035133021555996034,0.3039881415556355,0.2683070280777434,0.08120661592030423,0.2338284538533852
-0.05749039890981169,-0.06387822101090188,0.04471475470763132,0.038326932606541124,0.3040154851370737,0.2683420993247774,0.08121935722187545,0.2338580930755343
-0.3768815039643211,-0.2107981293359762,-0.012775644202180378,0.27148243929633303,0.30404264324352165,0.2683771066295645,0.08123205580438704,0.23388775873390008
-0.983724603567889,-0.4152084365708622,-0.21718595143706637,0.48866839073339935,0.3040696139314337,0.2684120489438131,0.08124471116027289,0.23391744976603696
-0.6866908758671952,-0.48228056863230917,-0.18524684093161545,0.4982501238850346,0.304096395524574,0.2684469251625051,0.08125732279127587,0.23394716515534628
-0.11817470887016848,-0.475892746531219,-0.08942950941526263,0.3768815039643211,0.3041229869102112,0.26848173433077616,0.08126989029477269,0.2339769041386928
0.10220515361744302,-0.3800754150148662,-0.0031939110505450944,0.22996159563924676,0.3041493874021124,0.26851647576193166,0.08128241337431351,0.2340066662532328
0.2139920403865213,-0.3098093719028741,-0.0031939110505450944,0.01596955525272547,0.3041755963526788,0.26855114903130956,0.08129489175647751,0.234036451208403
0.4471475470763132,-0.006387822101090189,0.025551288404360755,-0.20441030723488604,0.304201612960551,0.2685857538640586,0.08130732510259947,0.23406625868745548
0.5206075012388504,0.2587067950941526,0.060684309960356786,-0.33855457135777994,0.30422743637420707,0.2686202899614656,0.0813197129793379,0.23409608824109857
0.3161971940039643,0.39923888131813673,0.11498079781962338,-0.3481363045094153,0.30425306587843165,0.2686547569001616,0.08133205488373643,0.2341259393547644
0.22996159563924676,0.3832693260654113,0.09262342046580772,-0.29064590559960357,0.30427850094843706,0.2686891542091835,0.08134435029226435,0.2341558115777396
0.18205292988107036,0.2746763503468781,0.012775644202180378,-0.24593115089197226,0.30430374114138486,0.26872348150379954,0.0813565986920899,0.23418570457118965
0.13733817517343905,0.23954332879088208,-0.18524684093161545,-0.2650946171952428,0.3043287859504737,0.26875773850821777,0.08136879957820853,0.23421561807423052
0.17885901883052527,0.23315550668979185,-0.05749039890981169,-0.306615460852329,0.30435363471201937,0.2687919249841021,0.081380952458023,0.23424555186684007
0.17247119672943506,0.24273723984142714,0.02235737735381566,-0.18524684093161545,0.30437828657084787,0.2688260406645683,0.08139305686541352,0.23427550576175657
0.04471475470763132,0.14053208622398414,0.03193911050545094,-0.06387822101090188,0.30440274047096433,0.2688600852207339,0.08140511233260926,0.23430547957243644
-0.05110257680872151,-0.028745199454905845,0.025551288404360755,-0.025551288404360755,0.3044269951183212,0.2688940582121582,0.08141711834030096,0.23433547300994376
-0.19802248513379583,-0.1596955525272547,0.02235737735381566,0.1596955525272547,0.3044510489291054,0.268927959002001,0.08142907429541944,0.23436548556949827
-0.7697325631813676,-0.32897283820614465,-0.12456253097125865,0.35771803766105054,0.30447490010048645,0.2689617867238876,0.08144097953767529,0.23439551652412458
-1.1082871345391476,-0.48866839073339935,-0.23315550668979185,0.5078318570366699,0.30449854694345935,0.2689955403894388,0.08145283338735075,0.2344255650705629
-0.7761203852824579,-0.5844857222497523,-0.19482857408325072,0.43756581392467786,0.30452198836886174,0.269029219099291,0.08146463524138012,0.23445563054471275
-0.028745199454905845,-0.511025768087215,-0.06387822101090188,0.3161971940039643,0.3045452241086611,0.2690628222423372,0.08147638464687247,0.23448571255702305
0.2938398166501486,-0.2874519945490585,-0.012775644202180378,0.17566510777998018,0.30456825443301877,0.2690963495747348,0.08148808127282155,0.23451581096394708
0.48228056863230917,-0.11817470887016848,-0.006387822101090189,-0.05749039890981169,0.30459107973333943,0.2691298011210732,0.08149972480758487,0.23454592571516455
0.5365770564915758,0.1628894635777998,0.04152084365708622,-0.22996159563924676,0.304613700431162,0.26916317696016345,0.08151131487561901,0.2345760566878506
0.4215962586719524,0.3193911050545094,0.07984777626362735,-0.3449423934588701,0.30463611712705996,0.26919647706491656,0.08152285101976348,0.23460620363103793
0.20441030723488604,0.3832693260654113,0.12456253097125865,-0.3130032829534192,0.30465833066223447,0.2692297013096233,0.08153433273473948,0.23463636624976159
0.1565016414767096,0.3257789271555996,0.09901124256689792,-0.2619007061446977,0.30468034199855465,0.26926284958235297,0.08154575951800751,0.23466654431036532
0.14053208622398414,0.25231897299306244,0.019163466303270562,-0.21718595143706637,0.30470215203141404,0.26929592185725687,0.08155713089634486,0.23469673765799245
0.1501138193756194,0.1628894635777998,-0.060684309960356786,-0.2619007061446977,0.30472376146273006,0.2693289181626187,0.08156844640477467,0.2347269461714489
0.19163466303270565,0.22676768458870167,0.060684309960356786,-0.22996159563924676,0.30474517076305546,0.26936183849294815,0.08157970555071703,0.23475716972805422
0.12136861992071357,0.1565016414767096,0.09262342046580772,-0.10220515361744302,0.3047663801793901,0.2693946827416427,0.0815909078083515,0.23478740818264243
-0.006387822101090189,0.035133021555996034,0.060684309960356786,-0.038326932606541124,0.3047873897268494,0.26942745065913715,0.08160205263683651,0.23481766130679338
-0.18844075198216054,-0.025551288404360755,0.009581733151635281,0.0031939110505450944,0.30480819914192747,0.26946014178274796,0.08161313948589144,0.23484792868000098
-0.6419761211595639,-0.10859297571853319,-0.05429648785926659,0.22676768458870167,0.30482880791154393,0.2694927553531856,0.08162416777444356,0.2348782096113372
-1.0028880698711595,-0.3609119487115956,-0.20441030723488604,0.440759724975223,0.304849215541723,0.26952529031670835,0.08163513688413013,0.2349085031935732
-0.7920899405351833,-0.6228126548562933,-0.22996159563924676,0.43437190287413274,0.3048694219987101,0.2695577454855803,0.08164604622357588,0.23493880849870238
-0.2938398166501486,-0.6100370106541129,-0.12456253097125865,0.41201452552031714,0.30488942797405244,0.2695901198178231,0.08165689532710696,0.23496912478077445
0.12456253097125865,-0.4599231912784935,-0.04471475470763132,0.27148243929633303,0.3049092347249852,0.26962241265289555,0.08166768388148546,0.23499945155135446
0.2587067950941526,-0.3098093719028741,-0.01596955525272547,0.1117868867690783,0.30492884367726825,0.2696546237512418,0.08167841165313558,0.23502978851084846
0.35771803766105054,0.0,0.02235737735381566,-0.13733817517343905,0.3049482561727098,0.2696867531328735,0.08168907839185842,0.23506013539544662
0.49505621283448964,0.2555128840436075,0.07345995416253714,-0.2874519945490585,0.3049674734861882,0.2697188008318359,0.08169968378086069,0.23509049185185735
0.3832693260654113,0.4056267034192269,0.11817470887016848,-0.35771803766105054,0.30498649696182334,0.2697507667571184,0.08171022744685309,0.23512085744307862
0.24593115089197226,0.39285105921704655,0.10220515361744302,-0.3098093719028741,0.30500532808613207,0.26978265076536995,0.08172070900609556,0.23515123175375693
0.19163466303270565,0.29064590559960357,0.07665386521308225,-0.25231897299306244,0.30502396842512397,0.2698144528027936,0.08173112810228857,0.23518161446698196
0.1533077304261645,0.2139920403865213,0.05749039890981169,-0.2107981293359762,0.305042419488661,0.2698461729320876,0.08174148440743208,0.23521200535033004
0.1469199083250743,0.2746763503468781,-0.047908665758176414,-0.24593115089197226,0.3050606826204846,0.2698778112571023,0.08175177759643794,0.2352424041967634
0.09262342046580772,0.22996159563924676,0.03193911050545094,-0.18844075198216054,0.3050787589366497,0.26990936785612435,0.08176200731937859,0.23527281078130005
-0.1565016414767096,0.13095035307234884,0.05429648785926659,-0.07984777626362735,0.30509664929060387,0.26994084275111996,0.08177217318252278,0.2353032248273408
-0.2076042182854311,0.019163466303270562,0.04471475470763132,-0.025551288404360755,0.3051143542694181,0.269972235849715,0.08178227474202934,0.23533364593652242
-0.0031939110505450944,-0.047908665758176414,0.028745199454905845,0.05749039890981169,0.30513187421356686,0.2700035468378371,0.08179231150546527,0.23536407349103164
-0.33216674925668976,-0.16608337462834488,-0.03193911050545094,0.2874519945490585,0.3051492092228421,0.2700347750985134,0.0818022829283687,0.23539450661277514
-1.0124698030227948,-0.39285105921704655,-0.23315550668979185,0.4982501238850346,0.305166359260638,0.2700659197483652,0.08181218842506961,0.2354249442639603
-0.814447317888999,-0.4854744796828543,-0.2139920403865213,0.4982501238850346,0.30518332451668656,0.27009697980746616,0.08182202744012994,0.23545538547165087
-0.14372599727452925,-0.5174135901883052,-0.08304168731417244,0.373687592913776,0.305200105763856,0.2701279544198328,0.08183179954422871,0.23548582952890884
0.3449423934588701,-0.4311779918235877,-0.012775644202180378,0.23315550668979185,0.30521670428877967,0.2701588430082835,0.08184150444175921,0.23551627603247471
0.47269883548067393,-0.2619007061446977,-0.006387822101090189,0.006387822101090189,0.3052331215739074,0.27018964529652095,0.08185114187707172,0.23554672474976798
0.5238014122893954,0.05110257680872151,0.047908665758176414,-0.20121639618434092,0.3052493591868253,0.2702203611897945,0.08186071154223819,0.23557717541767528
0.5046379459861249,0.27787026139742316,0.09581733151635283,-0.3257789271555996,0.30526541888366604,0.2702509905840415,0.08187021305513859,0.23560762763256446
0.2746763503468781,0.36729977081268583,0.12456253097125865,-0.3481363045094153,0.30528130267470643,0.2702815332663905,0.08187964599685249,0.23563808091460242
0.19163466303270565,0.4854744796828543,0.09901124256689792,-0.2938398166501486,0.30529701274413895,0.2703119889965826,0.08188900996418448,0.23566853483799696
0.1533077304261645,0.24273723984142714,-0.04471475470763132,-0.2555128840436075,0.3053125512754667,0.27034235764878667,0.08189830459356065,0.23569898908536144
0.11817470887016848,0.2107981293359762,-0.1628894635777998,-0.23954332879088208,0.30532792029424427,0.2703726392378416,0.08190752955182183,0.23572944341878974
0.11817470887016848,0.23954332879088208,-0.006387822101090189,-0.27787026139742316,0.3053431215803605,0.27040283382100544,0.08191668452778016,0.23575989763503719
0.12456253097125865,0.21718595143706637,0.04471475470763132,-0.17566510777998018,0.3053581566293021,0.27043294140531027,0.08192576922020753,0.23579035154055866
0.13095035307234884,0.07665386521308225,0.02235737735381566,-0.07665386521308225,0.30537302664247457,0.2704629619070392,0.08193478330009836,0.23582080491460897
0.10859297571853319,-0.047908665758176414,0.006387822101090189,-0.028745199454905845,0.3053877325325307,0.2704928950912012,0.08194372637416796,0.23585125742079846
-0.08623559836471753,-0.09262342046580772,0.02235737735381566,0.17885901883052527,0.30540227492340544,0.2705227404799194,0.081952597968086,0.23588170851177326
-0.7601508300297324,-0.303421549801784,-0.13414426412289396,0.3704936818632309,0.3054166542016113,0.2705524973209743,0.081961397530669,0.2359121574332947
-1.1977166439544102,-0.5078318570366699,-0.2619007061446977,0.5078318570366699,0.3054308708018661,0.27058216469483,0.08197012449170737,0.23594260337392858
-0.9070707383548067,-0.6100370106541129,-0.21718595143706637,0.4439536360257681,0.30544492572720916,0.270611741743062,0.08197877837686628,0.2359730456774145
-0.14053208622398414,-0.5046379459861249,-0.08304168731417244,0.3098093719028741,0.3054588208652429,0.27064122790108164,0.08198735889478244,0.23600348397070933
0.2682885282457879,-0.29064590559960357,-0.025551288404360755,0.16608337462834488,0.30547255875539364,0.27067062299063993,0.08199586591101396,0.2360339181282143
0.4215962586719524,-0.1117868867690783,-0.028745199454905845,-0.07345995416253714,0.30548614212782466,0.2706999271117431,0.08200429934092933,0.2360643481140468
0.5078318570366699,0.13733817517343905,0.07026604311199207,-0.24593115089197226,0.3054995737173668,0.2707291404165629,0.08201265906470045,0.2360947738200801
0.4311779918235877,0.34174848240832506,0.09581733151635283,-0.3609119487115956,0.30551285635325853,0.27075826294163974,0.08202094491311449,0.23612519502265453
0.21718595143706637,0.35771803766105054,0.12136861992071357,-0.3161971940039643,0.3055259930285875,0.27078729461532935,0.08202915670052707,0.2361556114748578
0.16608337462834488,0.29703372770069375,0.09581733151635283,-0.2650946171952428,0.3055389868133637,0.2708162353709832,0.08203729426376163,0.23618602300903124
0.14053208622398414,0.23634941774033696,0.019163466303270562,-0.2203798624876115,0.3055518406853719,0.27084508520829603,0.08204535747321753,0.23621642954656655
0.05429648785926659,0.20441030723488604,-0.07345995416253714,-0.24273723984142714,0.3055645573934125,0.27087384415644444,0.08205334620552966,0.23624683104550703
0.019163466303270562,0.2810641724479683,0.19482857408325072,-0.23954332879088208,0.30557713936877656,0.270902512211593,0.08206126032438701,0.23627722745825472
0.05429648785926659,0.18205292988107036,0.2107981293359762,-0.11498079781962338,0.30558958865517516,0.2709310893096744,0.08206909972862667,0.23630761870909908
0.05429648785926659,0.0,0.12136861992071357,-0.04152084365708622,0.30560190687226074,0.27095957529776993,0.08207686443317486,0.23633800464187452
0.019163466303270562,-0.08623559836471753,0.05429648785926659,0.0,0.3056140952174447,0.27098796984270934,0.08208455458755651,0.23636838491756607
-0.4631171023290387,-0.19802248513379583,-0.05110257680872151,0.22676768458870167,0.30562615451217584,0.2710162723418012,0.08209217041354683,0.23639875893212214
-0.9581733151635283,-0.36729977081268583,-0.2139920403865213,0.43437190287413274,0.30563808541044335,0.27104448195694075,0.0820997121466059,0.23642912586400885
-0.7952838515857285,-0.5685161669970267,-0.22676768458870167,0.440759724975223,0.305649888820836,0.2710725977839684,0.0821071800634322,0.23645948486697582
-0.2587067950941526,-0.574903989098117,-0.1469199083250743,0.40243279236868185,0.30566156624269836,0.27110061908192057,0.08211457456522271,0.23648983527326445
0.1565016414767096,-0.43437190287413274,-0.06707213206144698,0.2587067950941526,0.3056731196789204,0.2711285454522398,0.08212189620710235,0.23652017666789307
0.3481363045094153,-0.27148243929633303,-0.012775644202180378,0.09901124256689792,0.30568455128038324,0.27115637686104144,0.08212914563386346,0.2365505088138907
0.45353536917740334,-0.01596955525272547,0.01596955525272547,-0.13733817517343905,0.3056958631452169,0.27118411348600646,0.08213632348187022,0.2365808314938665
0.4439536360257681,0.2203798624876115,0.06707213206144698,-0.2810641724479683,0.3057070573789942,0.2712117554858182,0.08214343031527056,0.23661114438655717
0.303421549801784,0.38646323711595637,0.07984777626362735,-0.35452412661050536,0.30571813620238864,0.27123930287086656,0.08215046662126857,0.23664144707777807
0.20441030723488604,0.3641058597621407,0.05429648785926659,-0.306615460852329,0.3057291019388778,0.2712667555717147,0.08215743283942728,0.23667173916841014
0.1596955525272547,0.27787026139742316,0.04152084365708622,-0.2491250619425173,0.30573995689524686,0.2712941135740404,0.08216432937877467,0.2367020203519291
0.12775644202180375,0.23315550668979185,0.025551288404360755,-0.2076042182854311,0.3057507032286108,0.2713213769510848,0.08217115660686308,0.23673229040117277
0.23954332879088208,0.2650946171952428,-0.10220515361744302,-0.2587067950941526,0.30576134286931306,0.27134854580545775,0.08217791483561783,0.2367625491111868
0.303421549801784,0.2619007061446977,-0.028745199454905845,-0.18844075198216054,0.3057718775284244,0.2713756202192918,0.0821846043280983,0.23679279626089614
0.060684309960356786,0.08942950941526263,-0.009581733151635281,-0.07026604311199207,0.3057823087505088,0.271402600229589,0.08219122530608103,0.2368230315828086
-0.40243279236868185,0.038326932606541124,0.0,-0.025551288404360755,0.3057926379325339,0.2714294857635515,0.0821977779279014,0.23685325468878296
-0.40243279236868185,-0.10859297571853319,0.02235737735381566,0.04152084365708622,0.30580286635298376,0.2714562765293108,0.08220426225586457,0.23688346496554794
-0.4854744796828543,-0.23315550668979185,-0.047908665758176414,0.2682885282457879,0.30581299529215966,0.2714829719621583,0.08221067824888607,0.23691366152811372
-0.9741428704162537,-0.4599231912784935,-0.23954332879088208,0.4854744796828543,0.3058230262199515,0.27150957130345066,0.08221702580000967,0.23694384331345555
-0.6834969648166501,-0.5014440349355798,-0.20121639618434092,0.5046379459861249,0.30583296103452545,0.27153607378996086,0.0822233048304099,0.23697400930260668
