raw_ch1,raw_ch2,raw_ch3,raw_ch4,processed_ch1,processed_ch2,processed_ch3,processed_ch4
-0.1469199083250743,-0.09262342046580772,0.019163466303270562,0.01596955525272547,0.22515745580737365,0.3492779102474191,0.012626662241362144,0.010318193602946647
0.07984777626362735,0.11817470887016848,0.0031939110505450944,0.02235737735381566,0.2261602797595028,0.35079007652444183,0.012683365036991672,0.010371245719833392
0.16927728567888997,0.047908665758176414,-0.012775644202180378,-0.02235737735381566,0.22716222717898935,0.35230263379945453,0.012740121211989775,0.010424390050665715
0.05110257680872151,0.12136861992071357,-0.035133021555996034,-0.07984777626362735,0.22816326730956704,0.3538155323153942,0.012796929548228956,0.010477625672622611
-0.025551288404360755,0.22676768458870167,-0.02235737735381566,-0.0031939110505450944,0.22916336932884052,0.35532872207667754,0.012853788809178349,0.0105309517480081
-0.09262342046580772,0.09262342046580772,-0.01596955525272547,0.009581733151635281,0.23016250223812199,0.35684215306866013,0.012910697792236062,0.010584367541972787
-0.45672928022794845,-0.2682885282457879,0.0,-0.006387822101090189,0.2311606348926838,0.35835577548355424,0.012967655318154931,0.010637872343054838
-0.060684309960356786,-0.2650946171952428,-0.04471475470763132,-0.02235737735381566,0.23215773632079925,0.35986953989552894,0.013024660185419958,0.010691465385012158
0.23315550668979185,-0.1533077304261645,-0.012775644202180378,-0.02235737735381566,0.23315377598038284,0.3613833974815115,0.013081711177360998,0.01074514584528512
0.23315550668979185,0.05429648785926659,0.006387822101090189,-0.012775644202180378,0.2341487237141187,0.36289730001691156,0.013138807095984941,0.010798912875785114
-0.16608337462834488,0.06707213206144698,0.0031939110505450944,0.006387822101090189,0.23514254968273005,0.3644111994713598,0.01319594673152735,0.010852765609264892
0.009581733151635281,-0.1501138193756194,0.0,0.009581733151635281,0.23613522432992953,0.36592504760246286,0.013253128790576267,0.010906703135687376
0.07026604311199207,-0.33216674925668976,-0.01596955525272547,-0.006387822101090189,0.2371267181803418,0.3674387960005262,0.01331035185891916,0.010960724477789415
0.12456253097125865,-0.2587067950941526,-0.035133021555996034,-0.03193911050545094,0.23811700161172197,0.36895239658975254,0.013367614427062637,0.011014828590973592
0.11498079781962338,-0.04471475470763132,-0.035133021555996034,-0.025551288404360755,0.23910604482992737,0.37046580204269214,0.013424914974046805,0.011069014395504166
0.1628894635777998,0.2076042182854311,-0.02235737735381566,-0.035133021555996034,0.2400938179813073,0.3719789656278656,0.01348225205325127,0.011123280824928465
0.060684309960356786,0.3161971940039643,0.0,-0.03193911050545094,0.24108029123509217,0.37349184091981663,0.013539624301327588,0.011177626861748158
-0.09901124256689792,0.36729977081268583,0.0031939110505450944,-0.01596955525272547,0.24206543476938833,0.37500438203674225,0.013597030361446728,0.011232051547387021
-0.373687592913776,0.1565016414767096,0.0,0.009581733151635281,0.2430492187735351,0.3765165441199281,0.013654468791026013,0.011286553959696079
-0.10220515361744302,-0.18844075198216054,0.01596955525272547,0.012775644202180378,0.2440316136268878,0.3780282833624054,0.01371193802128226,0.011341133166899992
-0.012775644202180378,-0.3609119487115956,-0.009581733151635281,0.009581733151635281,0.24501259003117815,0.37953955670416656,0.013769436374480923,0.011395788191863543
0.01596955525272547,-0.09901124256689792,-0.01596955525272547,-0.012775644202180378,0.24599211879505922,0.3810503217465625,0.013826962101044482,0.011450518000867112
0.10859297571853319,0.13414426412289396,-0.019163466303270562,-0.019163466303270562,0.24697017052226114,0.38256053671803464,0.013884513407682068,0.011505321506925572
0.14053208622398414,0.12456253097125865,-0.006387822101090189,-0.03193911050545094,0.24794671556591444,0.3840701601460583,0.013942088473328474,0.011560197588609116
-0.11817470887016848,-0.17885901883052527,-0.019163466303270562,-0.006387822101090189,0.24892172418348182,0.3855791505658452,0.013999685449735072,0.011615145118131194
-0.09901124256689792,-0.3481363045094153,-0.04152084365708622,-0.01596955525272547,0.2498951666569735,0.3870874666166788,0.014057302470441223,0.011670162966255795
-0.11498079781962338,-0.12456253097125865,-0.038326932606541124,-0.03193911050545094,0.25086701330245603,0.38859506739098576,0.014114937711591474,0.011725249986793094
-0.07984777626362735,0.1053990646679881,-0.060684309960356786,-0.03193911050545094,0.2518372344367219,0.3901019125691135,0.014172589486975832,0.011780405028859155
0.0,0.1596955525272547,-0.04471475470763132,-0.035133021555996034,0.25280580032438166,0.39160796213042776,0.014230256328088598,0.011835626978838144
0.3161971940039643,0.12136861992071357,-0.006387822101090189,-0.01596955525272547,0.2537726811395421,0.3931131760562435,0.014287937002481689,0.011890914784912313
0.08623559836471753,-0.035133021555996034,-0.009581733151635281,0.0,0.25473784707961117,0.3946175142376234,0.014345630426134612,0.011946267434539679
0.12456253097125865,-0.13733817517343905,-0.01596955525272547,0.006387822101090189,0.2557012685352773,0.39612093635757406,0.01440333552859791,0.01200168389402064
0.1628894635777998,-0.12136861992071357,-0.02235737735381566,-0.01596955525272547,0.25666291609013475,0.39762340179807204,0.014461051190767606,0.012057163058620464
-0.12456253097125865,-0.13733817517343905,-0.01596955525272547,-0.025551288404360755,0.25762276045585586,0.3991248697301049,0.014518776262501084,0.012112703754943438
-0.33216674925668976,0.02235737735381566,-0.01596955525272547,-0.012775644202180378,0.25858077252605394,0.40062529919944345,0.01457650958498238,0.012168304776767133
-0.17885901883052527,0.02235737735381566,-0.009581733151635281,-0.012775644202180378,0.25953692353803276,0.4021246489867724,0.014634249984215223,0.01222396490474968
-0.16608337462834488,0.006387822101090189,0.0,-0.0031939110505450944,0.26049118519803915,0.40362287732158897,0.014691996242823269,0.012279682892329764
0.009581733151635281,0.038326932606541124,-0.03193911050545094,-0.02235737735381566,0.2614435295925397,0.4051199416822922,0.01474974707399311,0.012335457443488228
-0.2746763503468781,0.1469199083250743,-0.0031939110505450944,0.009581733151635281,0.2623939289728088,0.4066157988239467,0.01480750113106972,0.012391287211211782
-0.2076042182854311,0.09581733151635283,0.02235737735381566,-0.006387822101090189,0.2633423557178571,0.40811040502286644,0.014865257035451943,0.012447170806753614
0.3161971940039643,0.09262342046580772,0.019163466303270562,-0.012775644202180378,0.2642887825356432,0.40960371633730963,0.014923013387268338,0.012503106794397126
0.45672928022794845,-0.12136861992071357,0.012775644202180378,-0.006387822101090189,0.2652331827326913,0.4110956886939844,0.014980768772528906,0.012559093680331873
0.1565016414767096,-0.14372599727452925,0.009581733151635281,-0.009581733151635281,0.26617553043736286,0.4125862779046212,0.015038521763454892,0.01261512991009155
0.035133021555996034,-0.1501138193756194,-0.025551288404360755,0.0,0.2671158005615843,0.41407543976375205,0.015096270903712662,0.012671213864846697
0.06707213206144698,-0.16608337462834488,-0.009581733151635281,0.019163466303270562,0.26805396839169315,0.41556313018207264,0.015154014708986127,0.0127273438553752
0.07984777626362735,-0.09901124256689792,-0.047908665758176414,-0.025551288404360755,0.268990009169803,0.4170493052576471,0.015211751694377279,0.012783518135277967
-0.16608337462834488,-0.019163466303270562,-0.060684309960356786,-0.047908665758176414,0.2699238979825297,0.4185339211859566,0.015269480443287678,0.012839734949868998
-0.27148243929633303,0.19163466303270565,-0.01596955525272547,-0.038326932606541124,0.27085560990133184,0.42001693404857054,0.015327199705356906,0.012895992605800084
-0.19163466303270565,0.08623559836471753,0.0,-0.012775644202180378,0.27178512022371476,0.4214982997538788,0.015384908403901236,0.01295228951323177
-0.028745199454905845,-0.025551288404360755,-0.009581733151635281,-0.02235737735381566,0.2727124046009221,0.4229779741188461,0.015442605510722096,0.013008624163915067
-0.03193911050545094,-0.19163466303270565,-0.02235737735381566,-0.012775644202180378,0.2736374388791148,0.4244559128309039,0.015500289934686986,0.013064995077327186
0.0031939110505450944,-0.028745199454905845,-0.025551288404360755,-0.009581733151635281,0.27456019879488314,0.42593207140479794,0.015557960524495793,0.013121400764426128
0.11498079781962338,0.047908665758176414,-0.0031939110505450944,0.009581733151635281,0.27548065979982644,0.4274064051973358,0.015615616116691301,0.01317783970634985
0.14053208622398414,0.1117868867690783,-0.01596955525272547,-0.0031939110505450944,0.27639879710638665,0.428878869310517,0.01567325553760982,0.013234310334663357
0.02235737735381566,0.035133021555996034,-0.02235737735381566,-0.012775644202180378,0.27731458583208585,0.43034941851487707,0.01573087757679243,0.01329081101791512
0.10220515361744302,0.04152084365708622,-0.019163466303270562,-0.019163466303270562,0.2782280010495996,0.43181800725844416,0.015788480994375843,0.01334734006397027
0.060684309960356786,-0.14053208622398414,0.0,-0.025551288404360755,0.2791390177361351,0.4332845896499096,0.015846064540107088,0.013403895745039581
-0.23634941774033696,-0.14372599727452925,0.0031939110505450944,-0.04152084365708622,0.28004761078892665,0.4347491195564386,0.01590362692509334,0.01346047634024722
-0.1117868867690783,-0.07026604311199207,0.0,-0.028745199454905845,0.2809537551637794,0.43621155082852503,0.01596116676383102,0.0135170801822894
-0.07665386521308225,0.08623559836471753,-0.0031939110505450944,0.0,0.28185742598719804,0.43767183736979076,0.016018682538994425,0.013573705674622447
0.01596955525272547,0.13733817517343905,-0.009581733151635281,0.0,0.2827585984846023,0.43912993304567005,0.016076172600357194,0.013630351244972801
-0.038326932606541124,0.01596955525272547,-0.0031939110505450944,0.01596955525272547,0.2836572477920883,0.44058579163933476,0.016133635182197684,0.013687015273289
0.038326932606541124,-0.06387822101090188,-0.012775644202180378,0.009581733151635281,0.28455334882526856,0.44203936679552347,0.01619106842211445,0.013743696066323672
0.019163466303270562,0.09581733151635283,-0.019163466303270562,-0.0031939110505450944,0.28544687624536647,0.443490611901051,0.016248470381226652,0.013800391872109321
0.11498079781962338,0.1533077304261645,-0.028745199454905845,0.006387822101090189,0.28633780447909346,0.44493948011161955,0.016305839084181404,0.013857100882246946
0.10220515361744302,-0.09581733151635283,-0.04152084365708622,-0.009581733151635281,0.2872261077962623,0.44638592455540266,0.016363172583671634,0.013913821221009785
0.13095035307234884,-0.06707213206144698,-0.025551288404360755,0.0,0.2881117604361312,0.4478298984562087,0.01642046902725478,0.013970550943006857
0.0,-0.01596955525272547,-0.02235737735381566,-0.0031939110505450944,0.2889947366801506,0.44927135502608306,0.01647772668449995,0.014027288030895011
0.05429648785926659,-0.17566510777998018,-0.035133021555996034,-0.012775644202180378,0.2898750107914089,0.45071024729683795,0.01653494392672067,0.014084030389551081
-0.01596955525272547,-0.09901124256689792,-0.0031939110505450944,-0.0031939110505450944,0.2907525568914386,0.4521465281658153,0.016592119198639965,0.014140775852310985
-0.012775644202180378,-0.16608337462834488,-0.02235737735381566,-0.05110257680872151,0.2916273488841854,0.45358015062095886,0.016649250985476993,0.014197522208646719
-0.29064590559960357,-0.14372599727452925,-0.025551288404360755,-0.060684309960356786,0.2924993604940624,0.4550110679122433,0.016706337778888292,0.014254267274457085
0.1533077304261645,0.060684309960356786,-0.02235737735381566,-0.05749039890981169,0.293368565488736,0.45643923359030797,0.01676337808203577,0.014311009001876731
0.18524684093161545,0.10859297571853319,0.0031939110505450944,-0.03193911050545094,0.29423493795953143,0.4578646014058819,0.016820370426311095,0.014367745552595148
-0.5972613664519327,-0.009581733151635281,0.009581733151635281,-0.035133021555996034,0.2950984525279605,0.45928712512085385,0.016877313340827652,0.014424475282644617
-0.4982501238850346,-0.01596955525272547,0.028745199454905845,-0.012775644202180378,0.29595908471158466,0.460706758309593,0.016934205310671423,0.014481196677177633
0.12775644202180375,-0.20441030723488604,0.019163466303270562,-0.006387822101090189,0.29681681134102367,0.46212345424642315,0.01699104479118113,0.014537908280310024
0.41201452552031714,-0.20441030723488604,-0.0031939110505450944,0.02235737735381566,0.2976716105140012,0.46353716611500884,0.017047830243802343,0.014594608635667927
0.2682885282457879,0.09901124256689792,-0.012775644202180378,0.0,0.29852346127202856,0.4649478474415254,0.017104560121046577,0.014651296255412716
-0.04152084365708622,0.2746763503468781,-0.02235737735381566,0.019163466303270562,0.29937234341759994,0.46635545232504555,0.017161232831573295,0.014707969612500144
-0.1469199083250743,0.09901124256689792,-0.019163466303270562,0.01596955525272547,0.3002182372786886,0.46775993547127215,0.017217846751127523,0.01476462714024794
0.0031939110505450944,0.047908665758176414,-0.038326932606541124,-0.01596955525272547,0.3010611233569785,0.46916125213424464,0.017274400268522838,0.014821267243877119
0.019163466303270562,0.12136861992071357,-0.05749039890981169,-0.035133021555996034,0.30190098208172295,0.4705593578503804,0.01733089185099955,0.014877888321438364
-0.17885901883052527,0.07026604311199207,-0.025551288404360755,-0.012775644202180378,0.30273779370218784,0.471954208175414,0.017387320125279604,0.014934488786791758
-0.06707213206144698,-0.24273723984142714,-0.0031939110505450944,-0.02235737735381566,0.30357153833255035,0.47334575870279905,0.017443683895230676,0.014991067081446896
-0.2682885282457879,-0.4184023476214073,-0.006387822101090189,-0.01596955525272547,0.3044021961169541,0.47473396542755886,0.01749998204350354,0.015047621664678988
0.060684309960356786,-0.18844075198216054,-0.02235737735381566,-0.009581733151635281,0.30522974737899927,0.4761187853613386,0.017556213417991018,0.015104150996628412
0.23954332879088208,0.23954332879088208,-0.01596955525272547,-0.012775644202180378,0.3060541726898345,0.47750017689019236,0.017612376809024995,0.015160653521676245
0.07984777626362735,0.45353536917740334,-0.019163466303270562,-0.012775644202180378,0.3068754528682535,0.4788780997192422,0.01766847098397278,0.015217127653289846
-0.21718595143706637,-0.14372599727452925,-0.006387822101090189,-0.0031939110505450944,0.3076935689654652,0.4802525149052386,0.01772449470282646,0.015273571766296512
-0.2682885282457879,-0.4152084365708622,0.028745199454905845,-0.025551288404360755,0.3085085023024675,0.48162338496987,0.017780446708384835,0.015329984194073467
0.0,-0.24273723984142714,-0.006387822101090189,-0.03193911050545094,0.3093202345446612,0.4829906738639167,0.017836325724983487,0.015386363244926647
0.09901124256689792,-0.038326932606541124,-0.03193911050545094,-0.05429648785926659,0.3101287476293904,0.48435434681896705,0.01789213047066537,0.015442707256480252
0.2076042182854311,0.07026604311199207,-0.009581733151635281,-0.019163466303270562,0.31093402357217953,0.4857143698642569,0.017947859669154905,0.015499014659942219
0.1628894635777998,0.17885901883052527,-0.0031939110505450944,0.006387822101090189,0.3117360444590214,0.4870707091884398,0.01800351204486687,0.015555283989490186
-0.038326932606541124,0.1501138193756194,-0.038326932606541124,-0.012775644202180378,0.3125347925685134,0.48842333096604845,0.018059086299549824,0.015611513820925937
-0.06387822101090188,0.24273723984142714,-0.038326932606541124,-0.01596955525272547,0.3133302503195798,0.4897722016096763,0.01811458113291713,0.01566770270893223
0.009581733151635281,-0.05429648785926659,-0.05749039890981169,-0.03193911050545094,0.31412240007824155,0.4911172879837615,0.018169995338410246,0.015723849180372642
-0.07665386521308225,-0.19163466303270565,-0.03193911050545094,-0.006387822101090189,0.3149112240255668,0.492458557371995,0.018225327899068035,0.015779951761194184
0.1117868867690783,-0.14053208622398414,-0.02235737735381566,0.006387822101090189,0.3156967041526934,0.49379597734522834,0.018280578004666172,0.01583600898136438
0.11817470887016848,-0.1053990646679881,-0.01596955525272547,0.0,0.3164788223574904,0.49512951572723757,0.01833574498469832,0.015892019340259297
0.2587067950941526,0.006387822101090189,0.009581733151635281,0.0,0.3172575605984896,0.49645914051246537,0.0183908282155979,0.01594798126544425
0.2619007061446977,0.18844075198216054,0.012775644202180378,0.0031939110505450944,0.31803290110191074,0.49778481964796173,0.018445827054620556,0.016003893091272838
0.04152084365708622,0.12136861992071357,0.009581733151635281,0.006387822101090189,0.31880482653629233,0.49910652098319647,0.01850074080667038,0.016059753056984583
-0.36729977081268583,-0.17247119672943506,0.0031939110505450944,0.0031939110505450944,0.319573320016654,0.500424212475019,0.018555568708444402,0.01611555931680784
-0.1533077304261645,-0.23315550668979185,-0.012775644202180378,-0.009581733151635281,0.3203383650803484,0.5017378624107215,0.018610309914522036,0.016171309951106758
0.038326932606541124,-0.006387822101090189,-0.02235737735381566,-0.006387822101090189,0.32109994570999606,0.5030474395131638,0.01866496349878605,0.01622700297496591
0.05429648785926659,0.13733817517343905,-0.04152084365708622,-0.028745199454905845,0.32185804616666697,0.504352912815581,0.01871952850111216,0.016282636353821267
0.035133021555996034,-0.009581733151635281,-0.038326932606541124,-0.035133021555996034,0.32261265069201356,0.5056542513612682,0.01877400401355268,0.01633820804156935
-0.22676768458870167,-0.20441030723488604,-0.03193911050545094,-0.047908665758176414,0.32336374339494106,0.5069514240396106,0.018828389255048174,0.016393716043175317
0.08623559836471753,-0.1533077304261645,-0.028745199454905845,-0.05110257680872151,0.32411130837299706,0.5082443997091223,0.0188826835895636,0.01644915848104029
-0.08304168731417244,-0.028745199454905845,0.0,-0.006387822101090189,0.3248553298479172,0.5095331474085116,0.018936886485213772,0.016504533627980628
-0.24593115089197226,0.17885901883052527,0.006387822101090189,0.01596955525272547,0.32559579218052576,0.5108176363571673,0.01899099743043792,0.016559839870281475
-0.1053990646679881,0.0,0.009581733151635281,0.0031939110505450944,0.3263326799023104,0.5120978358070646,0.019045015848182936,0.016615075624692638
-0.06387822101090188,-0.14053208622398414,0.0031939110505450944,0.0031939110505450944,0.3270659777714519,0.5133737149471056,0.019098941058450607,0.016670239274713703
-0.07026604311199207,-0.025551288404360755,-0.009581733151635281,-0.01596955525272547,0.32779567068290255,0.5146452428419107,0.019152772278364052,0.016725329144999298
0.047908665758176414,0.1501138193756194,-0.02235737735381566,-0.01596955525272547,0.3285217435066103,0.5159123884130785,0.019206508633986846,0.01678034350609109
0.09901124256689792,0.1117868867690783,-0.025551288404360755,-0.025551288404360755,0.329244181013797,0.5171751205150834,0.019260149198795196,0.016835280603001768
0.2139920403865213,0.01596955525272547,-0.05110257680872151,-0.009581733151635281,0.3299629679245133,0.5184334080214033,0.01931369306507238,0.016890138683338236
0.0031939110505450944,-0.11498079781962338,-0.019163466303270562,0.0,0.3306780890309812,0.5196872197706943,0.019367139420846915,0.0169449159962629
0.012775644202180378,0.17885901883052527,0.012775644202180378,0.009581733151635281,0.33138952920936016,0.5209365245081594,0.019420487571900142,0.01699961076037614
0.05429648785926659,0.060684309960356786,-0.006387822101090189,-0.012775644202180378,0.3320972732516597,0.5221812910307709,0.019473736877871135,0.017054221138107235
-0.05749039890981169,0.0,-0.012775644202180378,-0.028745199454905845,0.3328013057439224,0.5234214882587198,0.01952688666759374,0.01710874524880421
-0.16608337462834488,-0.07665386521308225,-0.012775644202180378,-0.038326932606541124,0.33350161112287746,0.5246570850057066,0.019579936202774584,0.01716318121510648
-0.13095035307234884,-0.22676768458870167,-0.02235737735381566,-0.02235737735381566,0.3341981738316128,0.5258880498444438,0.0196328846875521,0.01721752721573944
-0.2587067950941526,-0.19163466303270565,-0.0031939110505450944,-0.009581733151635281,0.3348909784977033,0.5271143514129879,0.01968573128964762,0.017271781502758144
-0.19802248513379583,0.009581733151635281,0.009581733151635281,-0.028745199454905845,0.33558001010440014,0.5283359587875295,0.019738475137699017,0.01732594237305261
0.29703372770069375,0.01596955525272547,-0.0031939110505450944,-0.012775644202180378,0.33626525413724767,0.5295528413662178,0.019791115291810962,0.01738000814150822
0.13414426412289396,-0.16927728567888997,-0.01596955525272547,-0.0031939110505450944,0.33694669666622296,0.5307649684648559,0.019843650722979802,0.017433977131346583
0.0,-0.21718595143706637,-0.01596955525272547,-0.012775644202180378,0.3376243242621156,0.5319723092949376,0.019896080324730118,0.01748784765146737
-0.14372599727452925,-0.12136861992071357,-0.01596955525272547,0.0031939110505450944,0.338298123730521,0.5331748333549479,0.019948402944697515,0.017541617969378313
-0.10859297571853319,0.01596955525272547,-0.038326932606541124,0.0,0.338968081904935,0.5343725106181333,0.0200006174207353,0.017595286297728965
0.02235737735381566,0.028745199454905845,-0.025551288404360755,-0.0031939110505450944,0.33963418563337017,0.5355653112443132,0.020052722628174723,0.017648850781072516
0.09901124256689792,0.10859297571853319,-0.012775644202180378,-0.0031939110505450944,0.3402964217716475,0.5367532052078127,0.02010471751624922,0.0177023094840496
0.0031939110505450944,-0.07026604311199207,-0.028745199454905845,-0.01596955525272547,0.34095477710993893,0.537936162234369,0.020156601095282122,0.017755660396521045
-0.05110257680872151,0.13095035307234884,-0.03193911050545094,-0.03193911050545094,0.341609238312615,0.5391141519591289,0.020208372415690432,0.017808901463745225
0.09901124256689792,0.038326932606541124,-0.05110257680872151,-0.025551288404360755,0.3422597918945535,0.5402871440463978,0.020260030600991557,0.01786203063879596
0.19802248513379583,0.10859297571853319,-0.03193911050545094,-0.05110257680872151,0.3429064242953555,0.5414551081903157,0.02031157491380421,0.0179150459377154
0.36729977081268583,0.12456253097125865,0.0,-0.009581733151635281,0.3435491221231833,0.5426180140955472,0.020363004772122408,0.01796794547582122
0.5078318570366699,0.2235737735381566,0.009581733151635281,0.012775644202180378,0.34418787257186845,0.543775831605456,0.020414319666358535,0.018020727459157664
0.16927728567888997,0.05110257680872151,0.012775644202180378,-0.0031939110505450944,0.344822663839222,0.5449285309324883,0.020465519049218495,0.018073390127037584
-0.2076042182854311,-0.22676768458870167,0.035133021555996034,-0.006387822101090189,0.3454534851903561,0.5460760827533512,0.020516602307873832,0.01812593169312496
-0.39285105921704655,-0.1501138193756194,0.019163466303270562,-0.02235737735381566,0.34608032670079564,0.547218458208319,0.02056756881709464,0.0181783503245587
-0.5717100780475718,0.038326932606541124,-0.009581733151635281,-0.03193911050545094,0.34670317923007393,0.5483556289190884,0.0206184179831341,0.01823064416448113
-0.1533077304261645,0.035133021555996034,-0.012775644202180378,-0.019163466303270562,0.3473220347203568,0.5494875668162993,0.020669149223167097,0.0182828113793209
-0.09581733151635283,0.02235737735381566,-0.019163466303270562,0.0,0.3479368862121093,0.5506142437698484,0.020719761923261245,0.018334850178991332
0.04152084365708622,0.2810641724479683,-0.035133021555996034,-0.006387822101090189,0.3485477273509864,0.5517356314452596,0.020770255442317243,0.01838675878173812
0.08304168731417244,0.019163466303270562,-0.028745199454905845,0.009581733151635281,0.34915455187206695,0.5528517015681679,0.020820629164583507,0.01843853536640314
-0.0031939110505450944,-0.4471475470763132,-0.028745199454905845,-0.02235737735381566,0.3497573533768915,0.5539624263216608,0.02087088255131287,0.018490178063745446
0.05429648785926659,-0.4503414581268582,-0.038326932606541124,-0.02235737735381566,0.35035612526401555,0.5550677788656858,0.02092101516138158,0.018541684986184328
0.18844075198216054,-0.1117868867690783,-0.03193911050545094,-0.019163466303270562,0.35095086072760334,0.5561677339764706,0.02097102666149762,0.018593054263042114
-0.32897283820614465,0.05429648785926659,-0.012775644202180378,-0.009581733151635281,0.3515415529413894,0.5572622680510414,0.021020916827843624,0.018644284052487577
-0.1533077304261645,0.07026604311199207,-0.012775644202180378,-0.012775644202180378,0.35212819539354234,0.5583513582786056,0.02107068550407544,0.01869537252577375
0.2650946171952428,0.04471475470763132,-0.019163466303270562,-0.025551288404360755,0.3527107820959979,0.5594349818910611,0.021120332534840518,0.018746317850535963
0.1469199083250743,0.09581733151635283,-0.028745199454905845,-0.012775644202180378,0.3532893075711777,0.5605131159328784,0.02116985774062795,0.018797118197088316
-0.22996159563924676,0.01596955525272547,-0.01596955525272547,-0.012775644202180378,0.3538637667752176,0.5615857372590685,0.02121926094166609,0.018847771749402824
-0.440759724975223,-0.13733817517343905,0.009581733151635281,0.006387822101090189,0.3544341551198843,0.5626528225532326,0.021268541971368998,0.018898276694380708
-0.1501138193756194,-0.07665386521308225,-0.0031939110505450944,-0.019163466303270562,0.3550004686415239,0.5637143483910795,0.021317700642605287,0.0189486312029272
0.06387822101090188,-0.21718595143706637,-0.009581733151635281,-0.01596955525272547,0.3555627040511668,0.5647702914072337,0.021366736696071663,0.0189988334292787
0.33855457135777994,0.006387822101090189,-0.01596955525272547,-0.012775644202180378,0.35612085850174563,0.5658206284750575,0.021415649778027006,0.01904888152469674
0.028745199454905845,0.009581733151635281,0.009581733151635281,-0.009581733151635281,0.35667492941142287,0.5668653366549614,0.021464439455297066,0.019098773641372534
0.18205292988107036,0.20121639618434092,0.01596955525272547,-0.03193911050545094,0.3572249144428479,0.5679043929464077,0.021513105236754093,0.019148507929093145
0.038326932606541124,-0.012775644202180378,-0.01596955525272547,-0.035133021555996034,0.3577708114061865,0.5689377742468462,0.02156164658439261,0.01919808255708031
-0.3704936818632309,-0.18205292988107036,-0.009581733151635281,-0.02235737735381566,0.35831261818627785,0.5699654575227874,0.021610062920877412,0.01924749575819707
-0.038326932606541124,-0.05429648785926659,-0.012775644202180378,-0.009581733151635281,0.35885033285386425,0.5709874198981024,0.021658353628589335,0.019296745843722613
0.18205292988107036,0.0031939110505450944,-0.02235737735381566,-0.006387822101090189,0.35938395376210197,0.5720036386080289,0.021706518045338498,0.019345831166447988
0.2938398166501486,0.0031939110505450944,-0.025551288404360755,-0.0031939110505450944,0.35991347951336644,0.5730140907867877,0.021754555483632417,0.019394750067624124
0.06707213206144698,0.012775644202180378,-0.01596955525272547,0.0,0.360438908978942,0.5740187531886948,0.021802465266404898,0.01944350084032516
-0.18205292988107036,0.07345995416253714,-0.009581733151635281,0.0031939110505450944,0.36096024132722376,0.5750176020953209,0.02185024673532953,0.019492081710160463
0.019163466303270562,0.12775644202180375,-0.028745199454905845,-0.025551288404360755,0.3614774759015706,0.576010613464255,0.021897899228809237,0.019540490836643845
-0.060684309960356786,0.05110257680872151,-0.038326932606541124,-0.025551288404360755,0.3619906120389,0.5769977631826559,0.02194542208883495,0.019588726349235606
-0.2203798624876115,-0.05749039890981169,-0.04471475470763132,0.0,0.36249964896617193,0.5779790271981371,0.02199281472642945,0.019636786392371472
0.019163466303270562,-0.05749039890981169,-0.025551288404360755,-0.006387822101090189,0.363004585841992,0.5789543814532454,0.022040076691047926,0.019684669124308364
0.2874519945490585,0.11498079781962338,-0.01596955525272547,-0.009581733151635281,0.36350542186684137,0.5799238018210344,0.022087207673425646,0.019732372678911578
0.45672928022794845,0.04471475470763132,0.0,0.009581733151635281,0.3640021564648305,0.5808872641602928,0.022134207432893623,0.01977989514720558
0.18524684093161545,-0.06387822101090188,0.009581733151635281,0.01596955525272547,0.36449478962763404,0.581844744361329,0.022181075700713565,0.01982723458793711
0.060684309960356786,-0.08304168731417244,-0.01596955525272547,-0.0031939110505450944,0.36498332207792383,0.5827962183081721,0.022227812123563232,0.019874389040364277
-0.38965714816650143,-0.04471475470763132,-0.025551288404360755,-0.025551288404360755,0.365467755044125,0.5837416618528416,0.02227441627503559,0.01992135652966534
-0.48866839073339935,-0.22676768458870167,-0.006387822101090189,-0.025551288404360755,0.36594809019105373,0.5846810508886406,0.022320887698824766,0.019968135081831036
-0.3832693260654113,-0.1501138193756194,0.0,-0.038326932606541124,0.3664243299915335,0.5856143615865611,0.02236722591431812,0.02001472276223647
-0.3704936818632309,-0.08942950941526263,0.0,-0.02235737735381566,0.3668964780556012,0.5865415706606851,0.0224134303667586,0.020061117717169334
-0.19163466303270565,0.02235737735381566,0.0031939110505450944,-0.012775644202180378,0.36736453907875644,0.5874626553292115,0.02245950037487511,0.020107318182379597
0.20121639618434092,-0.035133021555996034,-0.0031939110505450944,-0.0031939110505450944,0.3678285185467906,0.5883775929789269,0.022505435116278196,0.02015332244722637
0.45672928022794845,0.11817470887016848,-0.01596955525272547,-0.009581733151635281,0.36828842248802063,0.5892863609051431,0.022551233643299834,0.020199128801462317
0.3193911050545094,-0.05110257680872151,-0.01596955525272547,-0.02235737735381566,0.36874425751953366,0.5901889363244802,0.022596894918717407,0.02024473550800275
0.23634941774033696,0.006387822101090189,-0.025551288404360755,-0.012775644202180378,0.3691960310303745,0.5910852964574796,0.022642417864325155,0.020290140815612128
-0.23634941774033696,-0.02235737735381566,-0.038326932606541124,-0.012775644202180378,0.36964375113847386,0.5919754184356049,0.022687801415429223,0.020335342979759613
-0.306615460852329,0.01596955525272547,-0.025551288404360755,-0.009581733151635281,0.37008742649751886,0.5928592791312215,0.022733044577808455,0.020380340261606896
-0.2235737735381566,0.1117868867690783,-0.009581733151635281,-0.009581733151635281,0.3705270662204996,0.593736855131835,0.022778146451875075,0.02042513091385688
0.04471475470763132,0.2650946171952428,0.009581733151635281,-0.006387822101090189,0.37096267982941633,0.5946081229819592,0.022823106189348404,0.020469713169227396
0.019163466303270562,-0.09581733151635283,-0.012775644202180378,-0.019163466303270562,0.3713942770075527,0.595473059641078,0.022867922923795247,0.020514085236292924
0.13095035307234884,-0.28425808349851334,-0.0031939110505450944,-0.038326932606541124,0.37182186726310806,0.5963316428441194,0.0229125957324914,0.020558245318123437
0.11817470887016848,-0.16608337462834488,-0.006387822101090189,-0.04152084365708622,0.37224545980216917,0.5971838512416902,0.02295712362071413,0.020602191666502834
-0.09262342046580772,0.07026604311199207,-0.019163466303270562,-0.025551288404360755,0.37266506361326845,0.5980296644079246,0.02300150551300918,0.020645922641239538
-0.12456253097125865,-0.009581733151635281,-0.04152084365708622,-0.0031939110505450944,0.373080687540926,0.5988690625766742,0.02304574028486076,0.020689436717068937
0.0,-0.07984777626362735,-0.025551288404360755,-0.019163466303270562,0.3734923402661664,0.5997020261747811,0.023089826844164694,0.02073273243062767
0.08623559836471753,-0.03193911050545094,-0.025551288404360755,-0.025551288404360755,0.37390003022533735,0.6005285355415234,0.023133764196277887,0.020775808333068614
0.08304168731417244,0.0,-0.038326932606541124,-0.025551288404360755,0.3743037655383398,0.6013485708726667,0.023177551452653874,0.02081866299607226
-0.05110257680872151,-0.08304168731417244,-0.009581733151635281,0.012775644202180378,0.37470355401622246,0.6021621121783253,0.023221187819199903,0.020861295036895187
-0.08623559836471753,-0.14372599727452925,0.0031939110505450944,0.025551288404360755,0.37509940319447616,0.6029691393272747,0.023264672563010208,0.0209037031190852
0.009581733151635281,0.025551288404360755,-0.0031939110505450944,-0.0031939110505450944,0.37549132032473415,0.6037696322548708,0.02330800493435317,0.02094588593643542
0.07345995416253714,0.10220515361744302,-0.012775644202180378,-0.02235737735381566,0.3758793123392538,0.604563571087597,0.02335118409831719,0.02098784219600071
0.22676768458870167,0.05429648785926659,-0.025551288404360755,-0.05110257680872151,0.3762633858716125,0.605350936089863,0.02339420913466373,0.021029570621722678
0.22996159563924676,-0.05110257680872151,-0.009581733151635281,-0.05429648785926659,0.37664354744630185,0.6061317076016747,0.02343707908465209,0.02107107001301212
0.04471475470763132,-0.10220515361744302,-0.012775644202180378,0.009581733151635281,0.37701980371520366,0.6069058660159026,0.023479792980337158,0.021112339316720883
-0.13414426412289396,-0.07665386521308225,-0.006387822101090189,0.03193911050545094,0.37739216146783044,0.6076733918030822,0.023522349829789038,0.021153377623768947
-0.17247119672943506,0.06387822101090188,-0.006387822101090189,0.006387822101090189,0.377760627491526,0.6084342655743933,0.023564748587464084,0.02119418410600668
-0.05429648785926659,0.2139920403865213,-0.012775644202180378,-0.025551288404360755,0.3781252085306268,0.6091884681507598,0.023606988136805753,0.021234757968447603
0.047908665758176414,0.08304168731417244,-0.012775644202180378,-0.047908665758176414,0.37848591126885434,0.6099359807179652,0.02364906729326378,0.02127509844533284
-0.17566510777998018,0.060684309960356786,-0.0031939110505450944,-0.02235737735381566,0.37884274223949266,0.6106767849506424,0.023690984817336662,0.021315204836921564
-0.07026604311199207,-0.13733817517343905,-0.0031939110505450944,-0.019163466303270562,0.37919570781197953,0.6114108629156272,0.023732739408962436,0.021355076538498097
-0.07026604311199207,-0.2587067950941526,0.0,-0.006387822101090189,0.3795448142464165,0.6121381970354278,0.023774329680208466,0.02139471301268135
-0.09581733151635283,-0.22676768458870167,-0.02235737735381566,-0.006387822101090189,0.37989006767066824,0.6128587703979822,0.023815754141835156,0.021434113732276015
0.05429648785926659,-0.11817470887016848,-0.009581733151635281,-0.0031939110505450944,0.3802314740248207,0.6135725670984482,0.02385701123034239,0.021473278136014143
0.17247119672943506,-0.09262342046580772,0.019163466303270562,0.019163466303270562,0.3805690390653872,0.6142795721881644,0.023898099351357054,0.021512205610139376
0.3161971940039643,0.3832693260654113,-0.03193911050545094,-0.006387822101090189,0.38090276848790644,0.6149797714543327,0.023939016912257114,0.021550895496611447
-0.23315550668979185,0.5780979001486619,-0.05749039890981169,-0.0031939110505450944,0.38123266819660717,0.6156731517432174,0.023979762377744167,0.021589347104771953
-0.08304168731417244,0.38646323711595637,-0.04471475470763132,-0.028745199454905845,0.381558744506812,0.6163597018965412,0.024020334369784714,0.021627559710864965
-0.025551288404360755,-0.4631171023290387,-0.025551288404360755,-0.02235737735381566,0.3818810040225242,0.6170394134466666,0.02406073174074862,0.02166553257431529
-0.440759724975223,-0.4663110133795837,0.0031939110505450944,-0.009581733151635281,0.38219945340478734,0.6177122806801021,0.024100953537995882,0.021703264971685014
-0.04471475470763132,-0.22676768458870167,-0.028745199454905845,-0.03193911050545094,0.3825140994314406,0.6183783004453325,0.024140998893547743,0.021740756208547162
0.11498079781962338,-0.10859297571853319,-0.01596955525272547,-0.019163466303270562,0.3828249491469276,0.6190374716934443,0.02418086695243916,0.021778005619202644
0.047908665758176414,-0.11498079781962338,0.009581733151635281,-0.012775644202180378,0.383132009717975,0.6196897946359562,0.024220556865964762,0.021815012573574835
-0.2076042182854311,-0.02235737735381566,-0.0031939110505450944,-0.009581733151635281,0.3834352882166783,0.6203352699533525,0.02426006777664951,0.021851776466047582
0.10220515361744302,-0.01596955525272547,-0.012775644202180378,-0.02235737735381566,0.3837347916270852,0.6209738983207405,0.024299398776633428,0.021888296690129955
0.09581733151635283,0.025551288404360755,0.0,0.006387822101090189,0.3840305269314466,0.6216056801141041,0.024338548881835086,0.02192457263027898
0.1053990646679881,0.04152084365708622,0.0031939110505450944,-0.01596955525272547,0.38432250109193855,0.6222306152628235,0.024377517021640316,0.021960603663425775
0.12456253097125865,-0.05110257680872151,-0.012775644202180378,-0.04471475470763132,0.38461072099078925,0.6228487032660969,0.024416302028771254,0.021996389166458737
0.035133021555996034,-0.19482857408325072,-0.01596955525272547,-0.02235737735381566,0.38489519341087136,0.6234599433420209,0.02445490265113598,0.022031928553486527
0.01596955525272547,0.05110257680872151,-0.025551288404360755,-0.019163466303270562,0.38517592498037084,0.6240643346871539,0.024493317595361306,0.022067221313685968
0.012775644202180378,0.2203798624876115,-0.012775644202180378,0.0031939110505450944,0.38545292204264336,0.6246618767090064,0.024531545572977563,0.02210226699589896
-0.10859297571853319,0.36729977081268583,-0.019163466303270562,0.012775644202180378,0.3857261905685147,0.6252525692704439,0.02456958531901883,0.02213706515759198
-0.11817470887016848,0.35771803766105054,-0.012775644202180378,0.01596955525272547,0.3859957362158894,0.6258364132057778,0.024607435583485573,0.0221716153313907
-0.047908665758176414,0.05749039890981169,-0.025551288404360755,-0.0031939110505450944,0.3862615644649723,0.62641341078976,0.02464509512294553,0.022205917022064342
0.038326932606541124,-0.3800754150148662,-0.04152084365708622,-0.025551288404360755,0.3865236806594657,0.6269835656373214,0.0246825627224582,0.02223996971193588
0.12456253097125865,-0.2682885282457879,-0.04152084365708622,-0.060684309960356786,0.3867820899496291,0.6275468824547672,0.024719837259065777,0.022273772887736354
0.3130032829534192,-0.04152084365708622,-0.0031939110505450944,-0.006387822101090189,0.3870367973482838,0.6281033670477492,0.024756917754176735,0.02230732610529505
0.43756581392467786,-0.035133021555996034,-0.006387822101090189,-0.006387822101090189,0.38728780805905344,0.6286530260403921,0.024793803332840463,0.02234062901489467
-0.060684309960356786,0.047908665758176414,0.0,-0.025551288404360755,0.38753512787496985,0.6291958661945989,0.02483049311323618,0.022373681306067424
-0.4631171023290387,-0.05110257680872151,0.006387822101090189,-0.009581733151635281,0.38777876329174477,0.6297318939618611,0.024866986126473017,0.022406482661657696
-0.3161971940039643,-0.09581733151635283,0.009581733151635281,0.0,0.3880187214692482,0.6302611154381349,0.024903281299759456,0.02243903275329935
-0.4631171023290387,-0.025551288404360755,0.0,-0.009581733151635281,0.38825501037077614,0.6307835364495098,0.024939377468371517,0.02247133122381244
0.04471475470763132,-0.006387822101090189,0.012775644202180378,0.01596955525272547,0.3884876388822198,0.6312991625565229,0.02497527338408521,0.022503377666302816
0.2555128840436075,-0.08942950941526263,-0.028745199454905845,0.0,0.3887166166044804,0.6318079989570149,0.02501096773186917,0.022535171629922305
0.06387822101090188,-0.17566510777998018,-0.04471475470763132,-0.01596955525272547,0.38894195348480887,0.6323100505249124,0.02504645919494977,0.022566712627933493
0.20121639618434092,-0.1117868867690783,-0.047908665758176414,-0.02235737735381566,0.3891636595870405,0.6328053221012895,0.025081746562421302,0.022598000142060766
0.23954332879088208,-0.006387822101090189,-0.04471475470763132,-0.035133021555996034,0.38938174505569634,0.6332938187078428,0.02511682882335129,0.02262903365189199
-0.4631171023290387,-0.035133021555996034,-0.012775644202180378,-0.04152084365708622,0.3895962202780491,0.633775545391155,0.0251517051922459,0.022659812688919086
0.025551288404360755,0.009581733151635281,-0.009581733151635281,0.0,0.3898070961442262,0.6342505069066355,0.025186375041833946,0.022690336874143915
0.28425808349851334,-0.0031939110505450944,-0.025551288404360755,0.019163466303270562,0.3900143840750015,0.6347187075376591,0.02522083779667588,0.022720605897650938
-0.16927728567888997,-0.12456253097125865,-0.019163466303270562,0.0031939110505450944,0.3902180958186361,0.6351801510848645,0.025255092883841812,0.0227506194614269
-0.4215962586719524,-0.2139920403865213,-0.0031939110505450944,-0.025551288404360755,0.39041824340003317,0.635634841084275,0.025289139738058367,0.02278037724703131
-0.20441030723488604,0.01596955525272547,0.0031939110505450944,-0.028745199454905845,0.39061483929304996,0.636082781189057,0.025322977779938725,0.02280987892804993
-0.006387822101090189,0.18844075198216054,-0.0031939110505450944,-0.035133021555996034,0.39080789647553477,0.6365239753479068,0.025356606361028846,0.022839124211051918
0.07665386521308225,0.2107981293359762,-0.0031939110505450944,-0.02235737735381566,0.3909974281361482,0.6369584278047853,0.025390024728206003,0.022868112874680113
0.12136861992071357,0.08623559836471753,-0.012775644202180378,-0.009581733151635281,0.39118344729810817,0.637386143230054,0.0254232320222128,0.022896844772214764
0.10220515361744302,0.1053990646679881,-0.02235737735381566,0.0031939110505450944,0.39136596671415114,0.6378071267822837,0.025456227304739877,0.0229253197910288
0.1596955525272547,0.12456253097125865,-0.03193911050545094,-0.012775644202180378,0.3915449989549893,0.6382213839289937,0.025489009615265824,0.02295353780073899
0.2810641724479683,0.0,-0.02235737735381566,-0.01596955525272547,0.3917205565350223,0.6386289202617061,0.02552157803703773,0.022981498630909047
-0.01596955525272547,-0.20121639618434092,-0.019163466303270562,-0.025551288404360755,0.3918926520480914,0.639029741394002,0.025553931730108403,0.023009202087394848
-0.13733817517343905,-0.306615460852329,-0.006387822101090189,-0.028745199454905845,0.39206129816646007,0.6394238530798175,0.025586069911837855,0.02303664798756357
-0.17247119672943506,-0.038326932606541124,0.012775644202180378,-0.0031939110505450944,0.39222650750686067,0.6398112616083754,0.025617991807518625,0.02306383618537002
-0.05749039890981169,0.20441030723488604,-0.009581733151635281,-0.019163466303270562,0.3923882925849355,0.6401919739797621,0.025649696610190193,0.023090766561335272
-0.03193911050545094,0.17247119672943506,-0.019163466303270562,-0.04152084365708622,0.39254666580346365,0.6405659977375497,0.025681183471299905,0.023117439005509277
0.038326932606541124,0.025551288404360755,-0.02235737735381566,-0.025551288404360755,0.3927016393223554,0.640933340852649,0.025712451520031963,0.023143853443767178
-0.05429648785926659,-0.19163466303270565,-0.019163466303270562,-0.01596955525272547,0.39285322492757263,0.6412940116218595,0.025743499895742022,0.02317000987443755
-0.12775644202180375,-0.025551288404360755,-0.012775644202180378,0.0031939110505450944,0.3930014340271109,0.6416480185108897,0.02577432776644667,0.023195908351699365
-0.0031939110505450944,0.035133021555996034,-0.006387822101090189,0.012775644202180378,0.3931462777244407,0.6419953700299157,0.025804934313468114,0.023221548932165142
0.009581733151635281,-0.14372599727452925,-0.009581733151635281,-0.012775644202180378,0.3932877668287553,0.6423360745868804,0.025835318694526186,0.023246931640274603
0.06387822101090188,-0.12775644202180375,-0.01596955525272547,0.0,0.3934259117700174,0.6426701404817723,0.025865480019174922,0.023272056462961398
0.24593115089197226,0.06707213206144698,-0.035133021555996034,-0.0031939110505450944,0.39356072260889713,0.6429975760895932,0.025895417366572568,0.02329692334201986
0.27148243929633303,0.1469199083250743,-0.02235737735381566,-0.012775644202180378,0.3936922092907197,0.6433183899446236,0.02592512984321627,0.023321532158230456
-0.24593115089197226,-0.06707213206144698,-0.0031939110505450944,-0.012775644202180378,0.39382038199922265,0.643632590704728,0.025954616621286408,0.023345882734888714
-0.3161971940039643,-0.1533077304261645,-0.012775644202180378,-0.0031939110505450944,0.3939452513812511,0.643940187146228,0.025983876905922708,0.02336997485683347
-0.2076042182854311,-0.05749039890981169,-0.02235737735381566,0.0,0.39406682861626124,0.6442411881774205,0.02601290988290505,0.023393808271230273
-0.12775644202180375,-0.06707213206144698,-0.006387822101090189,-0.025551288404360755,0.39418512536537825,0.6445356027961471,0.02604171471414709,0.02341738267519137
0.08942950941526263,-0.05110257680872151,0.006387822101090189,-0.02235737735381566,0.3943001535737777,0.6448234399623313,0.026070290545006692,0.02344069773230929
0.19482857408325072,-0.04152084365708622,0.0031939110505450944,0.0031939110505450944,0.39441192524160007,0.6451047084611722,0.02609863647793953,0.023463753110454844
0.33216674925668976,0.28425808349851334,-0.009581733151635281,0.0031939110505450944,0.3945204523983947,0.645379416931455,0.02612675154155714,0.02348654848307875
0.3704936818632309,0.3481363045094153,-0.01596955525272547,-0.02235737735381566,0.3946257473519053,0.6456475742834282,0.026154634690386536,0.023509083498198947
-0.07026604311199207,-0.08304168731417244,-0.01596955525272547,-0.02235737735381566,0.3947278229512945,0.64590919031985,0.026182284833154552,0.02353135777779775
-0.12456253097125865,-0.4215962586719524,-0.006387822101090189,-0.009581733151635281,0.3948266925124549,0.6461642760025119,0.026209700860618565,0.023553370949525882
0.028745199454905845,-0.1565016414767096,-0.03193911050545094,-0.05749039890981169,0.394922369460064,0.6464128434342685,0.026236881656177102,0.023575122674302073
-0.4311779918235877,0.012775644202180378,-0.01596955525272547,-0.03193911050545094,0.3950148671196675,0.646654905766922,0.026263826114694994,0.023596612686615677
-0.18205292988107036,-0.038326932606541124,-0.012775644202180378,-0.009581733151635281,0.3951041988966626,0.6468904767161762,0.026290533167729644,0.02361784083535979
-0.1469199083250743,-0.1565016414767096,-0.009581733151635281,0.0,0.39519037854097705,0.6471195699444143,0.026317001773124644,0.023638807054614724
-0.2107981293359762,-0.2107981293359762,0.0,0.019163466303270562,0.39527342012701117,0.6473421989921154,0.02634323087290661,0.023659511284663086
0.047908665758176414,-0.025551288404360755,0.0,0.01596955525272547,0.3953533378686935,0.6475583775946975,0.026369219348516743,0.023679953434955662
0.22676768458870167,0.09262342046580772,-0.006387822101090189,-0.009581733151635281,0.39543014599634063,0.647768119748458,0.026394965986842787,0.023700133397918436
0.3098093719028741,0.1501138193756194,-0.02235737735381566,-0.025551288404360755,0.3955038587668422,0.6479714395068307,0.026420469482035792,0.023720051063733573
0.32897283820614465,0.09262342046580772,-0.035133021555996034,-0.03193911050545094,0.395574490674287,0.6481683509313849,0.026445728492653548,0.02373970633488043
0.2107981293359762,0.035133021555996034,-0.03193911050545094,-0.01596955525272547,0.3956420567006297,0.6483588681564816,0.026470741731420312,0.023759099154791
-0.14053208622398414,-0.11817470887016848,-0.02235737735381566,-0.02235737735381566,0.39570657232855727,0.648543005302865,0.026495508030040076,0.023778229521681266
-0.2587067950941526,-0.06387822101090188,-0.03193911050545094,-0.03193911050545094,0.3957680533534597,0.648720776372664,0.02652002634759722,0.02379709748062186
-0.18524684093161545,-0.012775644202180378,-0.05110257680872151,-0.028745199454905845,0.39582651575803524,0.6488921952275494,0.026544295768742166,0.023815703128888307
-0.29703372770069375,-0.08304168731417244,-0.028745199454905845,-0.03193911050545094,0.3958819757411817,0.6490572755101234,0.026568315538785862,0.023834046636765978
0.035133021555996034,-0.012775644202180378,-0.009581733151635281,-0.012775644202180378,0.3959344497512166,0.6492160305466188,0.026592085079754493,0.02385212825365443
-0.06387822101090188,-0.05749039890981169,0.006387822101090189,0.0031939110505450944,0.39598395434932376,0.6493684733212268,0.0266156039206308,0.02386994828057305
-0.1053990646679881,0.038326932606541124,0.01596955525272547,-0.03193911050545094,0.39603050594468214,0.6495146164694631,0.026638871596853752,0.0238875070263633
-0.009581733151635281,-0.0031939110505450944,0.006387822101090189,-0.01596955525272547,0.39607412062174147,0.6496544722616877,0.026661887603443204,0.02390480479570027
-0.019163466303270562,-0.05110257680872151,-0.019163466303270562,-0.009581733151635281,0.39611481407669796,0.6497880525669459,0.02668465139585128,0.02392184190600496
0.11817470887016848,-0.09262342046580772,-0.012775644202180378,-0.0031939110505450944,0.39615260156230264,0.6499153688574522,0.026707162402545268,0.02393861867896301
0.16608337462834488,0.13414426412289396,-0.02235737735381566,0.006387822101090189,0.39618749793513813,0.6500364323673459,0.02672942004242111,0.02395513540467245
0.08304168731417244,0.2491250619425173,-0.009581733151635281,0.006387822101090189,0.39621951782463705,0.6501512544060406,0.02675142374025815,0.02397139231714399
0.05110257680872151,0.08942950941526263,0.0,-0.0031939110505450944,0.39624867571961014,0.6502598467007503,0.02677317291844376,0.023987389589344477
0.04471475470763132,-0.1053990646679881,-0.01596955525272547,-0.0031939110505450944,0.39627498588418636,0.6503622215148072,0.02679466696200097,0.024003127331917673
-0.1469199083250743,-0.14053208622398414,-0.025551288404360755,-0.012775644202180378,0.3962984622606451,0.6504583914811237,0.026815905205992946,0.024018605591934396
-0.1501138193756194,-0.07026604311199207,-0.02235737735381566,-0.009581733151635281,0.39631911851566876,0.6505483694383173,0.026836886978482615,0.02403382436243627
0.07026604311199207,-0.04152084365708622,-0.03193911050545094,-0.019163466303270562,0.3963369681680541,0.6506321683423355,0.026857611657887918,0.024048783602595932
-0.12136861992071357,-0.10220515361744302,-0.03193911050545094,-0.01596955525272547,0.3963520246297632,0.6507098011237917,0.02687807871094956,0.02406348325874987
0.0031939110505450944,-0.06707213206144698,-0.009581733151635281,-0.012775644202180378,0.396364301137548,0.6507812805962007,0.026898287708267913,0.024077923279110795
0.028745199454905845,-0.035133021555996034,0.0,-0.0031939110505450944,0.39637381064058924,0.6508466194628691,0.02691823828926224,0.024092103611496083
-0.04152084365708622,-0.012775644202180378,-0.019163466303270562,-0.009581733151635281,0.3963805656867776,0.6509058302551185,0.026937930085766053,0.024106024183153222
-0.17885901883052527,0.05429648785926659,-0.03193911050545094,-0.02235737735381566,0.3963845784091889,0.6509589251943936,0.026957362692148334,0.024119684888093327
0.06707213206144698,0.060684309960356786,-0.01596955525272547,-0.035133021555996034,0.3963858606586601,0.6510059161438041,0.02697653571307125,0.024133085610516636
0.303421549801784,0.03193911050545094,-0.02235737735381566,-0.05110257680872151,0.3963844241825818,0.6510468146719348,0.026995448808792313,0.02414622628493531
0.2650946171952428,0.06387822101090188,-0.025551288404360755,0.009581733151635281,0.3963802808281827,0.65108163210423,0.0270141016961188,0.024159106954114946
0.2555128840436075,-0.05110257680872151,-0.012775644202180378,0.019163466303270562,0.3963734427795488,0.6511103795335744,0.02703249414095457,0.024171727768648937
0.14053208622398414,-0.16927728567888997,-0.0031939110505450944,-0.006387822101090189,0.39636392266585235,0.6511330678935935,0.02705062594089986,0.024184088930312056
-0.35771803766105054,-0.1533077304261645,-0.025551288404360755,-0.02235737735381566,0.3963517334993676,0.6511497081779282,0.02706849688632923,0.02419619064350621
-0.5525466117443013,-0.05110257680872151,-0.009581733151635281,-0.025551288404360755,0.39633688874415546,0.6511603116759346,0.027086106743906397,0.024208033110553865
-0.32897283820614465,-0.047908665758176414,0.006387822101090189,-0.012775644202180378,0.3963194026591095,0.6511648899487902,0.027103455265526825,0.024219616552185495
0.03193911050545094,0.047908665758176414,0.01596955525272547,0.006387822101090189,0.39629929046933277,0.6511634545716628,0.02712054217866988,0.024230941212142754
0.14053208622398414,0.05749039890981169,-0.01596955525272547,-0.01596955525272547,0.3962765679907537,0.6511560169415104,0.02713736717523489,0.024242007332998968
0.10859297571853319,-0.11817470887016848,0.0031939110505450944,-0.006387822101090189,0.3962512510956057,0.6511425882751805,0.02715392992068883,0.024252815134765977
0.14053208622398414,0.060684309960356786,0.0031939110505450944,0.0031939110505450944,0.3962233554951727,0.6511231797218558,0.027170230046298646,0.02426336480700893
-0.009581733151635281,0.29064590559960357,-0.006387822101090189,-0.006387822101090189,0.39619289672751007,0.6510978025465364,0.02718626711633983,0.024273656496309762
-0.3609119487115956,0.3193911050545094,-0.0031939110505450944,-0.025551288404360755,0.39615989015988423,0.6510664685133816,0.027202040607587713,0.024283690301116954
-0.11817470887016848,0.01596955525272547,-0.025551288404360755,-0.03193911050545094,0.39612435111043043,0.6510291903370315,0.027217549919342117,0.024293466302566985
0.20441030723488604,0.019163466303270562,-0.05110257680872151,-0.038326932606541124,0.39608629503309023,0.6509859815907304,0.027232794431934174,0.024302984623511204
-0.012775644202180378,-0.5844857222497523,-0.028745199454905845,-0.01596955525272547,0.3960457375077615,0.6509368562929696,0.02724777361459499,0.024312245473419897
-0.04152084365708622,-0.5557405227948463,-0.02235737735381566,0.009581733151635281,0.3960026940259413,0.6508818293793882,0.027262487099692853,0.024321249142310448
0.12775644202180375,-0.2619007061446977,-0.03193911050545094,-0.009581733151635281,0.3959571797782547,0.6508209178940212,0.027276934666856895,0.024329995951706762
0.04471475470763132,0.009581733151635281,-0.04152084365708622,-0.025551288404360755,0.39590920959694487,0.6507541412537073,0.02729111621224677,0.024338486214765417
0.012775644202180378,0.3161971940039643,-0.01596955525272547,-0.02235737735381566,0.39585879798071794,0.6506815203092813,0.027305031758556846,0.024346720241305728
-0.19802248513379583,0.27787026139742316,0.01596955525272547,-0.01596955525272547,0.3958059590829645,0.6506030766390035,0.02731868144639357,0.024354698364287067
0.2874519945490585,0.0031939110505450944,0.019163466303270562,-0.0031939110505450944,0.3957507068162329,0.6505188325862651,0.027332065478820448,0.024362420941931508
0.2139920403865213,-0.12775644202180375,-0.01596955525272547,-0.025551288404360755,0.3956930551548374,0.6504288111451392,0.027345184076860336,0.02436988833349599
0.12456253097125865,-0.09581733151635283,-0.02235737735381566,-0.025551288404360755,0.3956330183511512,0.6503330354905551,0.027358037472615365,0.0243771008933795
0.047908665758176414,0.025551288404360755,-0.009581733151635281,-0.0031939110505450944,0.39557061084701006,0.6502315287132392,0.027370625912559704,0.024384058991639725
-0.038326932606541124,0.17566510777998018,0.0031939110505450944,-0.006387822101090189,0.3955058470036362,0.6501243137775531,0.02738294964232988,0.024390763010253023
-0.09581733151635283,0.009581733151635281,0.0031939110505450944,0.0031939110505450944,0.39543874088269626,0.650011413528601,0.027395008864930043,0.024397213304748974
-0.10220515361744302,-0.2076042182854311,-0.019163466303270562,-0.009581733151635281,0.39536930619612254,0.6498928507492326,0.02740680370633226,0.02440341017604159
0.04471475470763132,-0.09901124256689792,-0.019163466303270562,-0.019163466303270562,0.3952975563615336,0.6497686482589781,0.02741833423028189,0.02440935387382369
-0.01596955525272547,0.03193911050545094,-0.025551288404360755,-0.0031939110505450944,0.3952235045068329,0.6496388289913599,0.027429600489765532,0.024415044616657368
-0.02235737735381566,-0.03193911050545094,-0.02235737735381566,-0.03193911050545094,0.3951471633813073,0.6495034158613515,0.02744060257261139,0.02442048260934977
-0.01596955525272547,0.025551288404360755,-0.02235737735381566,-0.028745199454905845,0.3950685452666081,0.6493624314778427,0.027451340622864265,0.024425668066027983
-0.17566510777998018,0.1117868867690783,-0.03193911050545094,-0.02235737735381566,0.39498766198431073,0.64921589800797,0.027461814848388753,0.024430601247189706
-0.2555128840436075,0.06387822101090188,0.0,0.0,0.39490452507421225,0.6490638372708544,0.027472025519955333,0.02443528247102783
0.16608337462834488,0.09581733151635283,-0.006387822101090189,0.006387822101090189,0.394819146093835,0.6489062708927126,0.027481972935115107,0.02443971207313381
0.24593115089197226,0.047908665758176414,-0.019163466303270562,-0.009581733151635281,0.3947315368284494,0.6487432203694613,0.027491657357503807,0.02444389035609069
0.035133021555996034,-0.06387822101090188,-0.025551288404360755,-0.006387822101090189,0.39464170930025005,0.6485747070297414,0.0275010790057733,0.02444781757218456
-0.06387822101090188,-0.18844075198216054,-0.012775644202180378,-0.006387822101090189,0.39454967560976534,0.6484007520299894,0.0275102380980522,0.02445149392793297
-0.5333831454410307,-0.09901124256689792,0.0,-0.009581733151635281,0.394455447820923,0.6482213765124678,0.027519134868849892,0.024454919586154037
-0.680303053766105,-0.012775644202180378,0.006387822101090189,-0.006387822101090189,0.39435903832334196,0.64803660174929,0.0275277695253098,0.024458094666811796
-0.019163466303270562,0.0,0.0031939110505450944,0.0031939110505450944,0.3942604604948353,0.6478464489712138,0.02753614219579383,0.024461019247853835
0.2810641724479683,-0.18205292988107036,-0.025551288404360755,0.0031939110505450944,0.3941597287873992,0.6476509390920797,0.027544252922918056,0.024463693358865057
0.1565016414767096,-0.06387822101090188,-0.04152084365708622,-0.012775644202180378,0.3940568582081939,0.6474500927592067,0.027552101717087246,0.024466116974831607
-0.04152084365708622,-0.07026604311199207,-0.028745199454905845,-0.04152084365708622,0.39395186392169396,0.6472439305772869,0.027559688651088394,0.024468290036326782
0.009581733151635281,-0.012775644202180378,-0.019163466303270562,-0.025551288404360755,0.39384476103151067,0.6470324730986303,0.027567013922949163,0.024470212507646315
-0.05110257680872151,-0.047908665758176414,-0.012775644202180378,-0.025551288404360755,0.3937355643254855,0.6468157406249965,0.02757407783558091,0.024471884431602052
0.035133021555996034,0.07345995416253714,-0.03193911050545094,-0.025551288404360755,0.3936242881224581,0.6465937530912554,0.02758088074319863,0.02447330593915998
0.09901124256689792,0.12456253097125865,-0.04152084365708622,-0.04152084365708622,0.3935109462811112,0.6463665301352751,0.02758742304891805,0.02447447724096944
0.2107981293359762,0.08623559836471753,-0.025551288404360755,-0.0031939110505450944,0.3933955523094385,0.6461340912838506,0.027593705257727915,0.024475398629784127
0.33216674925668976,0.08942950941526263,-0.028745199454905845,0.012775644202180378,0.39327811960460096,0.6458964560870443,0.027599728010138786,0.024476070461304414
0.43437190287413274,0.10859297571853319,-0.04152084365708622,0.0031939110505450944,0.3931586618322998,0.6456536441331856,0.027605492073339597,0.024476493101834477
0.060684309960356786,-0.08304168731417244,-0.006387822101090189,0.019163466303270562,0.3930371932435316,0.645405675035045,0.0276109983291272,0.024476666889946822
-0.047908665758176414,-0.18524684093161545,0.019163466303270562,-0.006387822101090189,0.39291372858970536,0.6451525684705116,0.027616247743569338,0.024476592134656056
-0.35452412661050536,-0.19163466303270565,0.019163466303270562,-0.035133021555996034,0.3927882827466063,0.6448943443354546,0.027621241310317617,0.02447626913276287
-0.35452412661050536,-0.1501138193756194,0.009581733151635281,-0.035133021555996034,0.39266087065061883,0.6446310229712041,0.02762598001831834,0.0244756982038581
-0.13733817517343905,-0.04152084365708622,-0.012775644202180378,-0.028745199454905845,0.3925315075993364,0.6443626252239761,0.027630464841851138,0.024474879739106246
0.11498079781962338,0.1469199083250743,-0.009581733151635281,0.006387822101090189,0.3924002093264648,0.6440891722361096,0.027634696722346228,0.02447381422052028
0.09901124256689792,-0.006387822101090189,-0.012775644202180378,-0.012775644202180378,0.3922669917161052,0.6438106852049422,0.027638676553856073,0.02447250218489304
0.006387822101090189,-0.18844075198216054,0.0,-0.028745199454905845,0.3921318705071605,0.6435271852827457,0.02764240517547794,0.024470944178740493
-0.07026604311199207,-0.060684309960356786,-0.006387822101090189,-0.028745199454905845,0.3919948611161688,0.6432386936097195,0.027645883353844714,0.024469140760622753
0.12775644202180375,0.12456253097125865,-0.02235737735381566,-0.009581733151635281,0.39185597855893506,0.6429452313993039,0.02764911177094159,0.024467092530934466
0.12456253097125865,0.0,-0.006387822101090189,-0.009581733151635281,0.39171523751286746,0.6426468199163698,0.027652091045673285,0.024464800128911602
0.12136861992071357,-0.07984777626362735,-0.006387822101090189,-0.009581733151635281,0.3915726524460158,0.642343480314322,0.02765482175844264,0.024462264194996735
-0.035133021555996034,-0.07026604311199207,-0.02235737735381566,-0.0031939110505450944,0.3914282376642668,0.642035233499148,0.02765730444682421,0.024459485339797332
0.0,-0.07984777626362735,-0.028745199454905845,-0.006387822101090189,0.39128200722404294,0.6417221001414265,0.027659539618084622,0.024456464129101803
-0.29064590559960357,0.1596955525272547,-0.02235737735381566,-0.025551288404360755,0.39113397483919876,0.641404100795309,0.02766152780175222,0.024453201082301947
-0.1053990646679881,0.07665386521308225,-0.006387822101090189,-0.01596955525272547,0.3909841539916999,0.6410812560512904,0.02766326958120311,0.024449696695964012
-0.19163466303270565,-0.09901124256689792,0.012775644202180378,0.009581733151635281,0.3908325581525135,0.6407535866250506,0.027664765564351913,0.02444595147299911
-0.22996159563924676,-0.10859297571853319,0.006387822101090189,0.0031939110505450944,0.39067920088207414,0.640421113324824,0.027666016333015107,0.024441965919064987
0.07665386521308225,0.14372599727452925,-0.02235737735381566,0.009581733151635281,0.39052409584530456,0.6400838570307126,0.02766702242161224,0.02443774051390935
0.19163466303270565,0.2938398166501486,-0.038326932606541124,-0.0031939110505450944,0.39036725678205897,0.6397418388528938,0.02766778434485449,0.024433275691555623
-0.0031939110505450944,-0.1565016414767096,-0.047908665758176414,-0.047908665758176414,0.39020869740229724,0.6393950804572176,0.02766830267697358,0.024428571850718422
-0.3481363045094153,-0.10220515361744302,-0.05429648785926659,-0.047908665758176414,0.3900484313119695,0.6390436042568475,0.027668578154808134,0.02442362941528754
-0.18205292988107036,-0.07026604311199207,-0.035133021555996034,-0.04152084365708622,0.3898864721125301,0.6386874332049537,0.027668611750679823,0.024418448924920615
-0.09581733151635283,-0.07345995416253714,-0.025551288404360755,-0.03193911050545094,0.38972283357214454,0.6383265904064129,0.02766840467193816,0.024413031084676014
-0.01596955525272547,-0.07026604311199207,-0.012775644202180378,-0.01596955525272547,0.389557529564459,0.6379610988758068,0.0276679582883679,0.02440737674444538
0.2555128840436075,-0.07984777626362735,0.02235737735381566,0.009581733151635281,0.3893905738351251,0.6375909814650819,0.02766727404063183,0.024401486839232548
0.19163466303270565,-0.05429648785926659,0.02235737735381566,0.009581733151635281,0.3892219799791977,0.6372162608552615,0.027666353388766662,0.024395362325609363
0.06707213206144698,-0.17247119672943506,-0.006387822101090189,-0.012775644202180378,0.38905176160744454,0.6368369595883075,0.02766519780176361,0.02438900414073169
-0.025551288404360755,-0.16608337462834488,0.0,-0.0031939110505450944,0.3888799323343005,0.6364531002256197,0.027663808733900463,0.02438241318833786
-0.012775644202180378,0.05110257680872151,-0.006387822101090189,-0.02235737735381566,0.38870650553961517,0.6360647055610871,0.027662187569596552,0.024375590336939756
0.05749039890981169,0.10220515361744302,-0.025551288404360755,-0.02235737735381566,0.3885314941657265,0.6356717986177697,0.027660335594330305,0.02436853643240025
-0.0031939110505450944,0.012775644202180378,-0.025551288404360755,-0.006387822101090189,0.3883549106629144,0.6352744024288813,0.027658254034802075,0.024361252322268996
-0.07984777626362735,-0.04471475470763132,-0.012775644202180378,0.01596955525272547,0.388176767005897,0.6348725398208984,0.027655944123605898,0.02435373886058496
0.019163466303270562,0.2555128840436075,-0.009581733151635281,0.012775644202180378,0.3879970747230073,0.6344662333687973,0.027653407114212474,0.02434599689226709
-0.025551288404360755,0.3002276387512388,-0.01596955525272547,0.0,0.38781584491608684,0.6340555057463361,0.027650644247070807,0.024338027241348422
0.012775644202180378,0.03193911050545094,-0.025551288404360755,-0.03193911050545094,0.3876330882422404,0.6336403802677592,0.027647656731356374,0.024329830705384484
0.17885901883052527,-0.2682885282457879,-0.04152084365708622,-0.05110257680872151,0.3874488149176968,0.6332208810148647,0.02764444578068577,0.02432140808105293
0.10220515361744302,-0.10859297571853319,-0.025551288404360755,-0.04152084365708622,0.38726303484492935,0.6327970326304582,0.027641012680112643,0.02431276024076577
0.14372599727452925,-0.09262342046580772,0.0031939110505450944,-0.01596955525272547,0.38707575779092046,0.6323688601908004,0.027637358813450547,0.024303888193671113
-0.0031939110505450944,-0.09262342046580772,0.009581733151635281,-0.009581733151635281,0.3868869934441015,0.6319363890443529,0.027633485606284737,0.024294793061920852
-0.1053990646679881,-0.047908665758176414,-0.0031939110505450944,0.0,0.38669675132696035,0.6314996445645279,0.027629394439719263,0.02428547600109576
-0.01596955525272547,-0.04152084365708622,-0.009581733151635281,0.009581733151635281,0.3865050406891433,0.6310586519664543,0.027625086605783004,0.02427593813268592
0.09581733151635283,-0.009581733151635281,-0.012775644202180378,0.0031939110505450944,0.38631187046517246,0.6306134361567388,0.02762056330549936,0.0242661805159479
0.035133021555996034,-0.04152084365708622,-0.02235737735381566,-0.006387822101090189,0.386117249277204,0.6301640215985631,0.02761582567215493,0.02425620414534482
-0.09262342046580772,0.0031939110505450944,-0.019163466303270562,-0.01596955525272547,0.3859211854498643,0.6297104322418856,0.027610874810968276,0.024246009956408632
0.07665386521308225,0.04152084365708622,-0.012775644202180378,-0.01596955525272547,0.3857236870353552,0.6292526915062688,0.027605711829730824,0.024235598842278994
-0.05749039890981169,-0.028745199454905845,-0.01596955525272547,-0.01596955525272547,0.38552476184301804,0.6287908222926213,0.027600337838761185,0.024224971678350422
-0.16608337462834488,0.1596955525272547,-0.012775644202180378,-0.028745199454905845,0.3853244174700574,0.6283248470762378,0.027594753934089264,0.024214129342932038
-0.2587067950941526,0.23315550668979185,-0.012775644202180378,-0.009581733151635281,0.3851226614075239,0.6278547881983768,0.027588961185946573,0.024203072732786116
-0.19163466303270565,0.05429648785926659,-0.012775644202180378,0.0,0.3849195012597957,0.6273806682659588,0.0275829606324784,0.02419180275927446
0.060684309960356786,-0.21718595143706637,-0.038326932606541124,-0.028745199454905845,0.3847149448871499,0.6269025103261375,0.027576753288655668,0.024180320320644537
0.006387822101090189,-0.19482857408325072,-0.028745199454905845,-0.038326932606541124,0.38450900027526713,0.6264203378508135,0.027570340193616448,0.024168626303473387
-0.23315550668979185,-0.08623559836471753,-0.01596955525272547,-0.02235737735381566,0.3843016752932396,0.6259341747913372,0.02756372246394111,0.024156721634322528
0.006387822101090189,-0.0031939110505450944,0.0,-0.012775644202180378,0.3840929776360054,0.6254440454908157,0.027556901280644523,0.024144607312605672
0.2810641724479683,-0.028745199454905845,-0.01596955525272547,0.006387822101090189,0.3838829149232378,0.624949974282068,0.027549877815997225,0.024132284381913578
-0.2874519945490585,-0.2076042182854311,-0.025551288404360755,0.012775644202180378,0.38367149485141655,0.6244519851864058,0.02754265319004894,0.02411975388027085
-0.09901124256689792,-0.2107981293359762,-0.012775644202180378,-0.0031939110505450944,0.3834587253957807,0.6239501021116454,0.027535228494948376,0.024107016811535948
0.04471475470763132,-0.07984777626362735,-0.01596955525272547,-0.009581733151635281,0.3832446148317015,0.6234443492897614,0.02752760482557846,0.02409407413521151
0.11498079781962338,-0.08304168731417244,-0.02235737735381566,0.0031939110505450944,0.38302917148334337,0.6229347513787852,0.02751978327782831,0.024080926760014363
0.21718595143706637,0.019163466303270562,-0.025551288404360755,0.0,0.3828124035489198,0.622421333167255,0.027511764951923704,0.02406757553636079
0.2746763503468781,0.17566510777998018,-0.012775644202180378,-0.04152084365708622,0.38259431922449333,0.6219041193034541,0.027503550972472965,0.024054021259745883
0.12136861992071357,0.2938398166501486,-0.012775644202180378,-0.025551288404360755,0.38237492693532993,0.6213831344062133,0.027495142486380932,0.024040264713544254
-0.17247119672943506,0.12136861992071357,-0.01596955525272547,-0.03193911050545094,0.3821542353982873,0.6208584035067674,0.02748654063396087,0.024026306733839656
0.02235737735381566,-0.12456253097125865,-0.01596955525272547,-0.04152084365708622,0.38193225348252907,0.6203299523033471,0.02747774653057964,0.024012148246878983
-0.16608337462834488,-0.1117868867690783,0.012775644202180378,-0.012775644202180378,0.38170899002897646,0.6197978069686623,0.027468761268729013,0.023997790277199137
-0.009581733151635281,-0.025551288404360755,0.0,0.0031939110505450944,0.3814844537419891,0.6192619938332992,0.027459585911680823,0.02398323392451134
0.22676768458870167,0.04152084365708622,-0.02235737735381566,-0.0031939110505450944,0.3812586531674211,0.6187225391299576,0.027450221470478504,0.0239684803002863
0.07026604311199207,-0.060684309960356786,-0.02235737735381566,-0.019163466303270562,0.3810315967451743,0.6181794687789977,0.027440668904788423,0.023953530472546312
-0.5078318570366699,-0.1628894635777998,0.0,-0.01596955525272547,0.3808032929704799,0.6176328083560849,0.02743092915393088,0.02393838546418722
-0.4279840807730426,-0.18205292988107036,0.02235737735381566,0.019163466303270562,0.38057375075718514,0.6170825833304,0.02742100314225241,0.023923046282430235
-0.02235737735381566,0.009581733151635281,0.019163466303270562,0.04152084365708622,0.38034297980715054,0.6165288193389752,0.027410891765964805,0.023907513948991953
0.07665386521308225,0.13095035307234884,-0.0031939110505450944,0.02235737735381566,0.3801109904828619,0.6159715421722386,0.02740059590200344,0.02389178953454488
0.18205292988107036,0.2682885282457879,-0.009581733151635281,-0.019163466303270562,0.37987779329368376,0.6154107776669031,0.027390116403327416,0.02387587418184556
0.13414426412289396,-0.047908665758176414,-0.035133021555996034,-0.07345995416253714,0.37964339864021673,0.6148465518777306,0.027379454080882718,0.023859769111731564
0.10220515361744302,0.0,-0.060684309960356786,-0.09901124256689792,0.37940781687140424,0.6142788911664576,0.027368609756300365,0.02384347568522344
-0.012775644202180378,-0.06387822101090188,-0.025551288404360755,-0.047908665758176414,0.3791710582778679,0.6137078218477836,0.027357584382493614,0.02382699553037784
-0.10220515361744302,0.13733817517343905,-0.01596955525272547,-0.009581733151635281,0.3789331329548343,0.6131333698754057,0.02734637910022272,0.023810330584512315
-0.12456253097125865,-0.035133021555996034,-0.03193911050545094,0.0031939110505450944,0.3786940507212955,0.6125555609203517,0.02733499517967389,0.023793482973039785
-0.03193911050545094,-0.3800754150148662,-0.025551288404360755,0.009581733151635281,0.37845382116056586,0.6119744206366392,0.027323433957940763,0.02377645484599685
0.2107981293359762,-0.047908665758176414,-0.02235737735381566,0.0031939110505450944,0.3782124536771231,0.6113899750154572,0.027311696834534067,0.02375924829377586
0.09262342046580772,0.2555128840436075,0.006387822101090189,0.028745199454905845,0.377969957554962,0.6108022506535222,0.02729978526360122,0.02374186533839017
-0.1533077304261645,0.27148243929633303,0.009581733151635281,0.019163466303270562,0.37772634203837374,0.6102112748012537,0.027287700706015723,0.02372430796196679
0.04471475470763132,-0.27148243929633303,-0.02235737735381566,-0.028745199454905845,0.37748161634453975,0.6096170754972111,0.027275444582245244,0.02370657814673968
0.038326932606541124,-0.5461587896432111,-0.03193911050545094,-0.04152084365708622,0.3772357895703742,0.6090196819430834,0.027263018279657283,0.02368867790841048
0.02235737735381566,-0.21718595143706637,-0.01596955525272547,-0.038326932606541124,0.3769888705509441,0.6084191249495463,0.027250423203312894,0.023670609330156665
0.1053990646679881,0.13733817517343905,0.012775644202180378,0.01596955525272547,0.3767408677645386,0.6078154370289114,0.0272376607990975,0.02365237458770351
0.05429648785926659,0.009581733151635281,0.006387822101090189,0.03193911050545094,0.376491789351317,0.6072086517745818,0.027224732519449284,0.023633975935701174
-0.09581733151635283,0.4663110133795837,0.0,-0.01596955525272547,0.37624164318567715,0.6065988031375946,0.02721163976784271,0.023615415673979394
-0.03193911050545094,0.2107981293359762,-0.035133021555996034,-0.05749039890981169,0.37599043690880274,0.6059859254891766,0.027198383869337667,0.023596696139461262
-0.03193911050545094,-0.009581733151635281,-0.047908665758176414,-0.05749039890981169,0.37573817790028363,0.605370054026501,0.02718496611708502,0.023577819747239662
-0.05110257680872151,-0.2076042182854311,-0.038326932606541124,0.006387822101090189,0.37548487321961266,0.6047512245602682,0.02717138788851443,0.023558789045325563
-0.009581733151635281,-0.2746763503468781,-0.03193911050545094,0.0031939110505450944,0.3752305295664013,0.6041294730942148,0.027157650731108453,0.02353960669074337
-0.13733817517343905,0.13414426412289396,-0.006387822101090189,0.006387822101090189,0.3749751532896287,0.603504835934291,0.027143756347810764,0.023520275344669495
0.20121639618434092,-0.1565016414767096,0.0031939110505450944,0.0,0.3747187504950779,0.6028773498845732,0.0271297065055063,0.023500797590805055
0.18524684093161545,-0.2203798624876115,-0.02235737735381566,-0.060684309960356786,0.37446132726626513,0.6022470521370394,0.027115502938274198,0.02348117593282889
-0.1565016414767096,0.17247119672943506,-0.01596955525272547,-0.04471475470763132,0.37420288985679656,0.6016139801944977,0.02710114731762442,0.023461412869643466
-0.19482857408325072,0.3641058597621407,0.0,-0.038326932606541124,0.37394344474098884,0.6009781720118548,0.027086641271861,0.023441510996903375
-0.09262342046580772,-0.07345995416253714,0.012775644202180378,-0.0031939110505450944,0.37368299857984333,0.6003396661950038,0.027071986378302135,0.023421473035114153
-0.047908665758176414,-0.35133021555996036,-0.006387822101090189,0.028745199454905845,0.37342155812873146,0.5996985020492208,0.02705718413383153,0.023401301768749015
-0.1501138193756194,-0.05110257680872151,-0.02235737735381566,0.025551288404360755,0.373159130093393,0.5990547194695148,0.027042235954448823,0.02338099998754291
-0.11498079781962338,0.2203798624876115,-0.006387822101090189,0.0,0.372895721064017,0.5984083587783744,0.027027143199993265,0.023360570474189542
0.060684309960356786,0.009581733151635281,-0.01596955525272547,-0.02235737735381566,0.3726313375519253,0.597759460486079,0.027011907190086365,0.023340015992238027
0.1117868867690783,-0.23315550668979185,-0.006387822101090189,-0.025551288404360755,0.3723659859878001,0.5971080650491501,0.02699652919969526,0.02331933926820753
0.14053208622398414,-0.12456253097125865,0.0,0.0,0.37209967269013733,0.5964542128227249,0.02698101044135713,0.023298542997917192
0.009581733151635281,0.08623559836471753,-0.019163466303270562,-0.006387822101090189,0.37183240387692756,0.5957979441465564,0.02696535204434679,0.02327762984195123
0.14372599727452925,0.19802248513379583,-0.06387822101090188,-0.04152084365708622,0.3715641856505697,0.5951392993381612,0.02694955508450552,0.023256602404456685
0.2938398166501486,0.1533077304261645,-0.047908665758176414,-0.03193911050545094,0.37129502401688286,0.5944783186732044,0.02693362071253643,0.023235463260133645
0.27787026139742316,-0.05429648785926659,0.012775644202180378,-0.0031939110505450944,0.3710249251124901,0.5938150424419019,0.026917550278523203,0.023214215008297245
0.2235737735381566,-0.1596955525272547,-0.02235737735381566,-0.019163466303270562,0.37075389550260274,0.5931495108787629,0.026901345313521837,0.023192860268644807
-0.047908665758176414,0.04471475470763132,-0.03193911050545094,-0.01596955525272547,0.37048194223621894,0.5924817640020336,0.026885007430929076,0.0231714016376187
-0.45672928022794845,0.06387822101090188,0.006387822101090189,-0.0031939110505450944,0.3702090727037692,0.5918118415029033,0.026868538279756635,0.02314984166820602
-0.6164248327552032,-0.09581733151635283,-0.02235737735381566,-0.038326932606541124,0.36993529475968256,0.5911397826322525,0.026851939530524577,0.02312818287040407
-0.39604497026759167,-0.13414426412289396,-0.025551288404360755,-0.025551288404360755,0.36966061724815175,0.5904656261721393,0.02683521285467253,0.023106427732015128
0.2619007061446977,-0.047908665758176414,-0.012775644202180378,0.0031939110505450944,0.3693850503405306,0.5897894105392225,0.026818359926106736,0.02308457874986832
0.18524684093161545,0.04471475470763132,-0.0031939110505450944,0.0031939110505450944,0.3691086052893822,0.5891111738008121,0.026801382419366585,0.023062638415081247
-0.09262342046580772,-0.13733817517343905,-0.009581733151635281,-0.009581733151635281,0.3688312939245344,0.5884309535649674,0.02678428196757105,0.023040609159091754
-0.17885901883052527,-0.006387822101090189,-0.025551288404360755,-0.025551288404360755,0.3685531282644156,0.5877487869467113,0.026767060129439635,0.02301849333167211
0.07665386521308225,-0.32897283820614465,-0.038326932606541124,-0.03193911050545094,0.3682741203222174,0.5870647106876994,0.026749718423941547,0.022996293234328044
0.11817470887016848,-0.3768815039643211,0.0031939110505450944,0.012775644202180378,0.3679942820304206,0.586378761571118,0.026732258397925864,0.022974011168707426
0.09581733151635283,0.27787026139742316,0.02235737735381566,0.05749039890981169,0.3677136251866974,0.585690977132661,0.026714681638980563,0.02295164946508281
0.4311779918235877,0.7920899405351833,0.009581733151635281,0.04152084365708622,0.36743216149899854,0.585001396345521,0.026696989732733246,0.022929210515149064
-0.025551288404360755,0.3353606603072349,-0.0031939110505450944,-0.025551288404360755,0.3671499028047456,0.5843100602740109,0.026679184225877745,0.022906696815041636
-0.49505621283448964,-0.2619007061446977,0.0,-0.03193911050545094,0.36686686127273316,0.5836170124105213,0.02666126659316136,0.022884110965777686
-0.04152084365708622,-0.7537630079286421,-0.03193911050545094,-0.02235737735381566,0.3665830494752005,0.5829222983709147,0.026643238211626643,0.022861455634205413
0.4088206144697721,-0.5238014122893954,-0.04471475470763132,-0.05749039890981169,0.36629848040146573,0.5822259658488614,0.026625100405720963,0.022838733534911414
-0.01596955525272547,0.1117868867690783,-0.012775644202180378,-0.02235737735381566,0.3660131674068204,0.5815280649663349,0.026606854548697392,0.022815947450687768
-0.04152084365708622,0.5301892343904856,0.028745199454905845,0.019163466303270562,0.36572712403248464,0.5808286479094621,0.026588502108691518,0.022793100244282827
-0.16608337462834488,0.6196187438057482,0.02235737735381566,0.019163466303270562,0.36544036372050065,0.5801277683814232,0.02657004462024449,0.02277019482210692
-0.3704936818632309,-0.14372599727452925,-0.01596955525272547,-0.035133021555996034,0.36515289972663895,0.5794254818026097,0.026551483656280152,0.022747234092541417
-0.27148243929633303,-0.475892746531219,-0.04152084365708622,-0.07665386521308225,0.3648647454190505,0.5787218453786873,0.02653282082401115,0.022724220987118182
0.3193911050545094,0.025551288404360755,-0.035133021555996034,-0.05749039890981169,0.3645759146292365,0.5780169175286961,0.026514057789416033,0.022701158549523252
0.2076042182854311,-0.2555128840436075,-0.006387822101090189,-0.025551288404360755,0.3642864217514999,0.5773107572365503,0.026495196311371344,0.022678050009977944
0.17885901883052527,0.09262342046580772,-0.012775644202180378,0.0031939110505450944,0.36399628163685693,0.5766034235472756,0.026476238213163774,0.02265489875073883
-0.2938398166501486,-0.12456253097125865,-0.04152084365708622,0.0,0.3637055094386542,0.5758949752428376,0.026457185319238696,0.02263170818363067
-0.5685161669970267,-0.36729977081268583,-0.04471475470763132,0.0031939110505450944,0.3634141206475686,0.5751854707789665,0.026438039473475793,0.022608481640332006
-0.17247119672943506,0.019163466303270562,-0.05110257680872151,0.0031939110505450944,0.363122131378968,0.5744749684601653,0.026418802637661613,0.022585222325453628
0.39285105921704655,0.3768815039643211,-0.025551288404360755,-0.006387822101090189,0.3628295585418985,0.5737635266089949,0.02639947696318595,0.022561933313453294
0.38646323711595637,0.5461587896432111,-0.01596955525272547,-0.019163466303270562,0.36253641975222045,0.5730512037897075,0.026380064770983636,0.02253861756355666
0.5206075012388504,0.1533077304261645,-0.028745199454905845,-0.035133021555996034,0.36224273335018,0.5723380593710332,0.02636056846972829,0.02251527795478128
0.306615460852329,-0.3832693260654113,-0.03193911050545094,-0.035133021555996034,0.3619485185811416,0.5716241538453674,0.026340990502178023,0.02249191734431976
-0.5365770564915758,-0.39604497026759167,0.012775644202180378,-0.019163466303270562,0.36165379567334,0.5709095486297081,0.02632133334773136,0.022468538617797063
-0.3641058597621407,-0.13095035307234884,0.04471475470763132,0.028745199454905845,0.3613585858183476,0.5701943059382454,0.02630159952996619,0.022445144696842573
-0.13733817517343905,-0.04152084365708622,0.04471475470763132,0.02235737735381566,0.3610629110880683,0.5694784885183068,0.026281791635787973,0.02242173852021961
-0.10859297571853319,0.19163466303270565,0.006387822101090189,0.0031939110505450944,0.36076679409916296,0.5687621589562004,0.026261912356057755,0.02239832302406196
-0.060684309960356786,0.038326932606541124,-0.05749039890981169,-0.02235737735381566,0.3604702575015739,0.5680453791643446,0.026241964486970984,0.022374901114058515
-0.10220515361744302,-0.23954332879088208,-0.05749039890981169,-0.009581733151635281,0.36017332362199556,0.5673282103253828,0.026221950931398227,0.022351475640485167
0.3002276387512388,-0.06707213206144698,-0.05110257680872151,-0.025551288404360755,0.3598760144000028,0.5666107129972666,0.026201874773978,0.022328049397569584
0.16608337462834488,-0.14053208622398414,-0.04152084365708622,-0.060684309960356786,0.35957835156535134,0.5658929471738166,0.02618173934657532,0.022304625153968746
0.3832693260654113,0.1053990646679881,0.009581733151635281,-0.025551288404360755,0.3592803568881395,0.5651749722314741,0.0261615481936937,0.02228120571624082
0.2107981293359762,0.11817470887016848,0.038326932606541124,0.009581733151635281,0.3589820523588113,0.5644568468541077,0.026141304973015093,0.022257793967355784
-0.5078318570366699,-0.03193911050545094,0.05110257680872151,0.012775644202180378,0.35868346032651244,0.5637386289819563,0.026121013396114095,0.0222343928220407
-0.12775644202180375,-0.19802248513379583,0.009581733151635281,0.0031939110505450944,0.3583846036190175,0.5630203757414657,0.02610067725062624,0.022211005151749234
-0.18524684093161545,-0.05749039890981169,-0.019163466303270562,-0.025551288404360755,0.3580855054938497,0.5623021434620556,0.026080300400241486,0.022187633749129822
0.19482857408325072,0.20121639618434092,-0.03193911050545094,-0.04471475470763132,0.3577861893701746,0.5615839877926848,0.02605988672095724,0.022164281346902782
0.20441030723488604,0.02235737735381566,-0.035133021555996034,-0.035133021555996034,0.3574866786141695,0.5608659637651437,0.02603944007861455,0.022140950680689397
-0.035133021555996034,-0.1565016414767096,-0.02235737735381566,-0.01596955525272547,0.3571869964809601,0.5601481257463615,0.026018964367172735,0.022117644540051377
-0.12456253097125865,0.1053990646679881,-0.019163466303270562,-0.03193911050545094,0.3568871660043277,0.5594305273744011,0.025998463521198806,0.02209436576008454
-0.5908735443508424,0.24273723984142714,0.0031939110505450944,0.0,0.3565872099615445,0.5587132216384174,0.025977941472803127,0.0220711171820446
-0.4471475470763132,0.38646323711595637,-0.006387822101090189,0.060684309960356786,0.3562871512762878,0.5579962612159414,0.025957402084118546,0.022047901631355855
0.23954332879088208,0.025551288404360755,-0.04471475470763132,0.03193911050545094,0.35598701356964835,0.5572796989046801,0.02593684911107263,0.022024721942623674
0.4663110133795837,-0.3449423934588701,-0.04152084365708622,-0.0031939110505450944,0.355686821269408,0.556563587720086,0.025916286258322326,0.0220015809997848
0.3257789271555996,-0.3800754150148662,-0.035133021555996034,-0.04152084365708622,0.35538659944589795,0.5558479808227008,0.0258957172886408,0.021978481720577897
0.3449423934588701,-0.3098093719028741,-0.019163466303270562,-0.04152084365708622,0.3550863737591963,0.5551329318166335,0.02587514607181638,0.02195542702810424
-0.4982501238850346,-0.05110257680872151,0.0031939110505450944,-0.0031939110505450944,0.35478617046832195,0.5544184949987969,0.02585457653379265,0.021932419868298025
-0.5429648785926661,0.19482857408325072,0.0031939110505450944,0.006387822101090189,0.35448601652880735,0.5537047249596612,0.025834012556315428,0.0219094631995985
0.13414426412289396,0.17885901883052527,-0.03193911050545094,-0.025551288404360755,0.35418593973610707,0.5529916760175742,0.025813457905050033,0.021886559932553284
0.40243279236868185,-0.08623559836471753,-0.04152084365708622,-0.047908665758176414,0.3538859685909977,0.5522794020380145,0.02579291625447388,0.021863712917054873
0.306615460852329,-0.08942950941526263,-0.028745199454905845,0.006387822101090189,0.35358613199625205,0.5515679563686708,0.025772391284486378,0.021840924994376936
-0.13733817517343905,-0.012775644202180378,0.006387822101090189,-0.01596955525272547,0.35328645911206646,0.5508573915998953,0.0257518867318394,0.021818199018461628
-0.11498079781962338,-0.012775644202180378,0.01596955525272547,-0.028745199454905845,0.3529869791944528,0.550147759269123,0.025731406341774364,0.021795537821839198
-0.46950492443012876,0.02235737735381566,0.0,-0.07026604311199207,0.3526877213717757,0.5494391096344965,0.02571095378690245,0.021772944217984428
0.012775644202180378,-0.06707213206144698,-0.012775644202180378,-0.009581733151635281,0.3523887146569628,0.5487314915908894,0.02569053261759994,0.021750421068221202
0.1628894635777998,-0.012775644202180378,-0.028745199454905845,0.0,0.3520899879941578,0.5480249527331604,0.025670146256828556,0.021727971302079832
0.14372599727452925,0.2650946171952428,-0.006387822101090189,-0.04152084365708622,0.3517915700637044,0.5473195395242375,0.02564979803530403,0.02170559784760944
0.3449423934588701,0.20121639618434092,-0.006387822101090189,-0.025551288404360755,0.3514934891700848,0.5466152976691561,0.02562949121436261,0.021683303590332197
0.3161971940039643,-0.11498079781962338,0.006387822101090189,0.02235737735381566,0.35119577344754277,0.5459122725687939,0.025609228956474012,0.021661091404631478
-0.1501138193756194,-0.2587067950941526,-0.012775644202180378,0.03193911050545094,0.3508984511115077,0.545210509484792,0.02558901429121453,0.02163896417506018
-0.17247119672943506,-0.3002276387512388,0.009581733151635281,0.047908665758176414,0.35060155044646624,0.544510053578919,0.02556885011702774,0.02161692480055429
-0.6675274095639246,-0.2203798624876115,0.035133021555996034,0.05429648785926659,0.3503050997190742,0.543810950150352,0.025548739229805013,0.021594976230866793
-0.04471475470763132,0.2587067950941526,0.0031939110505450944,0.028745199454905845,0.3500091273762675,0.5431132448318987,0.025528684364428567,0.021573121514359715
0.1628894635777998,0.32897283820614465,-0.07345995416253714,-0.02235737735381566,0.34971366217000927,0.5424169836029481,0.02550868824235256,0.02155136379716146
0.5078318570366699,0.3002276387512388,-0.08304168731417244,-0.02235737735381566,0.3494187329173891,0.5417222128692729,0.025488753675428848,0.021529706269697056
0.2555128840436075,-0.09262342046580772,-0.05749039890981169,-0.05749039890981169,0.34912436845554723,0.54102897952716,0.025468883738464114,0.021508152128433575
-0.39923888131813673,-0.5174135901883052,-0.02235737735381566,-0.025551288404360755,0.3488305979034697,0.5403373308335373,0.02544908185340026,0.02148670459685098
-0.43756581392467786,-0.32897283820614465,-0.012775644202180378,-0.05429648785926659,0.3485374508042509,0.5396473144924242,0.02542935168089225,0.02146536696400625
0.1565016414767096,0.440759724975223,0.01596955525272547,-0.06707213206144698,0.3482449571320256,0.5389589791098873,0.025409696938150216,0.02144414261169403
0.019163466303270562,0.4599231912784935,-0.009581733151635281,-0.08304168731417244,0.3479531471021235,0.5382723745428607,0.0253901212834656,0.02142303506746315
-0.28425808349851334,-0.18844075198216054,-0.01596955525272547,-0.07984777626362735,0.347662050740947,0.5375875519377937,0.025370628278090182,0.0214020480842565
-0.08304168731417244,-0.475892746531219,-0.028745199454905845,-0.07026604311199207,0.34737169761996584,0.5369045635127428,0.025351221388995513,0.02138118569360474
0.12136861992071357,-0.038326932606541124,-0.04152084365708622,-0.03193911050545094,0.3470821168575424,0.5362234622071166,0.02533190403184681,0.02136045219332802
0.2587067950941526,0.24593115089197226,-0.03193911050545094,0.012775644202180378,0.346793337123991,0.5355443012669896,0.02531267964346841,0.021339852057657396
0.1596955525272547,0.4056267034192269,-0.0031939110505450944,0.035133021555996034,0.3465053866804333,0.5348671338942362,0.025293551716228962,0.021319389811716376
0.12136861992071357,-0.3257789271555996,0.035133021555996034,0.0,0.3462182934678142,0.5341920133927834,0.025274523756389684,0.021299069946309562
0.07345995416253714,-0.4599231912784935,0.04471475470763132,0.05110257680872151,0.3459320850559137,0.5335189936810083,0.025255599251511867,0.021278896891509972
-0.13733817517343905,-0.2682885282457879,0.009581733151635281,0.05749039890981169,0.34564678849009284,0.5328481295928095,0.025236781707154293,0.021258875043306934
-0.27787026139742316,-0.019163466303270562,-0.006387822101090189,0.019163466303270562,0.34536243025982744,0.5321794766893233,0.025218074652781315,0.021239008829290702
-0.4056267034192269,0.05749039890981169,-0.02235737735381566,-0.012775644202180378,0.3450790365167657,0.5315130905007031,0.025199481568747788,0.02121930272541861
0.1533077304261645,-0.012775644202180378,-0.04152084365708622,-0.05749039890981169,0.34479663340689104,0.5308490256159213,0.02518100585137243,0.021199761204324943
0.303421549801784,-0.06707213206144698,-0.025551288404360755,-0.060684309960356786,0.34451524720147736,0.5301873352060614,0.02516265087082618,0.021180388733507173
0.14372599727452925,-0.04152084365708622,-0.02235737735381566,-0.05749039890981169,0.34423490418497804,0.5295280709626723,0.025144420028079154,0.021161189854869516
0.2682885282457879,0.05429648785926659,-0.05749039890981169,-0.038326932606541124,0.34395563052618916,0.5288712831572888,0.025126316763956213,0.021142169242625488
-0.09901124256689792,0.035133021555996034,-0.038326932606541124,-0.028745199454905845,0.3436774522054888,0.5282170206801373,0.025108344588162083,0.021123331682494466
-0.5653222559464817,-0.025551288404360755,0.019163466303270562,0.012775644202180378,0.3434003950262531,0.5275653310297848,0.025090507122915523,0.02110468200218148
0.13095035307234884,-0.08942950941526263,-0.0031939110505450944,0.02235737735381566,0.3431244848041479,0.5269162603002534,0.025072808063680216,0.021086224998196016
-0.047908665758176414,0.2587067950941526,0.019163466303270562,0.038326932606541124,0.34284974747033253,0.5262698533327866,0.02505525107008677,0.021067965398548244
0.17885901883052527,0.5429648785926661,-0.0031939110505450944,0.06387822101090188,0.34257620878541534,0.5256261543052839,0.025037839690497117,0.021049907890644384
-0.18205292988107036,-0.05749039890981169,-0.02235737735381566,0.012775644202180378,0.34230389402503963,0.524985207592198,0.025020577346506336,0.021032057184610764
-0.18205292988107036,-0.4503414581268582,-0.04152084365708622,-0.06387822101090188,0.3420328279921026,0.5243470581560763,0.025003467359637398,0.021014418039699476
-0.025551288404360755,-0.27148243929633303,-0.07345995416253714,-0.08304168731417244,0.3417630350973041,0.5237117514354642,0.0249865130446942,0.020996995275901528
0.1501138193756194,0.11498079781962338,-0.035133021555996034,-0.038326932606541124,0.34149453927164203,0.5230793332531086,0.024969717848550094,0.020979793832004736
-0.09262342046580772,0.19802248513379583,-0.0031939110505450944,0.025551288404360755,0.3412273638457349,0.5224498495655673,0.02495308540112689,0.020962818791589892
0.14053208622398414,0.1053990646679881,0.0,0.0031939110505450944,0.34096153154074527,0.5218233459968427,0.024936619399488977,0.020946075299741705
0.3257789271555996,0.28425808349851334,-0.01596955525272547,-0.006387822101090189,0.340697064569089,0.5211998676139088,0.024920323443502236,0.02092956844043913
0.18524684093161545,-0.23315550668979185,-0.01596955525272547,-0.01596955525272547,0.34043398483668275,0.5205794590559409,0.024904200973125113,0.020913303159004058
0.18205292988107036,-0.3641058597621407,-0.0031939110505450944,-0.0031939110505450944,0.3401723141161418,0.5199621648528956,0.024888255290592125,0.0208972842420414
-0.0031939110505450944,0.038326932606541124,0.0,-0.01596955525272547,0.33991207398350964,0.5193480296503109,0.024872489565481576,0.020881516322840212
-0.39285105921704655,0.038326932606541124,-0.009581733151635281,-0.038326932606541124,0.33965328563598246,0.518737097957532,0.024856906802821203,0.02086600389746831
-0.47269883548067393,-0.13095035307234884,-0.01596955525272547,-0.04152084365708622,0.3393959699986535,0.5181294135214444,0.024841509831857494,0.020850751374108637
-0.038326932606541124,-0.16608337462834488,0.01596955525272547,-0.038326932606541124,0.3391401481050836,0.5175250189890505,0.02482630133863237,0.020835763141933375
-0.17247119672943506,-0.39923888131813673,0.035133021555996034,-0.019163466303270562,0.33888584115662135,0.5169239561885218,0.024811283916493905,0.020821043604170697
-0.07345995416253714,0.02235737735381566,0.028745199454905845,0.0,0.33863307014806815,0.516326266644326,0.024796460122503167,0.020806597147238187
0.1501138193756194,0.3704936818632309,0.006387822101090189,0.025551288404360755,0.33838185557196143,0.5157319917868285,0.024781832516154838,0.020792428074497035
0.09262342046580772,0.2235737735381566,0.012775644202180378,0.019163466303270562,0.33813221736217913,0.515141172925598,0.024767403635414374,0.02077854056979771
0.06387822101090188,-0.32258501610505447,-0.006387822101090189,-0.0031939110505450944,0.3378841748844461,0.5145538513902792,0.024753175932897335,0.02076493870468915
-0.05429648785926659,-0.33216674925668976,-0.04152084365708622,-0.04152084365708622,0.33763774687629733,0.5139700687648499,0.024739151751669415,0.020751626446718595
0.05429648785926659,0.0,-0.05110257680872151,-0.006387822101090189,0.3373929513623063,0.5133898669037101,0.024725333386982764,0.020738607668803147
0.09901124256689792,0.35452412661050536,-0.04152084365708622,0.009581733151635281,0.33714980561589386,0.5128132876217206,0.024711723202354038,0.020725886158458495
0.20121639618434092,0.5589344338453914,-0.05110257680872151,-0.006387822101090189,0.3369083262225552,0.5122403725835498,0.024698323713554297,0.02071346559459285
0.1628894635777998,0.2682885282457879,-0.05749039890981169,-0.060684309960356786,0.3366685292468744,0.5116711638962512,0.02468513761754362,0.02070134953306264
0.2555128840436075,-0.12775644202180375,-0.05749039890981169,-0.038326932606541124,0.3364304304226583,0.5111057045463828,0.02467216781755404,0.020689541465435248
0.1501138193756194,-0.2076042182854311,-0.025551288404360755,-0.0031939110505450944,0.3361940452787726,0.5105440379069847,0.024659417437672092,0.020678044891152863
-0.5269953233399406,-0.35771803766105054,-0.02235737735381566,0.01596955525272547,0.33595938925569285,0.5099862071282129,0.024646889768393274,0.020666863298815098
-0.8048655847373637,-0.46950492443012876,0.025551288404360755,0.009581733151635281,0.3357264780787813,0.5094322552850474,0.024634588161049933,0.02065600009035549
-0.06707213206144698,-0.3609119487115956,0.025551288404360755,-0.02235737735381566,0.3354953283324937,0.5088822260054368,0.024622515955811823,0.02064545854473473
0.3832693260654113,0.07345995416253714,-0.006387822101090189,-0.019163466303270562,0.3352659575529783,0.5083361637352405,0.024610676457815266,0.020635241828884234
-0.1565016414767096,0.2107981293359762,-0.0031939110505450944,-0.02235737735381566,0.33503838373007117,0.5077941132401331,0.0245990729002669,0.020625353019248113
-0.18205292988107036,0.12775644202180375,0.0,0.0,0.33481262487855934,0.5072561188855353,0.024587708377968684,0.020615795108631617
0.1117868867690783,-0.006387822101090189,0.006387822101090189,0.009581733151635281,0.33458869883233044,0.5067222242382965,0.024576585795357826,0.020606570984242015
-0.2555128840436075,-0.08942950941526263,-0.009581733151635281,-0.019163466303270562,0.33436662309908793,0.5061924717863663,0.024565707857342137,0.02059768340011856
-0.2235737735381566,0.2938398166501486,0.006387822101090189,0.009581733151635281,0.33414641486167856,0.5056669027760003,0.024555077088819054,0.020589134978731674
0.18844075198216054,0.35452412661050536,-0.012775644202180378,0.0,0.3339280910922239,0.5051455575860444,0.024544695855575695,0.020580928222139746
0.6323943880079286,-0.08942950941526263,-0.01596955525272547,0.0031939110505450944,0.3337116687079135,0.5046284763676382,0.024534566381513828,0.020573065496665367
0.5269953233399406,-0.5685161669970267,-0.009581733151635281,0.03193911050545094,0.3334971649409849,0.5041156993463526,0.024524690768965504,0.020565549017837234
0.3161971940039643,-0.07984777626362735,-0.035133021555996034,-0.028745199454905845,0.33328459779930214,0.5036072669407905,0.024515071022046492,0.020558380883436787
0.12136861992071357,-0.09262342046580772,-0.07026604311199207,-0.047908665758176414,0.3330739860681352,0.5031032197220509,0.024505709109889796,0.020551563143097425
0.14372599727452925,0.035133021555996034,-0.07345995416253714,-0.06387822101090188,0.3328653487897087,0.5026035978280782,0.024496607111027694,0.020545097870363013
-0.2650946171952428,0.11498079781962338,-0.04152084365708622,-0.07345995416253714,0.33265870477454185,0.5021084402704296,0.024487767362114558,0.020538987238351923
-0.306615460852329,0.07345995416253714,-0.02235737735381566,-0.038326932606541124,0.3324540725187691,0.5016177847195978,0.024479192473381834,0.020533233582213452
-0.1596955525272547,0.2139920403865213,-0.01596955525272547,-0.0031939110505450944,0.33225147036776076,0.5011316676254145,0.024470885204607936,0.020527839382801425
0.17885901883052527,0.46950492443012876,0.0031939110505450944,0.038326932606541124,0.3320509165626783,0.500650124601342,0.02446284831625308,0.020522807165673607
-0.6611395874628344,-0.01596955525272547,0.025551288404360755,0.01596955525272547,0.3318524292298726,0.5001731910240209,0.024455084476681464,0.020518139416080296
-0.5844857222497523,-0.23634941774033696,0.0,-0.006387822101090189,0.331656026737846,0.4997009022359082,0.024447596232955303,0.020513838555142033
-0.19802248513379583,-0.5014440349355798,0.0,-0.03193911050545094,0.33146172822721637,0.49923329335458283,0.024440385998888873,0.02050990692479397
0.07026604311199207,-0.32897283820614465,-0.047908665758176414,-0.05429648785926659,0.33126955354781196,0.498770399560879,0.02443345604163598,0.020506346793316477
0.1117868867690783,-0.06387822101090188,-0.01596955525272547,-0.019163466303270562,0.3310795225843612,0.4983122565665771,0.02442680852553313,0.020503160411016828
0.1628894635777998,-0.028745199454905845,0.006387822101090189,-0.0031939110505450944,0.33089165470432713,0.4978589002186498,0.02442044557871904,0.020500350036299728
0.1565016414767096,0.0,0.006387822101090189,0.0,0.33070596864904994,0.49741036551275225,0.024414369273143118,0.02049791787399975
0.23315550668979185,0.24593115089197226,0.006387822101090189,-0.019163466303270562,0.3305224826402364,0.4969666860128667,0.024408581552916767,0.02049586599797871
0.03193911050545094,0.1628894635777998,0.006387822101090189,-0.006387822101090189,0.33034121446382103,0.4965278940120015,0.02440308419906474,0.020494196332408676
0.02235737735381566,-0.060684309960356786,0.025551288404360755,0.03193911050545094,0.33016218139056325,0.4960940209447027,0.024397878836796876,0.02049291067643505
-0.1117868867690783,-0.10859297571853319,0.012775644202180378,0.009581733151635281,0.3299853999650538,0.4956650974372149,0.02439296697119039,0.020492010734433182
0.3481363045094153,-0.07984777626362735,-0.012775644202180378,-0.02235737735381566,0.3298108859658221,0.49524115307404515,0.02438835002230574,0.0204914981338229
0.47269883548067393,0.038326932606541124,-0.060684309960356786,-0.012775644202180378,0.3296386547593544,0.49482221624701267,0.024384029351355398,0.020491374424660935
0.12456253097125865,0.09581733151635283,-0.07984777626362735,-0.047908665758176414,0.3294687217869665,0.49440831408260555,0.02438000635521187,0.020491641084032924
-0.3768815039643211,0.41201452552031714,-0.09581733151635283,-0.012775644202180378,0.32930110272225643,0.49399947255923826,0.024376282658316203,0.020492299545498725
-0.33216674925668976,0.07665386521308225,-0.05749039890981169,0.01596955525272547,0.32913581336571307,0.49359571700273364,0.024372860282982158,0.020493351217298235
-0.11498079781962338,-0.006387822101090189,-0.05429648785926659,-0.0031939110505450944,0.3289728696014372,0.4931970723923694,0.024369741676000107,0.02049479745242128
0.009581733151635281,-0.19482857408325072,-0.035133021555996034,-0.08623559836471753,0.3288122872457745,0.4928035630105221,0.024366929607293763,0.02049663952873911
0.13095035307234884,-0.009581733151635281,-0.009581733151635281,-0.07984777626362735,0.3286540816591219,0.49241521205522876,0.02436442702825557,0.020498878734718784
0.12456253097125865,-0.1628894635777998,0.009581733151635281,-0.012775644202180378,0.32849826748092603,0.492032041619186,0.02436223692733151,0.020501516502776283
-0.5461587896432111,-0.38646323711595637,0.05110257680872151,-0.009581733151635281,0.3283448587606423,0.49165407288493335,0.024360362228199334,0.020504554410069754
-0.38965714816650143,-0.33855457135777994,0.060684309960356786,-0.019163466303270562,0.32819386943629336,0.49128132667696345,0.024358805818743782,0.02050799404530318
0.10220515361744302,-0.1596955525272547,0.028745199454905845,-0.01596955525272547,0.3280453137649525,0.49091382408772716,0.024357570671799875,0.02051183691118485
0.373687592913776,-0.04152084365708622,-0.0031939110505450944,0.006387822101090189,0.3278992062796709,0.49055158643480434,0.02435665988006393,0.020516084408618362
0.3768815039643211,0.05429648785926659,-0.0031939110505450944,-0.009581733151635281,0.3277555615698067,0.49019463458013895,0.024356076541160482,0.020520737830731377
0.14053208622398414,0.038326932606541124,-0.01596955525272547,0.0,0.3276143943017806,0.48984298828897094,0.024355823621099004,0.02052579834266216
-0.06387822101090188,-0.01596955525272547,-0.035133021555996034,0.0,0.3274757191629309,0.489496665946481,0.024355903922269287,0.020531266960494902
-0.5238014122893954,-0.13414426412289396,-0.02235737735381566,0.0031939110505450944,0.32733955061048536,0.48915568451493224,0.024356320145892035,0.020537144534144864
-0.6611395874628344,0.07665386521308225,-0.02235737735381566,0.006387822101090189,0.32720590301700625,0.48882005965454123,0.024357074953463665,0.02054343174250341
-0.2555128840436075,0.25231897299306244,-0.025551288404360755,-0.006387822101090189,0.3270747912638409,0.48848980598539354,0.024358170975215265,0.020550129104232404
0.16927728567888997,0.3098093719028741,-0.035133021555996034,0.006387822101090189,0.32694623095099157,0.48816493748664774,0.024359610805019277,0.020557236991991263
0.17885901883052527,0.32897283820614465,-0.038326932606541124,0.009581733151635281,0.32682023793796233,0.48784546803502266,0.0243613970255686,0.020564755641666755
0.22676768458870167,0.3800754150148662,-0.01596955525272547,0.019163466303270562,0.3266968278525574,0.4875314119016531,0.02436353223985304,0.020572685163862108
0.012775644202180378,0.05429648785926659,-0.006387822101090189,0.006387822101090189,0.32657601591063073,0.48722278391935253,0.02436601905013001,0.02058102556239105
-0.0031939110505450944,-0.2555128840436075,-0.02235737735381566,-0.02235737735381566,0.32645781676137287,0.4869195991727642,0.024368859986924136,0.020589776748896258
0.3800754150148662,-0.2938398166501486,-0.019163466303270562,-0.035133021555996034,0.32634224430536785,0.4866218725920769,0.024372057466023316,0.020598938559633653
0.2587067950941526,-0.12136861992071357,-0.012775644202180378,-0.06387822101090188,0.3262293118347501,0.4863296189219371,0.024375613798176505,0.02060851080667776
-0.03193911050545094,-0.2682885282457879,0.035133021555996034,-0.025551288404360755,0.3261190323669292,0.48604285279373216,0.024379531207030933,0.020618493354608598
0.23634941774033696,-0.2235737735381566,-0.012775644202180378,0.006387822101090189,0.32601141866271516,0.48576158866097846,0.02438381184678675,0.02062888614451285
0.4056267034192269,-0.10220515361744302,0.0,-0.006387822101090189,0.3259064831055946,0.48548584076576656,0.024388457804478195,0.020639689125488764
0.5014440349355798,-0.0031939110505450944,0.012775644202180378,-0.02235737735381566,0.32580423794959534,0.4852156229414763,0.024393471053590306,0.020650902170520444
0.35452412661050536,-0.09901124256689792,-0.025551288404360755,-0.0031939110505450944,0.32570469578307215,0.4849509481401651,0.024398853413475405,0.020662525051141266
-0.12456253097125865,-0.07984777626362735,-0.025551288404360755,-0.035133021555996034,0.32560786968113964,0.4846918281020412,0.024404606579885125,0.02067455745079595
-1.0763480240336967,0.21718595143706637,0.019163466303270562,-0.025551288404360755,0.32551377311948154,0.48443827342332907,0.024410732183529994,0.020686998991152675
-0.6036491885530227,0.03193911050545094,-0.009581733151635281,-0.025551288404360755,0.32542242033342783,0.48419029380888357,0.0244172318057661,0.020699849267562926
-0.03193911050545094,-0.18524684093161545,-0.01596955525272547,-0.02235737735381566,0.3253338268523481,0.48394789819650663,0.024424106948751176,0.02071310786720245
-0.2491250619425173,-0.11498079781962338,-0.006387822101090189,-0.009581733151635281,0.3252480091397104,0.48371109474789636,0.024431359001064593,0.02072677435701675
-0.5844857222497523,0.0,-0.0031939110505450944,0.019163466303270562,0.3251649837755958,0.48347989082126247,0.024438989213963133,0.020740848257512857
-0.20121639618434092,-0.025551288404360755,-0.012775644202180378,0.006387822101090189,0.3250847673252386,0.48325429278876325,0.024446998679717433,0.020755329019375844
0.04471475470763132,0.07665386521308225,-0.035133021555996034,-0.01596955525272547,0.3250073764916842,0.48303430575131934,0.02445538833883088,0.02077021601004341
0.08304168731417244,0.047908665758176414,-0.03193911050545094,-0.04152084365708622,0.32493282777446036,0.4828199334653753,0.02446415904585659,0.02078550851964646
0.10859297571853319,0.14053208622398414,-0.07984777626362735,-0.01596955525272547,0.3248611369751002,0.4826111784824546,0.0244733116777561,0.020801205796763856
0.20441030723488604,0.2235737735381566,-0.06387822101090188,-0.006387822101090189,0.32479231905804506,0.4824080423937359,0.024482847267322038,0.020817307074032145
0.12456253097125865,0.20121639618434092,-0.038326932606541124,-0.012775644202180378,0.3247263882749514,0.48221052620076726,0.024492767109250278,0.02083381154071477
0.09581733151635283,0.1053990646679881,-0.028745199454905845,-0.03193911050545094,0.32466335826530174,0.4820186306144969,0.024503072745378208,0.020850718309743613
0.23634941774033696,0.009581733151635281,-0.02235737735381566,-0.02235737735381566,0.3246032420515115,0.4818323559723164,0.02451376584782911,0.02086802643434451
0.060684309960356786,-0.12775644202180375,-0.0031939110505450944,-0.0031939110505450944,0.32454605204304854,0.4816517018622043,0.02452484810068622,0.02088573493636039
0.27148243929633303,-0.32258501610505447,-0.04152084365708622,-0.025551288404360755,0.3244918000824501,0.4814766669916571,0.024536321125516652,0.020903842795844403
0.2491250619425173,-0.038326932606541124,-0.04471475470763132,-0.012775644202180378,0.324440497526909,0.48130724952315795,0.024548186485259,0.020922348930063787
0.16927728567888997,0.07026604311199207,0.0,-0.03193911050545094,0.3243921553873996,0.4811434472771023,0.024560445745073326,0.020941252200362737
-0.2874519945490585,-0.18524684093161545,0.03193911050545094,-0.025551288404360755,0.3243467844148145,0.4809852574814499,0.024573100475178716,0.020960551436861773
-0.18524684093161545,-0.27787026139742316,0.05110257680872151,0.0,0.32430439510415343,0.4808326766898141,0.024586152213393237,0.020980245451994835
-0.7090482532210107,-0.21718595143706637,0.03193911050545094,0.0031939110505450944,0.32426499781710205,0.4806857011666908,0.02459960250375387,0.021000333013163237
-0.10859297571853319,-0.04152084365708622,-0.0031939110505450944,0.012775644202180378,0.3242286031024305,0.48054432717072976,0.024613452944567186,0.021020812791920578
0.24273723984142714,0.05429648785926659,-0.0031939110505450944,-0.006387822101090189,0.3241952218371098,0.48040855069766564,0.024627705123306677,0.021041683343898967
0.28425808349851334,0.009581733151635281,0.0031939110505450944,-0.03193911050545094,0.32416486495740066,0.48027836694603004,0.024642360495550457,0.02106294312735092
0.07984777626362735,-0.01596955525272547,0.006387822101090189,0.0031939110505450944,0.32413754317415894,0.48015376994309644,0.02465742031789493,0.021084590533363118
0.07984777626362735,0.2076042182854311,0.012775644202180378,0.04152084365708622,0.3241132668136483,0.4800347524827877,0.02467288564571369,0.021106623909607335
0.11498079781962338,0.19802248513379583,-0.006387822101090189,0.01596955525272547,0.3240920455957254,0.4799213064247597,0.02468875735613427,0.021129041580122673
0.09901124256689792,0.1469199083250743,-0.028745199454905845,-0.02235737735381566,0.3240738884761325,0.47981342317302617,0.024705036175694316,0.021151841862387305
0.1469199083250743,-0.25231897299306244,-0.03193911050545094,-0.028745199454905845,0.3240588036533923,0.479711093956842,0.0247217227260139,0.021175023068565085
0.373687592913776,-0.07665386521308225,-0.05429648785926659,-0.03193911050545094,0.32404679869492237,0.4796143098727446,0.024738817603955066,0.021198583506733083
0.43437190287413274,0.1053990646679881,-0.04152084365708622,-0.019163466303270562,0.3240378808537292,0.47952306177020865,0.024756321475571684,0.02122252149524657
0.09581733151635283,0.11498079781962338,-0.012775644202180378,-0.012775644202180378,0.3240320574339576,0.4794373400034765,0.024774235121561718,0.021246835360124693
-0.7409873637264618,-0.18205292988107036,-0.04152084365708622,-0.04471475470763132,0.3240293359409932,0.47935713429463733,0.024792559398110748,0.021271523415733757
-0.9901124256689793,-0.2746763503468781,-0.028745199454905845,-0.07984777626362735,0.32402972439505534,0.47928243390188185,0.024811295183268328,0.021296583993628385
-0.35133021555996036,-0.09262342046580772,-0.006387822101090189,-0.009581733151635281,0.3240332320601703,0.4792132279193639,0.024830443361088615,0.021322015525938775
0.08304168731417244,-0.04152084365708622,-0.012775644202180378,0.01596955525272547,0.3240398696511001,0.47914950530219536,0.024850004782548427,0.021347816565193342
-0.07026604311199207,0.025551288404360755,0.0,0.009581733151635281,0.32404964847964096,0.47909125447533113,0.024869980190210143,0.021373985696159847
0.2491250619425173,0.07984777626362735,-0.028745199454905845,-0.009581733151635281,0.3240625794858225,0.4790384629146051,0.024890370174311498,0.021400521447922195
0.4184023476214073,0.18205292988107036,-0.03193911050545094,-0.028745199454905845,0.3240786730124534,0.47899111708757897,0.024911175198348675,0.0214274222707867
0.2746763503468781,0.12136861992071357,0.0,-0.009581733151635281,0.3240979391361045,0.47894920271835134,0.024932395657799693,0.021454686551848238
-0.07665386521308225,0.08942950941526263,0.0031939110505450944,0.019163466303270562,0.3241203879065185,0.478912705039583,0.024954031879203017,0.021482312631508
-0.6355882990584737,-0.18524684093161545,0.0,-0.025551288404360755,0.3241460292832041,0.4788816088290512,0.02497608404714657,0.021510298806572483
-0.05749039890981169,-0.03193911050545094,-0.006387822101090189,-0.03193911050545094,0.32417487314960364,0.47885589836995673,0.02499855214755732,0.02153864334287671
-0.07984777626362735,0.038326932606541124,0.006387822101090189,-0.02235737735381566,0.32420692934314255,0.47883555735908645,0.025021435963928477,0.02156734450325495
0.019163466303270562,-0.09262342046580772,-0.0031939110505450944,0.0031939110505450944,0.32424220729886205,0.47882056869654993,0.025044735093759457,0.0215964005535283
0.1469199083250743,-0.306615460852329,-0.025551288404360755,0.009581733151635281,0.32428071561510763,0.47881091447619545,0.02506844896810647,0.021625809726533787
0.1533077304261645,0.047908665758176414,-0.04471475470763132,-0.019163466303270562,0.3243224619792795,0.4788065763534414,0.025092576904377575,0.021655570180764153
-0.14053208622398414,0.07984777626362735,-0.028745199454905845,-0.025551288404360755,0.3243674533204951,0.47880753577717733,0.02511711820356317,0.021685680000356762
-0.01596955525272547,0.303421549801784,-0.028745199454905845,-0.006387822101090189,0.32441569589781954,0.47881377386220103,0.0251420722224066,0.02171613722260214
0.02235737735381566,0.373687592913776,-0.025551288404360755,0.012775644202180378,0.32446719520344397,0.4788252715437846,0.025167438372278708,0.02174693984348283
0.2107981293359762,0.09581733151635283,0.04152084365708622,0.006387822101090189,0.3245219558264445,0.47884201012261585,0.025193216096261618,0.021778085795619573
0.19163466303270565,-0.49505621283448964,0.012775644202180378,-0.047908665758176414,0.32457998153076717,0.4788639715422446,0.02521940486840277,0.0218095729433304
0.16608337462834488,-0.43437190287413274,-0.028745199454905845,-0.05749039890981169,0.3246412755004323,0.478891138544784,0.02524600418459154,0.021841399137581718
0.3161971940039643,-0.14053208622398414,-0.035133021555996034,-0.05749039890981169,0.32470584052119633,0.47892349502254716,0.0252730135401647,0.021873562316692383
-0.04152084365708622,0.0,-0.006387822101090189,-0.02235737735381566,0.32477367905617377,0.47896102583665495,0.02530043242632386,0.021906060573094195
0.019163466303270562,-0.10859297571853319,0.006387822101090189,0.047908665758176414,0.324844793162351,0.47900371587845797,0.025328260308163975,0.021938892137655125
-0.4599231912784935,-0.303421549801784,0.0,0.01596955525272547,0.3249191843126303,0.4790515494191031,0.02535649655275162,0.02197205532835899
-0.7920899405351833,-0.07984777626362735,0.0031939110505450944,-0.012775644202180378,0.32499685365833,0.47910451027550344,0.025385140361741387,0.022005548504593946
-0.012775644202180378,0.10220515361744302,-0.04471475470763132,-0.006387822101090189,0.3250778027458799,0.479162582080813,0.025414190767162215,0.02203937001261224
0.10859297571853319,0.1565016414767096,-0.047908665758176414,-0.009581733151635281,0.3251620336876196,0.47922574814766156,0.02544364671953234,0.022073518131880254
0.12775644202180375,-0.006387822101090189,-0.028745199454905845,-0.0031939110505450944,0.3252495485184103,0.4792939912493737,0.02547350721983067,0.02210799104742856
0.012775644202180378,-0.07345995416253714,-0.012775644202180378,-0.02235737735381566,0.32534034862718386,0.47936729347482776,0.025503771368813936,0.022142786845390113
0.1501138193756194,-0.047908665758176414,-0.009581733151635281,-0.02235737735381566,0.3254344346127545,0.4794456360514863,0.025534438298124316,0.022177903531349484
0.24273723984142714,0.035133021555996034,0.0031939110505450944,0.0,0.3255318063257749,0.47952899924285824,0.025565507070650913,0.022213339057973215
0.060684309960356786,0.05749039890981169,0.02235737735381566,0.012775644202180378,0.32563246302289894,0.4796173623349078,0.025596976624449,0.022249091323493304
-0.12775644202180375,0.04471475470763132,0.012775644202180378,-0.006387822101090189,0.32573640345727717,0.47971070363567825,0.025628845774608843,0.022285158146302903
-0.12456253097125865,0.14372599727452925,-0.02235737735381566,-0.01596955525272547,0.3258436258040875,0.4798090005379166,0.025661113245297455,0.0223215372555256
0.047908665758176414,0.24273723984142714,-0.006387822101090189,0.009581733151635281,0.32595412758654585,0.4799122297550958,0.025693777689551615,0.02235822630088778
0.07984777626362735,0.20121639618434092,-0.035133021555996034,-0.028745199454905845,0.32606790563221044,0.4800203677436943,0.025726837691987733,0.022395222868421886
0.08623559836471753,0.13733817517343905,-0.05110257680872151,-0.04471475470763132,0.32618495601397307,0.48013339104149705,0.02576029180334108,0.0224325245138641
-0.03193911050545094,-0.08942950941526263,-0.012775644202180378,-0.035133021555996034,0.32630527402353127,0.48025127624037817,0.025794138616373342,0.02247012882062989
-0.019163466303270562,0.038326932606541124,-0.02235737735381566,-0.009581733151635281,0.3264288541470066,0.48037399967523625,0.025828376791904438,0.022508033437706316
-0.17247119672943506,-0.21718595143706637,-0.028745199454905845,-0.019163466303270562,0.3265556900346195,0.4805015371551811,0.025863005008944437,0.022546236053529938
-0.18524684093161545,-0.1596955525272547,-0.047908665758176414,-0.006387822101090189,0.32668577459826675,0.4806338640148956,0.02589802194582246,0.022584734339188953
0.2619007061446977,-0.2555128840436075,-0.038326932606541124,0.0031939110505450944,0.3268191002598818,0.48077095542952325,0.025933426335413075,0.02262352590810205
0.3449423934588701,0.14053208622398414,-0.025551288404360755,-0.0031939110505450944,0.32695565922723746,0.48091278668017023,0.025969217016102154,0.022662608288323012
0.306615460852329,0.24593115089197226,0.009581733151635281,-0.025551288404360755,0.3270954437378932,0.48105933322793276,0.02600539290811897,0.022701978909661184
0.12456253097125865,-0.05110257680872151,0.02235737735381566,-0.0031939110505450944,0.3272384461791183,0.4812105706495588,0.02604195293490045,0.022741635120926845
-0.1565016414767096,-0.18844075198216054,0.006387822101090189,-0.012775644202180378,0.32738465895366403,0.4813664744684337,0.02607889595915181,0.02278157421049585
-0.19163466303270565,-0.08623559836471753,0.0,-0.047908665758176414,0.32753407422606046,0.4815270199697622,0.026116220746789476,0.022821793418176608
-0.4631171023290387,-0.18205292988107036,0.006387822101090189,-0.012775644202180378,0.3276866838841665,0.48169218213166043,0.026153925926453218,0.022862289972008204
-0.6579456764122893,-0.23954332879088208,-0.012775644202180378,0.009581733151635281,0.32784247990502996,0.48186193571170727,0.026192009961435413,0.022903061119678166
-0.09581733151635283,-0.08304168731417244,-0.006387822101090189,0.0031939110505450944,0.3280014548614118,0.4820362554192691,0.026230471160662117,0.022944104098429664
-0.04471475470763132,0.08942950941526263,-0.006387822101090189,-0.04152084365708622,0.3281636019083741,0.4822151159193173,0.026269307697901416,0.022985416093501104
-0.012775644202180378,-0.012775644202180378,-0.028745199454905845,-0.038326932606541124,0.3283289141270739,0.48239849153619385,0.02630851762229253,0.02302699426303263
