processed_ch1,processed_ch2,processed_ch3,processed_ch4
0.225157456,0.34927791,0.012626662,0.010318194
0.22616028,0.350790077,0.012683365,0.010371246
0.227162227,0.352302634,0.012740121,0.01042439
0.228163267,0.353815532,0.01279693,0.010477626
0.229163369,0.355328722,0.012853789,0.010530952
0.230162502,0.356842153,0.012910698,0.010584368
0.231160635,0.358355775,0.012967655,0.010637872
0.232157736,0.35986954,0.01302466,0.010691465
0.233153776,0.361383397,0.013081711,0.010745146
0.234148724,0.3628973,0.013138807,0.010798913
0.23514255,0.364411199,0.013195947,0.010852766
0.236135224,0.365925048,0.013253129,0.010906703
0.237126718,0.367438796,0.013310352,0.010960724
0.238117002,0.368952397,0.013367614,0.011014829
0.239106045,0.370465802,0.013424915,0.011069014
0.240093818,0.371978966,0.013482252,0.011123281
0.241080291,0.373491841,0.013539624,0.011177627
0.242065435,0.375004382,0.01359703,0.011232052
0.243049219,0.376516544,0.013654469,0.011286554
0.244031614,0.378028283,0.013711938,0.011341133
0.24501259,0.379539557,0.013769436,0.011395788
0.245992119,0.381050322,0.013826962,0.011450518
0.246970171,0.382560537,0.013884513,0.011505322
0.247946716,0.38407016,0.013942088,0.011560198
0.248921724,0.385579151,0.013999685,0.011615145
0.249895167,0.387087467,0.014057302,0.011670163
0.250867013,0.388595067,0.014114938,0.01172525
0.251837234,0.390101913,0.014172589,0.011780405
0.2528058,0.391607962,0.014230256,0.011835627
0.253772681,0.393113176,0.014287937,0.011890915
0.254737847,0.394617514,0.01434563,0.011946267
0.255701269,0.396120936,0.014403336,0.012001684
0.256662916,0.397623402,0.014461051,0.012057163
0.25762276,0.39912487,0.014518776,0.012112704
0.258580773,0.400625299,0.01457651,0.012168305
0.259536924,0.402124649,0.01463425,0.012223965
0.260491185,0.403622877,0.014691996,0.012279683
0.26144353,0.405119942,0.014749747,0.012335457
0.262393929,0.406615799,0.014807501,0.012391287
0.263342356,0.408110405,0.014865257,0.012447171
0.264288783,0.409603716,0.014923013,0.012503107
0.265233183,0.411095689,0.014980769,0.012559094
0.26617553,0.412586278,0.015038522,0.01261513
0.267115801,0.41407544,0.015096271,0.012671214
0.268053968,0.41556313,0.015154015,0.012727344
0.268990009,0.417049305,0.015211752,0.012783518
0.269923898,0.418533921,0.01526948,0.012839735
0.27085561,0.420016934,0.0153272,0.012895993
0.27178512,0.4214983,0.015384908,0.01295229
0.272712405,0.422977974,0.015442606,0.013008624
0.273637439,0.424455913,0.01550029,0.013064995
0.274560199,0.425932071,0.015557961,0.013121401
0.27548066,0.427406405,0.015615616,0.01317784
0.276398797,0.428878869,0.015673256,0.01323431
0.277314586,0.430349419,0.015730878,0.013290811
0.278228001,0.431818007,0.015788481,0.01334734
0.279139018,0.43328459,0.015846065,0.013403896
0.280047611,0.43474912,0.015903627,0.013460476
0.280953755,0.436211551,0.015961167,0.01351708
0.281857426,0.437671837,0.016018683,0.013573706
0.282758598,0.439129933,0.016076173,0.013630351
0.283657248,0.440585792,0.016133635,0.013687015
0.284553349,0.442039367,0.016191068,0.013743696
0.285446876,0.443490612,0.01624847,0.013800392
0.286337804,0.44493948,0.016305839,0.013857101
0.287226108,0.446385925,0.016363173,0.013913821
0.28811176,0.447829898,0.016420469,0.013970551
0.288994737,0.449271355,0.016477727,0.014027288
0.289875011,0.450710247,0.016534944,0.01408403
0.290752557,0.452146528,0.016592119,0.014140776
0.291627349,0.453580151,0.016649251,0.014197522
0.29249936,0.455011068,0.016706338,0.014254267
0.293368565,0.456439234,0.016763378,0.014311009
0.294234938,0.457864601,0.01682037,0.014367746
0.295098453,0.459287125,0.016877313,0.014424475
0.295959085,0.460706758,0.016934205,0.014481197
0.296816811,0.462123454,0.016991045,0.014537908
0.297671611,0.463537166,0.01704783,0.014594609
0.298523461,0.464947847,0.01710456,0.014651296
0.299372343,0.466355452,0.017161233,0.01470797
0.300218237,0.467759935,0.017217847,0.014764627
0.301061123,0.469161252,0.0172744,0.014821267
0.301900982,0.470559358,0.017330892,0.014877888
0.302737794,0.471954208,0.01738732,0.014934489
0.303571538,0.473345759,0.017443684,0.014991067
0.304402196,0.474733965,0.017499982,0.015047622
0.305229747,0.476118785,0.017556213,0.015104151
0.306054173,0.477500177,0.017612377,0.015160654
0.306875453,0.4788781,0.017668471,0.015217128
0.307693569,0.480252515,0.017724495,0.015273572
0.308508502,0.481623385,0.017780447,0.015329984
0.309320235,0.482990674,0.017836326,0.015386363
0.310128748,0.484354347,0.01789213,0.015442707
0.310934024,0.48571437,0.01794786,0.015499015
0.311736044,0.487070709,0.018003512,0.015555284
0.312534793,0.488423331,0.018059086,0.015611514
0.31333025,0.489772202,0.018114581,0.015667703
0.3141224,0.491117288,0.018169995,0.015723849
0.314911224,0.492458557,0.018225328,0.015779952
0.315696704,0.493795977,0.018280578,0.015836009
0.316478822,0.495129516,0.018335745,0.015892019
0.317257561,0.496459141,0.018390828,0.015947981
0.318032901,0.49778482,0.018445827,0.016003893
0.318804827,0.499106521,0.018500741,0.016059753
0.31957332,0.500424212,0.018555569,0.016115559
0.320338365,0.501737862,0.01861031,0.01617131
0.321099946,0.50304744,0.018664963,0.016227003
0.321858046,0.504352913,0.018719529,0.016282636
0.322612651,0.505654251,0.018774004,0.016338208
0.323363743,0.506951424,0.018828389,0.016393716
0.324111308,0.5082444,0.018882684,0.016449158
0.32485533,0.509533147,0.018936886,0.016504534
0.325595792,0.510817636,0.018990997,0.01655984
0.32633268,0.512097836,0.019045016,0.016615076
0.327065978,0.513373715,0.019098941,0.016670239
0.327795671,0.514645243,0.019152772,0.016725329
0.328521744,0.515912388,0.019206509,0.016780344
0.329244181,0.517175121,0.019260149,0.016835281
0.329962968,0.518433408,0.019313693,0.016890139
0.330678089,0.51968722,0.019367139,0.016944916
0.331389529,0.520936525,0.019420488,0.016999611
0.332097273,0.522181291,0.019473737,0.017054221
0.332801306,0.523421488,0.019526887,0.017108745
0.333501611,0.524657085,0.019579936,0.017163181
0.334198174,0.52588805,0.019632885,0.017217527
0.334890978,0.527114351,0.019685731,0.017271782
0.33558001,0.528335959,0.019738475,0.017325942
0.336265254,0.529552841,0.019791115,0.017380008
0.336946697,0.530764968,0.019843651,0.017433977
0.337624324,0.531972309,0.01989608,0.017487848
0.338298124,0.533174833,0.019948403,0.017541618
0.338968082,0.534372511,0.020000617,0.017595286
0.339634186,0.535565311,0.020052723,0.017648851
0.340296422,0.536753205,0.020104718,0.017702309
0.340954777,0.537936162,0.020156601,0.01775566
0.341609238,0.539114152,0.020208372,0.017808901
0.342259792,0.540287144,0.020260031,0.017862031
0.342906424,0.541455108,0.020311575,0.017915046
0.343549122,0.542618014,0.020363005,0.017967945
0.344187873,0.543775832,0.02041432,0.018020727
0.344822664,0.544928531,0.020465519,0.01807339
0.345453485,0.546076083,0.020516602,0.018125932
0.346080327,0.547218458,0.020567569,0.01817835
0.346703179,0.548355629,0.020618418,0.018230644
0.347322035,0.549487567,0.020669149,0.018282811
0.347936886,0.550614244,0.020719762,0.01833485
0.348547727,0.551735631,0.020770255,0.018386759
0.349154552,0.552851702,0.020820629,0.018438535
0.349757353,0.553962426,0.020870883,0.018490178
0.350356125,0.555067779,0.020921015,0.018541685
0.350950861,0.556167734,0.020971027,0.018593054
0.351541553,0.557262268,0.021020917,0.018644284
0.352128195,0.558351358,0.021070686,0.018695373
0.352710782,0.559434982,0.021120333,0.018746318
0.353289308,0.560513116,0.021169858,0.018797118
0.353863767,0.561585737,0.021219261,0.018847772
0.354434155,0.562652823,0.021268542,0.018898277
0.355000469,0.563714348,0.021317701,0.018948631
0.355562704,0.564770291,0.021366737,0.018998833
0.356120859,0.565820628,0.02141565,0.019048882
0.356674929,0.566865337,0.021464439,0.019098774
0.357224914,0.567904393,0.021513105,0.019148508
0.357770811,0.568937774,0.021561647,0.019198083
0.358312618,0.569965458,0.021610063,0.019247496
0.358850333,0.57098742,0.021658354,0.019296746
0.359383954,0.572003639,0.021706518,0.019345831
0.35991348,0.573014091,0.021754555,0.01939475
0.360438909,0.574018753,0.021802465,0.019443501
0.360960241,0.575017602,0.021850247,0.019492082
0.361477476,0.576010613,0.021897899,0.019540491
0.361990612,0.576997763,0.021945422,0.019588726
0.362499649,0.577979027,0.021992815,0.019636786
0.363004586,0.578954381,0.022040077,0.019684669
0.363505422,0.579923802,0.022087208,0.019732373
0.364002156,0.580887264,0.022134207,0.019779895
0.36449479,0.581844744,0.022181076,0.019827235
0.364983322,0.582796218,0.022227812,0.019874389
0.365467755,0.583741662,0.022274416,0.019921357
0.36594809,0.584681051,0.022320888,0.019968135
0.36642433,0.585614362,0.022367226,0.020014723
0.366896478,0.586541571,0.02241343,0.020061118
0.367364539,0.587462655,0.0224595,0.020107318
0.367828519,0.588377593,0.022505435,0.020153322
0.368288422,0.589286361,0.022551234,0.020199129
0.368744258,0.590188936,0.022596895,0.020244736
0.369196031,0.591085296,0.022642418,0.020290141
0.369643751,0.591975418,0.022687801,0.020335343
0.370087426,0.592859279,0.022733045,0.02038034
0.370527066,0.593736855,0.022778146,0.020425131
0.37096268,0.594608123,0.022823106,0.020469713
0.371394277,0.59547306,0.022867923,0.020514085
0.371821867,0.596331643,0.022912596,0.020558245
0.37224546,0.597183851,0.022957124,0.020602192
0.372665064,0.598029664,0.023001506,0.020645923
0.373080688,0.598869063,0.02304574,0.020689437
0.37349234,0.599702026,0.023089827,0.020732732
0.37390003,0.600528536,0.023133764,0.020775808
0.374303766,0.601348571,0.023177551,0.020818663
0.374703554,0.602162112,0.023221188,0.020861295
0.375099403,0.602969139,0.023264673,0.020903703
0.37549132,0.603769632,0.023308005,0.020945886
0.375879312,0.604563571,0.023351184,0.020987842
0.376263386,0.605350936,0.023394209,0.021029571
0.376643547,0.606131708,0.023437079,0.02107107
0.377019804,0.606905866,0.023479793,0.021112339
0.377392161,0.607673392,0.02352235,0.021153378
0.377760627,0.608434266,0.023564749,0.021194184
0.378125209,0.609188468,0.023606988,0.021234758
0.378485911,0.609935981,0.023649067,0.021275098
0.378842742,0.610676785,0.023690985,0.021315205
0.379195708,0.611410863,0.023732739,0.021355077
0.379544814,0.612138197,0.02377433,0.021394713
0.379890068,0.61285877,0.023815754,0.021434114
0.380231474,0.613572567,0.023857011,0.021473278
0.380569039,0.614279572,0.023898099,0.021512206
0.380902768,0.614979771,0.023939017,0.021550895
0.381232668,0.615673152,0.023979762,0.021589347
0.381558745,0.616359702,0.024020334,0.02162756
0.381881004,0.617039413,0.024060732,0.021665533
0.382199453,0.617712281,0.024100954,0.021703265
0.382514099,0.6183783,0.024140999,0.021740756
0.382824949,0.619037472,0.024180867,0.021778006
0.38313201,0.619689795,0.024220557,0.021815013
0.383435288,0.62033527,0.024260068,0.021851776
0.383734792,0.620973898,0.024299399,0.021888297
0.384030527,0.62160568,0.024338549,0.021924573
0.384322501,0.622230615,0.024377517,0.021960604
0.384610721,0.622848703,0.024416302,0.021996389
0.384895193,0.623459943,0.024454903,0.022031929
0.385175925,0.624064335,0.024493318,0.022067221
0.385452922,0.624661877,0.024531546,0.022102267
0.385726191,0.625252569,0.024569585,0.022137065
0.385995736,0.625836413,0.024607436,0.022171615
0.386261564,0.626413411,0.024645095,0.022205917
0.386523681,0.626983566,0.024682563,0.02223997
0.38678209,0.627546882,0.024719837,0.022273773
0.387036797,0.628103367,0.024756918,0.022307326
0.387287808,0.628653026,0.024793803,0.022340629
0.387535128,0.629195866,0.024830493,0.022373681
0.387778763,0.629731894,0.024866986,0.022406483
0.388018721,0.630261115,0.024903281,0.022439033
0.38825501,0.630783536,0.024939377,0.022471331
0.388487639,0.631299163,0.024975273,0.022503378
0.388716617,0.631807999,0.025010968,0.022535172
0.388941953,0.632310051,0.025046459,0.022566713
0.38916366,0.632805322,0.025081747,0.022598
0.389381745,0.633293819,0.025116829,0.022629034
0.38959622,0.633775545,0.025151705,0.022659813
0.389807096,0.634250507,0.025186375,0.022690337
0.390014384,0.634718708,0.025220838,0.022720606
0.390218096,0.635180151,0.025255093,0.022750619
0.390418243,0.635634841,0.02528914,0.022780377
0.390614839,0.636082781,0.025322978,0.022809879
0.390807896,0.636523975,0.025356606,0.022839124
0.390997428,0.636958428,0.025390025,0.022868113
0.391183447,0.637386143,0.025423232,0.022896845
0.391365967,0.637807127,0.025456227,0.02292532
0.391544999,0.638221384,0.02548901,0.022953538
0.391720557,0.63862892,0.025521578,0.022981499
0.391892652,0.639029741,0.025553932,0.023009202
0.392061298,0.639423853,0.02558607,0.023036648
0.392226508,0.639811262,0.025617992,0.023063836
0.392388293,0.640191974,0.025649697,0.023090767
0.392546666,0.640565998,0.025681183,0.023117439
0.392701639,0.640933341,0.025712452,0.023143853
0.392853225,0.641294012,0.0257435,0.02317001
0.393001434,0.641648019,0.025774328,0.023195908
0.393146278,0.64199537,0.025804934,0.023221549
0.393287767,0.642336075,0.025835319,0.023246932
0.393425912,0.64267014,0.02586548,0.023272056
0.393560723,0.642997576,0.025895417,0.023296923
0.393692209,0.64331839,0.02592513,0.023321532
0.393820382,0.643632591,0.025954617,0.023345883
0.393945251,0.643940187,0.025983877,0.023369975
0.394066829,0.644241188,0.02601291,0.023393808
0.394185125,0.644535603,0.026041715,0.023417383
0.394300154,0.64482344,0.026070291,0.023440698
0.394411925,0.645104708,0.026098636,0.023463753
0.394520452,0.645379417,0.026126752,0.023486548
0.394625747,0.645647574,0.026154635,0.023509083
0.394727823,0.64590919,0.026182285,0.023531358
0.394826693,0.646164276,0.026209701,0.023553371
0.394922369,0.646412843,0.026236882,0.023575123
0.395014867,0.646654906,0.026263826,0.023596613
0.395104199,0.646890477,0.026290533,0.023617841
0.395190379,0.64711957,0.026317002,0.023638807
0.39527342,0.647342199,0.026343231,0.023659511
0.395353338,0.647558378,0.026369219,0.023679953
0.395430146,0.64776812,0.026394966,0.023700133
0.395503859,0.64797144,0.026420469,0.023720051
0.395574491,0.648168351,0.026445728,0.023739706
0.395642057,0.648358868,0.026470742,0.023759099
0.395706572,0.648543005,0.026495508,0.02377823
0.395768053,0.648720776,0.026520026,0.023797097
0.395826516,0.648892195,0.026544296,0.023815703
0.395881976,0.649057276,0.026568316,0.023834047
0.39593445,0.649216031,0.026592085,0.023852128
0.395983954,0.649368473,0.026615604,0.023869948
0.396030506,0.649514616,0.026638872,0.023887507
0.396074121,0.649654472,0.026661888,0.023904805
0.396114814,0.649788053,0.026684651,0.023921842
0.396152602,0.649915369,0.026707162,0.023938619
0.396187498,0.650036432,0.02672942,0.023955135
0.396219518,0.650151254,0.026751424,0.023971392
0.396248676,0.650259847,0.026773173,0.02398739
0.396274986,0.650362222,0.026794667,0.024003127
0.396298462,0.650458391,0.026815905,0.024018606
0.396319119,0.650548369,0.026836887,0.024033824
0.396336968,0.650632168,0.026857612,0.024048784
0.396352025,0.650709801,0.026878079,0.024063483
0.396364301,0.650781281,0.026898288,0.024077923
0.396373811,0.650846619,0.026918238,0.024092104
0.396380566,0.65090583,0.02693793,0.024106024
0.396384578,0.650958925,0.026957363,0.024119685
0.396385861,0.651005916,0.026976536,0.024133086
0.396384424,0.651046815,0.026995449,0.024146226
0.396380281,0.651081632,0.027014102,0.024159107
0.396373443,0.65111038,0.027032494,0.024171728
0.396363923,0.651133068,0.027050626,0.024184089
0.396351733,0.651149708,0.027068497,0.024196191
0.396336889,0.651160312,0.027086107,0.024208033
0.396319403,0.65116489,0.027103455,0.024219617
0.39629929,0.651163455,0.027120542,0.024230941
0.396276568,0.651156017,0.027137367,0.024242007
0.396251251,0.651142588,0.02715393,0.024252815
0.396223355,0.65112318,0.02717023,0.024263365
0.396192897,0.651097803,0.027186267,0.024273656
0.39615989,0.651066469,0.027202041,0.02428369
0.396124351,0.65102919,0.02721755,0.024293466
0.396086295,0.650985982,0.027232794,0.024302985
0.396045738,0.650936856,0.027247774,0.024312245
0.396002694,0.650881829,0.027262487,0.024321249
0.39595718,0.650820918,0.027276935,0.024329996
0.39590921,0.650754141,0.027291116,0.024338486
0.395858798,0.65068152,0.027305032,0.02434672
0.395805959,0.650603077,0.027318681,0.024354698
0.395750707,0.650518833,0.027332065,0.024362421
0.395693055,0.650428811,0.027345184,0.024369888
0.395633018,0.650333035,0.027358037,0.024377101
0.395570611,0.650231529,0.027370626,0.024384059
0.395505847,0.650124314,0.02738295,0.024390763
0.395438741,0.650011414,0.027395009,0.024397213
0.395369306,0.649892851,0.027406804,0.02440341
0.395297556,0.649768648,0.027418334,0.024409354
0.395223505,0.649638829,0.0274296,0.024415045
0.395147163,0.649503416,0.027440603,0.024420483
0.395068545,0.649362431,0.027451341,0.024425668
0.394987662,0.649215898,0.027461815,0.024430601
0.394904525,0.649063837,0.027472026,0.024435282
0.394819146,0.648906271,0.027481973,0.024439712
0.394731537,0.64874322,0.027491657,0.02444389
0.394641709,0.648574707,0.027501079,0.024447818
0.394549676,0.648400752,0.027510238,0.024451494
0.394455448,0.648221377,0.027519135,0.02445492
0.394359038,0.648036602,0.02752777,0.024458095
0.39426046,0.647846449,0.027536142,0.024461019
0.394159729,0.647650939,0.027544253,0.024463693
0.394056858,0.647450093,0.027552102,0.024466117
0.393951864,0.647243931,0.027559689,0.02446829
0.393844761,0.647032473,0.027567014,0.024470213
0.393735564,0.646815741,0.027574078,0.024471884
0.393624288,0.646593753,0.027580881,0.024473306
0.393510946,0.64636653,0.027587423,0.024474477
0.393395552,0.646134091,0.027593705,0.024475399
0.39327812,0.645896456,0.027599728,0.02447607
0.393158662,0.645653644,0.027605492,0.024476493
0.393037193,0.645405675,0.027610998,0.024476667
0.392913729,0.645152568,0.027616248,0.024476592
0.392788283,0.644894344,0.027621241,0.024476269
0.392660871,0.644631023,0.02762598,0.024475698
0.392531508,0.644362625,0.027630465,0.02447488
0.392400209,0.644089172,0.027634697,0.024473814
0.392266992,0.643810685,0.027638677,0.024472502
0.392131871,0.643527185,0.027642405,0.024470944
0.391994861,0.643238694,0.027645883,0.024469141
0.391855979,0.642945231,0.027649112,0.024467093
0.391715238,0.64264682,0.027652091,0.0244648
0.391572652,0.64234348,0.027654822,0.024462264
0.391428238,0.642035233,0.027657304,0.024459485
0.391282007,0.6417221,0.02765954,0.024456464
0.391133975,0.641404101,0.027661528,0.024453201
0.390984154,0.641081256,0.02766327,0.024449697
0.390832558,0.640753587,0.027664766,0.024445951
0.390679201,0.640421113,0.027666016,0.024441966
0.390524096,0.640083857,0.027667022,0.024437741
0.390367257,0.639741839,0.027667784,0.024433276
0.390208697,0.63939508,0.027668303,0.024428572
0.390048431,0.639043604,0.027668578,0.024423629
0.389886472,0.638687433,0.027668612,0.024418449
0.389722834,0.63832659,0.027668405,0.024413031
0.38955753,0.637961099,0.027667958,0.024407377
0.389390574,0.637590981,0.027667274,0.024401487
0.38922198,0.637216261,0.027666353,0.024395362
0.389051762,0.63683696,0.027665198,0.024389004
0.388879932,0.6364531,0.027663809,0.024382413
0.388706506,0.636064706,0.027662188,0.02437559
0.388531494,0.635671799,0.027660336,0.024368536
0.388354911,0.635274402,0.027658254,0.024361252
0.388176767,0.63487254,0.027655944,0.024353739
0.387997075,0.634466233,0.027653407,0.024345997
0.387815845,0.634055506,0.027650644,0.024338027
0.387633088,0.63364038,0.027647657,0.024329831
0.387448815,0.633220881,0.027644446,0.024321408
0.387263035,0.632797033,0.027641013,0.02431276
0.387075758,0.63236886,0.027637359,0.024303888
0.386886993,0.631936389,0.027633486,0.024294793
0.386696751,0.631499645,0.027629394,0.024285476
0.386505041,0.631058652,0.027625087,0.024275938
0.38631187,0.630613436,0.027620563,0.024266181
0.386117249,0.630164022,0.027615826,0.024256204
0.385921185,0.629710432,0.027610875,0.02424601
0.385723687,0.629252692,0.027605712,0.024235599
0.385524762,0.628790822,0.027600338,0.024224972
0.385324417,0.628324847,0.027594754,0.024214129
0.385122661,0.627854788,0.027588961,0.024203073
0.384919501,0.627380668,0.027582961,0.024191803
0.384714945,0.62690251,0.027576753,0.02418032
0.384509,0.626420338,0.02757034,0.024168626
0.384301675,0.625934175,0.027563722,0.024156722
0.384092978,0.625444045,0.027556901,0.024144607
0.383882915,0.624949974,0.027549878,0.024132284
0.383671495,0.624451985,0.027542653,0.024119754
0.383458725,0.623950102,0.027535228,0.024107017
0.383244615,0.623444349,0.027527605,0.024094074
0.383029171,0.622934751,0.027519783,0.024080927
0.382812404,0.622421333,0.027511765,0.024067576
0.382594319,0.621904119,0.027503551,0.024054021
0.382374927,0.621383134,0.027495142,0.024040265
0.382154235,0.620858404,0.027486541,0.024026307
0.381932253,0.620329952,0.027477747,0.024012148
0.38170899,0.619797807,0.027468761,0.02399779
0.381484454,0.619261994,0.027459586,0.023983234
0.381258653,0.618722539,0.027450221,0.02396848
0.381031597,0.618179469,0.027440669,0.02395353
0.380803293,0.617632808,0.027430929,0.023938385
0.380573751,0.617082583,0.027421003,0.023923046
0.38034298,0.616528819,0.027410892,0.023907514
0.38011099,0.615971542,0.027400596,0.02389179
0.379877793,0.615410778,0.027390116,0.023875874
0.379643399,0.614846552,0.027379454,0.023859769
0.379407817,0.614278891,0.02736861,0.023843476
0.379171058,0.613707822,0.027357584,0.023826996
0.378933133,0.61313337,0.027346379,0.023810331
0.378694051,0.612555561,0.027334995,0.023793483
0.378453821,0.611974421,0.027323434,0.023776455
0.378212454,0.611389975,0.027311697,0.023759248
0.377969958,0.610802251,0.027299785,0.023741865
0.377726342,0.610211275,0.027287701,0.023724308
0.377481616,0.609617075,0.027275445,0.023706578
0.37723579,0.609019682,0.027263018,0.023688678
0.376988871,0.608419125,0.027250423,0.023670609
0.376740868,0.607815437,0.027237661,0.023652375
0.376491789,0.607208652,0.027224733,0.023633976
0.376241643,0.606598803,0.02721164,0.023615416
0.375990437,0.605985925,0.027198384,0.023596696
0.375738178,0.605370054,0.027184966,0.02357782
0.375484873,0.604751225,0.027171388,0.023558789
0.37523053,0.604129473,0.027157651,0.023539607
0.374975153,0.603504836,0.027143756,0.023520275
0.37471875,0.60287735,0.027129707,0.023500798
0.374461327,0.602247052,0.027115503,0.023481176
0.37420289,0.60161398,0.027101147,0.023461413
0.373943445,0.600978172,0.027086641,0.023441511
0.373682999,0.600339666,0.027071986,0.023421473
0.373421558,0.599698502,0.027057184,0.023401302
0.37315913,0.599054719,0.027042236,0.023381
0.372895721,0.598408359,0.027027143,0.02336057
0.372631338,0.59775946,0.027011907,0.023340016
0.372365986,0.597108065,0.026996529,0.023319339
0.372099673,0.596454213,0.02698101,0.023298543
0.371832404,0.595797944,0.026965352,0.02327763
0.371564186,0.595139299,0.026949555,0.023256602
0.371295024,0.594478319,0.026933621,0.023235463
0.371024925,0.593815042,0.02691755,0.023214215
0.370753896,0.593149511,0.026901345,0.02319286
0.370481942,0.592481764,0.026885007,0.023171402
0.370209073,0.591811842,0.026868538,0.023149842
0.369935295,0.591139783,0.02685194,0.023128183
0.369660617,0.590465626,0.026835213,0.023106428
0.36938505,0.589789411,0.02681836,0.023084579
0.369108605,0.589111174,0.026801382,0.023062638
0.368831294,0.588430954,0.026784282,0.023040609
0.368553128,0.587748787,0.02676706,0.023018493
0.36827412,0.587064711,0.026749718,0.022996293
0.367994282,0.586378762,0.026732258,0.022974011
0.367713625,0.585690977,0.026714682,0.022951649
0.367432161,0.585001396,0.02669699,0.022929211
0.367149903,0.58431006,0.026679184,0.022906697
0.366866861,0.583617012,0.026661267,0.022884111
0.366583049,0.582922298,0.026643238,0.022861456
0.36629848,0.582225966,0.0266251,0.022838734
0.366013167,0.581528065,0.026606855,0.022815947
0.365727124,0.580828648,0.026588502,0.0227931
0.365440364,0.580127768,0.026570045,0.022770195
0.3651529,0.579425482,0.026551484,0.022747234
0.364864745,0.578721845,0.026532821,0.022724221
0.364575915,0.578016918,0.026514058,0.022701159
0.364286422,0.577310757,0.026495196,0.02267805
0.363996282,0.576603424,0.026476238,0.022654899
0.363705509,0.575894975,0.026457185,0.022631708
0.363414121,0.575185471,0.026438039,0.022608482
0.363122131,0.574474968,0.026418803,0.022585222
0.362829559,0.573763527,0.026399477,0.022561933
0.36253642,0.573051204,0.026380065,0.022538618
0.362242733,0.572338059,0.026360568,0.022515278
0.361948519,0.571624154,0.026340991,0.022491917
0.361653796,0.570909549,0.026321333,0.022468539
0.361358586,0.570194306,0.0263016,0.022445145
0.361062911,0.569478489,0.026281792,0.022421739
0.360766794,0.568762159,0.026261912,0.022398323
0.360470258,0.568045379,0.026241964,0.022374901
0.360173324,0.56732821,0.026221951,0.022351476
0.359876014,0.566610713,0.026201875,0.022328049
0.359578352,0.565892947,0.026181739,0.022304625
0.359280357,0.565174972,0.026161548,0.022281206
0.358982052,0.564456847,0.026141305,0.022257794
0.35868346,0.563738629,0.026121013,0.022234393
0.358384604,0.563020376,0.026100677,0.022211005
0.358085505,0.562302143,0.0260803,0.022187634
0.357786189,0.561583988,0.026059887,0.022164281
0.357486679,0.560865964,0.02603944,0.022140951
0.357186996,0.560148126,0.026018964,0.022117645
0.356887166,0.559430527,0.025998464,0.022094366
0.35658721,0.558713222,0.025977941,0.022071117
0.356287151,0.557996261,0.025957402,0.022047902
0.355987014,0.557279699,0.025936849,0.022024722
0.355686821,0.556563588,0.025916286,0.022001581
0.355386599,0.555847981,0.025895717,0.021978482
0.355086374,0.555132932,0.025875146,0.021955427
0.35478617,0.554418495,0.025854577,0.02193242
0.354486017,0.553704725,0.025834013,0.021909463
0.35418594,0.552991676,0.025813458,0.02188656
0.353885969,0.552279402,0.025792916,0.021863713
0.353586132,0.551567956,0.025772391,0.021840925
0.353286459,0.550857392,0.025751887,0.021818199
0.352986979,0.550147759,0.025731406,0.021795538
0.352687721,0.54943911,0.025710954,0.021772944
0.352388715,0.548731492,0.025690533,0.021750421
0.352089988,0.548024953,0.025670146,0.021727971
0.35179157,0.54731954,0.025649798,0.021705598
0.351493489,0.546615298,0.025629491,0.021683304
0.351195773,0.545912273,0.025609229,0.021661091
0.350898451,0.545210509,0.025589014,0.021638964
0.35060155,0.544510054,0.02556885,0.021616925
0.3503051,0.54381095,0.025548739,0.021594976
0.350009127,0.543113245,0.025528684,0.021573122
0.349713662,0.542416984,0.025508688,0.021551364
0.349418733,0.541722213,0.025488754,0.021529706
0.349124368,0.54102898,0.025468884,0.021508152
0.348830598,0.540337331,0.025449082,0.021486705
0.348537451,0.539647314,0.025429352,0.021465367
0.348244957,0.538958979,0.025409697,0.021444143
0.347953147,0.538272375,0.025390121,0.021423035
0.347662051,0.537587552,0.025370628,0.021402048
0.347371698,0.536904564,0.025351221,0.021381186
0.347082117,0.536223462,0.025331904,0.021360452
0.346793337,0.535544301,0.02531268,0.021339852
0.346505387,0.534867134,0.025293552,0.02131939
0.346218293,0.534192013,0.025274524,0.02129907
0.345932085,0.533518994,0.025255599,0.021278897
0.345646788,0.53284813,0.025236782,0.021258875
0.34536243,0.532179477,0.025218075,0.021239009
0.345079037,0.531513091,0.025199482,0.021219303
0.344796633,0.530849026,0.025181006,0.021199761
0.344515247,0.530187335,0.025162651,0.021180389
0.344234904,0.529528071,0.02514442,0.02116119
0.343955631,0.528871283,0.025126317,0.021142169
0.343677452,0.528217021,0.025108345,0.021123332
0.343400395,0.527565331,0.025090507,0.021104682
0.343124485,0.52691626,0.025072808,0.021086225
0.342849747,0.526269853,0.025055251,0.021067965
0.342576209,0.525626154,0.02503784,0.021049908
0.342303894,0.524985208,0.025020577,0.021032057
0.342032828,0.524347058,0.025003467,0.021014418
0.341763035,0.523711751,0.024986513,0.020996995
0.341494539,0.523079333,0.024969718,0.020979794
0.341227364,0.52244985,0.024953085,0.020962819
0.340961532,0.521823346,0.024936619,0.020946075
0.340697065,0.521199868,0.024920323,0.020929568
0.340433985,0.520579459,0.024904201,0.020913303
0.340172314,0.519962165,0.024888255,0.020897284
0.339912074,0.51934803,0.02487249,0.020881516
0.339653286,0.518737098,0.024856907,0.020866004
0.33939597,0.518129414,0.02484151,0.020850751
0.339140148,0.517525019,0.024826301,0.020835763
0.338885841,0.516923956,0.024811284,0.020821044
0.33863307,0.516326267,0.02479646,0.020806597
0.338381856,0.515731992,0.024781833,0.020792428
0.338132217,0.515141173,0.024767404,0.020778541
0.337884175,0.514553851,0.024753176,0.020764939
0.337637747,0.513970069,0.024739152,0.020751626
0.337392951,0.513389867,0.024725333,0.020738608
0.337149806,0.512813288,0.024711723,0.020725886
0.336908326,0.512240373,0.024698324,0.020713466
0.336668529,0.511671164,0.024685138,0.02070135
0.33643043,0.511105705,0.024672168,0.020689541
0.336194045,0.510544038,0.024659417,0.020678045
0.335959389,0.509986207,0.02464689,0.020666863
0.335726478,0.509432255,0.024634588,0.020656
0.335495328,0.508882226,0.024622516,0.020645459
0.335265958,0.508336164,0.024610676,0.020635242
0.335038384,0.507794113,0.024599073,0.020625353
0.334812625,0.507256119,0.024587708,0.020615795
0.334588699,0.506722224,0.024576586,0.020606571
0.334366623,0.506192472,0.024565708,0.020597683
0.334146415,0.505666903,0.024555077,0.020589135
0.333928091,0.505145558,0.024544696,0.020580928
0.333711669,0.504628476,0.024534566,0.020573065
0.333497165,0.504115699,0.024524691,0.020565549
0.333284598,0.503607267,0.024515071,0.020558381
0.333073986,0.50310322,0.024505709,0.020551563
0.332865349,0.502603598,0.024496607,0.020545098
0.332658705,0.50210844,0.024487767,0.020538987
0.332454073,0.501617785,0.024479192,0.020533234
0.33225147,0.501131668,0.024470885,0.020527839
0.332050917,0.500650125,0.024462848,0.020522807
0.331852429,0.500173191,0.024455084,0.020518139
0.331656027,0.499700902,0.024447596,0.020513839
0.331461728,0.499233293,0.024440386,0.020509907
0.331269554,0.4987704,0.024433456,0.020506347
0.331079523,0.498312257,0.024426809,0.02050316
0.330891655,0.4978589,0.024420446,0.02050035
0.330705969,0.497410366,0.024414369,0.020497918
0.330522483,0.496966686,0.024408582,0.020495866
0.330341214,0.496527894,0.024403084,0.020494196
0.330162181,0.496094021,0.024397879,0.020492911
0.3299854,0.495665097,0.024392967,0.020492011
0.329810886,0.495241153,0.02438835,0.020491498
0.329638655,0.494822216,0.024384029,0.020491374
0.329468722,0.494408314,0.024380006,0.020491641
0.329301103,0.493999473,0.024376283,0.0204923
0.329135813,0.493595717,0.02437286,0.020493351
0.32897287,0.493197072,0.024369742,0.020494797
0.328812287,0.492803563,0.02436693,0.02049664
0.328654082,0.492415212,0.024364427,0.020498879
0.328498267,0.492032042,0.024362237,0.020501517
0.328344859,0.491654073,0.024360362,0.020504554
0.328193869,0.491281327,0.024358806,0.020507994
0.328045314,0.490913824,0.024357571,0.020511837
0.327899206,0.490551586,0.02435666,0.020516084
0.327755562,0.490194635,0.024356077,0.020520738
0.327614394,0.489842988,0.024355824,0.020525798
0.327475719,0.489496666,0.024355904,0.020531267
0.327339551,0.489155685,0.02435632,0.020537145
0.327205903,0.48882006,0.024357075,0.020543432
0.327074791,0.488489806,0.024358171,0.020550129
0.326946231,0.488164937,0.024359611,0.020557237
0.326820238,0.487845468,0.024361397,0.020564756
0.326696828,0.487531412,0.024363532,0.020572685
0.326576016,0.487222784,0.024366019,0.020581026
0.326457817,0.486919599,0.02436886,0.020589777
0.326342244,0.486621873,0.024372057,0.020598939
0.326229312,0.486329619,0.024375614,0.020608511
0.326119032,0.486042853,0.024379531,0.020618493
0.326011419,0.485761589,0.024383812,0.020628886
0.325906483,0.485485841,0.024388458,0.020639689
0.325804238,0.485215623,0.024393471,0.020650902
0.325704696,0.484950948,0.024398853,0.020662525
0.32560787,0.484691828,0.024404607,0.020674557
0.325513773,0.484438273,0.024410732,0.020686999
0.32542242,0.484190294,0.024417232,0.020699849
0.325333827,0.483947898,0.024424107,0.020713108
0.325248009,0.483711095,0.024431359,0.020726774
0.325164984,0.483479891,0.024438989,0.020740848
0.325084767,0.483254293,0.024446999,0.020755329
0.325007376,0.483034306,0.024455388,0.020770216
0.324932828,0.482819933,0.024464159,0.020785509
0.324861137,0.482611178,0.024473312,0.020801206
0.324792319,0.482408042,0.024482847,0.020817307
0.324726388,0.482210526,0.024492767,0.020833812
0.324663358,0.482018631,0.024503073,0.020850718
0.324603242,0.481832356,0.024513766,0.020868026
0.324546052,0.481651702,0.024524848,0.020885735
0.3244918,0.481476667,0.024536321,0.020903843
0.324440498,0.48130725,0.024548186,0.020922349
0.324392155,0.481143447,0.024560446,0.020941252
0.324346784,0.480985257,0.0245731,0.020960551
0.324304395,0.480832677,0.024586152,0.020980245
0.324264998,0.480685701,0.024599603,0.021000333
0.324228603,0.480544327,0.024613453,0.021020813
0.324195222,0.480408551,0.024627705,0.021041683
0.324164865,0.480278367,0.02464236,0.021062943
0.324137543,0.48015377,0.02465742,0.021084591
0.324113267,0.480034752,0.024672886,0.021106624
0.324092046,0.479921306,0.024688757,0.021129042
0.324073888,0.479813423,0.024705036,0.021151842
0.324058804,0.479711094,0.024721723,0.021175023
0.324046799,0.47961431,0.024738818,0.021198584
0.324037881,0.479523062,0.024756321,0.021222521
0.324032057,0.47943734,0.024774235,0.021246835
0.324029336,0.479357134,0.024792559,0.021271523
0.324029724,0.479282434,0.024811295,0.021296584
0.324033232,0.479213228,0.024830443,0.021322016
0.32403987,0.479149505,0.024850005,0.021347817
0.324049648,0.479091254,0.02486998,0.021373986
0.324062579,0.479038463,0.02489037,0.021400521
0.324078673,0.478991117,0.024911175,0.021427422
0.324097939,0.478949203,0.024932396,0.021454687
0.324120388,0.478912705,0.024954032,0.021482313
0.324146029,0.478881609,0.024976084,0.021510299
0.324174873,0.478855898,0.024998552,0.021538643
0.324206929,0.478835557,0.025021436,0.021567345
0.324242207,0.478820569,0.025044735,0.021596401
0.324280716,0.478810914,0.025068449,0.02162581
0.324322462,0.478806576,0.025092577,0.02165557
0.324367453,0.478807536,0.025117118,0.02168568
0.324415696,0.478813774,0.025142072,0.021716137
0.324467195,0.478825272,0.025167438,0.02174694
0.324521956,0.47884201,0.025193216,0.021778086
0.324579982,0.478863972,0.025219405,0.021809573
0.324641276,0.478891139,0.025246004,0.021841399
0.324705841,0.478923495,0.025273014,0.021873562
0.324773679,0.478961026,0.025300432,0.021906061
0.324844793,0.479003716,0.02532826,0.021938892
0.324919184,0.479051549,0.025356497,0.021972055
0.324996854,0.47910451,0.02538514,0.022005549
0.325077803,0.479162582,0.025414191,0.02203937
0.325162034,0.479225748,0.025443647,0.022073518
0.325249549,0.479293991,0.025473507,0.022107991
0.325340349,0.479367293,0.025503771,0.022142787
0.325434435,0.479445636,0.025534438,0.022177904
0.325531806,0.479528999,0.025565507,0.022213339
0.325632463,0.479617362,0.025596977,0.022249091
0.325736403,0.479710704,0.025628846,0.022285158
0.325843626,0.479809001,0.025661113,0.022321537
0.325954128,0.47991223,0.025693778,0.022358226
0.326067906,0.480020368,0.025726838,0.022395223
0.326184956,0.480133391,0.025760292,0.022432525
0.326305274,0.480251276,0.025794139,0.022470129
0.326428854,0.480374,0.025828377,0.022508033
0.32655569,0.480501537,0.025863005,0.022546236
0.326685775,0.480633864,0.025898022,0.022584734
0.3268191,0.480770955,0.025933426,0.022623526
0.326955659,0.480912787,0.025969217,0.022662608
0.327095444,0.481059333,0.026005393,0.022701979
0.327238446,0.481210571,0.026041953,0.022741635
0.327384659,0.481366474,0.026078896,0.022781574
0.327534074,0.48152702,0.026116221,0.022821793
0.327686684,0.481692182,0.026153926,0.02286229
0.32784248,0.481861936,0.02619201,0.022903061
0.328001455,0.482036255,0.026230471,0.022944104
0.328163602,0.482215116,0.026269308,0.022985416
0.328328914,0.482398492,0.026308518,0.023026994
0.328497384,0.482586356,0.026348099,0.023068836
0.328669003,0.482778682,0.026388049,0.023110938
0.328843762,0.482975442,0.026428367,0.023153298
0.329021653,0.483176607,0.02646905,0.023195913
0.329202664,0.483382151,0.026510096,0.023238781
0.329386786,0.483592046,0.026551503,0.023281899
0.329574007,0.483806263,0.026593269,0.023325264
0.329764317,0.484024776,0.026635392,0.023368873
0.329957702,0.484247555,0.026677871,0.023412725
0.330154151,0.484474572,0.026720702,0.023456816
0.330353651,0.484705799,0.026763885,0.023501145
0.330556189,0.484941206,0.026807417,0.023545707
0.330761754,0.485180768,0.026851297,0.023590502
0.330970333,0.485424459,0.026895522,0.023635526
0.331181912,0.485672257,0.02694009,0.023680776
0.331396482,0.485924137,0.026985,0.023726251
0.33161403,0.48618008,0.027030248,0.023771947
0.331834544,0.486440068,0.027075833,0.023817863
0.332058015,0.486704084,0.027121754,0.023863996
0.332284429,0.486972112,0.027168007,0.023910344
0.332513775,0.487244137,0.02721459,0.023956905
0.332746038,0.487520143,0.027261503,0.024003676
0.332981205,0.487800116,0.027308743,0.024050655
0.333219263,0.488084042,0.02735631,0.02409784
0.333460197,0.488371907,0.027404201,0.024145228
0.333703994,0.488663695,0.027452415,0.024192818
0.333950638,0.48895939,0.027500951,0.024240607
0.334200116,0.489258975,0.027549805,0.024288593
0.334452413,0.489562432,0.027598978,0.024336774
0.334707513,0.489869743,0.027648466,0.024385147
0.3349654,0.490180888,0.027698268,0.02443371
0.33522606,0.490495849,0.027748382,0.024482461
0.335489476,0.490814607,0.027798806,0.024531396
0.335755634,0.491137146,0.027849537,0.024580513
0.336024517,0.491463451,0.027900575,0.024629809
0.336296111,0.491793507,0.027951916,0.024679282
0.336570399,0.492127302,0.028003559,0.024728929
0.336847364,0.492464822,0.028055502,0.024778748
0.337126991,0.492806054,0.028107743,0.024828737
0.337409264,0.493150985,0.028160281,0.024878893
0.337694166,0.493499599,0.028213113,0.024929215
0.337981682,0.493851882,0.028266238,0.0249797
0.338271794,0.494207817,0.028319654,0.025030345
0.338564485,0.49456739,0.028373359,0.025081147
0.338859737,0.494930582,0.028427353,0.025132105
0.339157533,0.495297379,0.028481634,0.025183215
0.339457854,0.495667764,0.028536201,0.025234475
0.339760683,0.496041724,0.028591053,0.025285882
0.340066001,0.496419245,0.02864619,0.025337433
0.34037379,0.496800314,0.02870161,0.025389126
0.340684032,0.497184916,0.028757313,0.025440958
0.340996708,0.497573038,0.028813297,0.025492926
0.341311798,0.497964663,0.028869561,0.025545027
0.341629286,0.498359774,0.028926103,0.025597261
0.341949152,0.498758354,0.028982923,0.025649623
0.34227138,0.499160384,0.029040018,0.025702112
0.342595949,0.499565846,0.029097387,0.025754726
0.34292284,0.499974721,0.029155027,0.025807462
0.343252035,0.500386991,0.029212937,0.025860318
0.343583515,0.500802635,0.029271115,0.025913291
0.343917261,0.501221634,0.029329559,0.025966378
0.344253255,0.501643966,0.029388266,0.026019578
0.344591482,0.502069611,0.029447234,0.026072887
0.344931925,0.502498549,0.029506461,0.026126304
0.345274566,0.502930758,0.029565944,0.026179825
0.345619388,0.503366218,0.029625681,0.02623345
0.345966375,0.503804906,0.02968567,0.026287174
0.346315509,0.504246802,0.029745908,0.026340998
0.346666773,0.504691884,0.029806391,0.026394917
0.34702015,0.505140132,0.029867118,0.026448931
0.347375622,0.505591526,0.029928085,0.026503037
0.347733171,0.506046049,0.029989289,0.026557233
0.348092778,0.506503683,0.030050728,0.026611517
0.348454427,0.506964414,0.030112397,0.026665889
0.348818098,0.507428227,0.030174295,0.026720347
0.349183772,0.507895111,0.030236416,0.026774889
0.349551431,0.508365051,0.030298759,0.026829514
0.349921055,0.508838035,0.03036132,0.02688422
0.350292623,0.509314049,0.030424096,0.026939005
0.350666113,0.509793076,0.030487085,0.026993868
0.351041505,0.510275103,0.030550284,0.027048807
0.351418775,0.510760111,0.030613691,0.02710382
0.351797903,0.511248084,0.030677302,0.027158905
0.352178865,0.511739004,0.030741116,0.027214061
0.352561639,0.512232857,0.030805129,0.027269286
0.3529462,0.512729626,0.03086934,0.027324576
0.353332525,0.513229295,0.030933744,0.027379931
0.353720591,0.513731852,0.030998338,0.027435348
0.354110375,0.514237281,0.031063121,0.027490825
0.354501855,0.51474557,0.031128089,0.02754636
0.354895012,0.515256705,0.031193239,0.02760195
0.355289824,0.515770669,0.031258567,0.027657593
0.355686273,0.516287447,0.031324072,0.027713287
0.35608434,0.516807021,0.03138975,0.02776903
0.356484007,0.517329374,0.031455598,0.027824819
0.356885258,0.517854487,0.031521613,0.027880652
0.35728808,0.518382342,0.031587791,0.027936526
0.357692458,0.518912918,0.031654129,0.02799244
0.358098379,0.519446195,0.031720624,0.02804839
0.358505829,0.51998215,0.031787272,0.028104374
0.358914792,0.520520763,0.031854069,0.02816039
0.359325253,0.521062008,0.031921013,0.028216433
0.359737198,0.521605863,0.0319881,0.028272502
0.360150608,0.522152303,0.032055325,0.028328594
0.360565469,0.522701304,0.032122686,0.028384706
0.360981762,0.52325284,0.032190179,0.028440834
0.361399471,0.523806889,0.032257799,0.028496976
0.361818578,0.524363426,0.032325543,0.028553128
0.362239063,0.524922427,0.032393406,0.028609288
0.36266091,0.525483869,0.032461386,0.028665452
0.363084099,0.526047726,0.032529479,0.028721618
0.363508612,0.526613974,0.032597682,0.028777784
0.36393443,0.527182591,0.032665993,0.028833946
0.364361535,0.527753553,0.032734409,0.028890103
0.364789907,0.528326841,0.032802929,0.028946251
0.36521953,0.528902435,0.03287155,0.029002388
0.365650385,0.529480315,0.03294027,0.029058511
0.366082454,0.530060464,0.033009087,0.029114618
0.366515718,0.530642863,0.033077999,0.029170705
0.36695016,0.531227497,0.033147003,0.029226771
0.36738576,0.531814348,0.033216098,0.029282813
0.3678225,0.532403396,0.033285281,0.029338828
0.368260362,0.532994623,0.033354549,0.029394813
0.368699329,0.533588007,0.0334239,0.029450768
0.369139383,0.534183528,0.033493331,0.029506687
0.369580507,0.534781164,0.03356284,0.029562571
0.370022682,0.535380893,0.033632424,0.029618414
0.370465892,0.535982693,0.033702081,0.029674215
0.370910118,0.536586542,0.033771808,0.029729972
0.371355344,0.537192416,0.033841602,0.02978568
0.371801553,0.537800296,0.03391146,0.029841338
0.372248728,0.538410159,0.03398138,0.029896943
0.372696853,0.539021987,0.034051359,0.029952492
0.373145912,0.539635762,0.034121393,0.030007982
0.373595886,0.540251464,0.034191481,0.030063412
0.374046759,0.540869075,0.034261618,0.030118778
0.374498511,0.541488574,0.034331801,0.03017408
0.374951123,0.542109939,0.034402027,0.030229313
0.375404576,0.542733148,0.034472293,0.030284476
0.375858851,0.543358179,0.034542596,0.030339567
0.376313927,0.543985011,0.034612934,0.030394584
0.376769785,0.544613622,0.034683304,0.030449524
0.377226405,0.545243993,0.034753705,0.030504384
0.377683769,0.545876105,0.034824135,0.030559164
0.37814186,0.546509942,0.034894593,0.030613859
0.378600666,0.54714549,0.034965075,0.030668469
0.379060173,0.547782734,0.035035583,0.030722992
0.379520371,0.548421665,0.035106113,0.030777424
0.37998125,0.549062273,0.035176664,0.030831765
0.380442802,0.54970455,0.035247236,0.030886014
0.380905016,0.550348489,0.035317826,0.030940168
0.381367885,0.55099408,0.035388434,0.030994226
0.381831396,0.551641316,0.035459056,0.031048188
0.382295541,0.552290188,0.035529692,0.031102051
0.382760307,0.552940689,0.035600339,0.031155813
0.383225684,0.55359281,0.035670995,0.031209474
0.383691659,0.554246543,0.035741658,0.031263031
0.384158223,0.55490188,0.035812326,0.031316482
0.384625364,0.555558812,0.035882997,0.031369827
0.385093072,0.55621733,0.035953669,0.031423063
0.385561338,0.556877426,0.03602434,0.031476189
0.386030152,0.557539091,0.036095009,0.031529201
0.386499504,0.558202315,0.036165675,0.0315821
0.386969385,0.558867087,0.036236335,0.031634882
0.387439785,0.559533396,0.036306988,0.031687546
0.387910694,0.560201229,0.036377632,0.031740089
0.3883821,0.560870572,0.036448266,0.03179251
0.388853992,0.561541411,0.036518888,0.031844807
0.389326358,0.562213731,0.036589496,0.031896978
0.389799185,0.562887513,0.036660087,0.03194902
0.390272459,0.563562741,0.036730659,0.032000932
0.390746168,0.564239396,0.036801211,0.032052712
0.391220298,0.564917458,0.036871739,0.032104358
0.391694836,0.565596908,0.036942242,0.032155869
0.392169768,0.566277726,0.037012716,0.032207243
0.392645083,0.566959893,0.03708316,0.032258478
0.393120767,0.567643389,0.037153571,0.032309574
0.393596807,0.568328193,0.037223947,0.03236053
0.394073188,0.569014287,0.037294285,0.032411343
0.394549895,0.569701648,0.037364583,0.032462014
0.395026915,0.570390254,0.037434838,0.032512542
0.39550423,0.571080082,0.037505048,0.032562924
0.395981825,0.571771108,0.03757521,0.03261316
0.396459684,0.572463307,0.037645322,0.032663249
0.396937788,0.573156654,0.037715382,0.032713189
0.397416122,0.573851122,0.037785387,0.03276298
0.397894667,0.574546684,0.037855336,0.032812619
0.398373405,0.575243311,0.037925224,0.032862106
0.398852317,0.575940976,0.037995051,0.032911438
0.399331383,0.576639648,0.038064812,0.032960615
0.399810582,0.577339298,0.038134506,0.033009635
0.400289895,0.578039894,0.038204129,0.033058496
0.4007693,0.578741405,0.03827368,0.033107197
0.401248776,0.579443799,0.038343154,0.033155736
0.4017283,0.580147044,0.03841255,0.033204111
0.402207852,0.580851109,0.038481866,0.033252321
0.40268741,0.581555963,0.038551099,0.033300363
0.40316695,0.582261572,0.038620247,0.033348236
0.403646452,0.582967905,0.038689307,0.033395939
0.404125894,0.58367493,0.038758278,0.033443469
0.404605256,0.584382614,0.038827156,0.033490825
0.405084517,0.585090928,0.038895941,0.033538005
0.405563658,0.585799839,0.038964629,0.033585009
0.406042659,0.586509316,0.039033219,0.033631835
0.406521499,0.587219327,0.039101709,0.033678482
0.407000157,0.587929837,0.039170098,0.03372495
0.407478612,0.588640813,0.039238384,0.033771238
0.407956842,0.589352222,0.039306563,0.033817345
0.408434827,0.590064027,0.039374636,0.03386327
0.408912545,0.590776193,0.039442599,0.033909012
0.409389975,0.591488684,0.03951045,0.03395457
0.409867096,0.592201463,0.039578188,0.033999944
0.410343886,0.592914494,0.03964581,0.034045131
0.410820324,0.593627741,0.039713314,0.034090131
0.411296386,0.59434117,0.039780698,0.034134941
0.411772052,0.595054745,0.039847959,0.034179562
0.412247296,0.595768432,0.039915096,0.034223991
0.412722098,0.596482198,0.039982106,0.034268227
0.413196433,0.59719601,0.040048987,0.03431227
0.413670279,0.597909835,0.040115738,0.034356117
0.414143614,0.59862364,0.040182355,0.034399769
0.414616416,0.599337391,0.040248837,0.034443223
0.415088662,0.600051054,0.040315182,0.03448648
0.415560332,0.600764594,0.040381388,0.034529539
0.416031404,0.601477976,0.040447453,0.034572401
0.416501858,0.602191166,0.040513375,0.034615064
0.416971675,0.602904128,0.040579153,0.034657529
0.417440837,0.603616824,0.040644785,0.034699795
0.417909326,0.60432922,0.040710268,0.034741863
0.418377126,0.605041279,0.040775601,0.03478373
0.418844218,0.605752964,0.040840782,0.034825398
0.419310586,0.606464238,0.040905809,0.034866865
0.419776211,0.607175064,0.040970681,0.03490813
0.420241074,0.607885406,0.041035396,0.034949194
0.420705158,0.608595226,0.041099953,0.034990056
0.421168443,0.609304487,0.041164351,0.035030715
0.421630909,0.610013155,0.041228589,0.035071171
0.422092538,0.610721192,0.041292664,0.035111423
0.422553309,0.61142856,0.041356577,0.035151471
0.423013203,0.612135224,0.041420324,0.035191313
0.423472198,0.612841144,0.041483904,0.03523095
0.423930275,0.613546285,0.041547316,0.035270381
0.424387411,0.614250607,0.041610558,0.035309606
0.424843588,0.614954074,0.041673628,0.035348623
0.425298784,0.615656647,0.041736525,0.035387432
0.425752977,0.616358286,0.041799246,0.035426033
0.426206147,0.617058952,0.041861791,0.035464425
0.426658274,0.617758606,0.041924157,0.035502607
0.427109334,0.618457208,0.041986342,0.035540579
0.427559308,0.619154719,0.042048346,0.035578339
0.428008174,0.619851099,0.042110166,0.035615888
0.428455911,0.620546308,0.0421718,0.035653223
0.428902495,0.621240306,0.042233246,0.035690346
0.429347907,0.621933052,0.042294503,0.035727254
0.429792122,0.622624506,0.042355569,0.035763947
0.43023512,0.623314625,0.042416442,0.035800424
0.430676877,0.624003367,0.04247712,0.035836686
0.43111737,0.62469069,0.042537602,0.03587273
0.431556578,0.625376549,0.042597887,0.035908557
0.431994475,0.626060902,0.042657971,0.035944166
0.43243104,0.626743703,0.042717854,0.035979555
0.432866248,0.627424908,0.042777533,0.036014724
0.433300077,0.628104473,0.042837006,0.036049672
0.433732505,0.628782351,0.04289627,0.036084398
0.434163508,0.629458498,0.042955324,0.0361189
0.434593065,0.630132867,0.043014165,0.036153179
0.435021153,0.630805412,0.043072791,0.036187233
0.43544775,0.631476087,0.043131199,0.036221061
0.435872832,0.632144846,0.043189386,0.036254662
0.436296376,0.632811643,0.043247351,0.036288035
0.436718361,0.633476434,0.043305091,0.036321178
0.437138762,0.634139172,0.043362603,0.036354091
0.437557559,0.634799813,0.043419886,0.036386771
0.437974727,0.635458314,0.043476937,0.036419217
0.438390246,0.63611463,0.043533754,0.03645143
0.438804092,0.636768718,0.043590334,0.036483406
0.439216245,0.637420538,0.043646677,0.036515145
0.439626684,0.638070047,0.043702781,0.036546646
0.440035387,0.638717206,0.043758642,0.036577908
0.440442336,0.639361976,0.043814261,0.036608929
0.440847512,0.640004318,0.043869635,0.03663971
0.441250897,0.640644194,0.043924763,0.036670248
0.441652474,0.641281565,0.043979643,0.036700544
0.442052224,0.641916395,0.044034274,0.036730596
0.442450131,0.642548645,0.044088654,0.036760403
0.442846177,0.643178279,0.044142781,0.036789965
0.443240342,0.643805259,0.044196655,0.036819282
0.44363261,0.644429547,0.044250274,0.036848352
0.444022961,0.645051106,0.044303637,0.036877176
0.444411379,0.645669896,0.044356743,0.036905753
0.444797844,0.64628588,0.044409589,0.036934082
0.445182339,0.64689902,0.044462176,0.036962164
0.445564849,0.647509278,0.044514501,0.036989998
0.445945356,0.648116618,0.044566562,0.037017584
0.446323845,0.648721003,0.044618358,0.037044921
0.446700301,0.649322396,0.044669889,0.03707201
0.447074709,0.64992076,0.044721151,0.03709885
0.447447055,0.65051606,0.044772144,0.037125441
0.447817325,0.651108261,0.044822865,0.037151783
0.448185506,0.65169733,0.044873314,0.037177874
0.448551587,0.652283235,0.044923488,0.037203716
0.448915558,0.652865944,0.044973387,0.037229306
0.449277408,0.653445428,0.045023009,0.037254646
0.449637129,0.654021662,0.045072352,0.037279735
0.44999471,0.65459462,0.045121414,0.037304573
0.450350142,0.655164283,0.045170195,0.037329159
0.450703415,0.655730628,0.045218693,0.037353494
0.451054518,0.656293634,0.045266905,0.037377577
0.451403441,0.656853281,0.045314832,0.037401407
0.451750174,0.65740955,0.045362471,0.037424985
0.452094707,0.657962421,0.045409822,0.03744831
0.452437032,0.658511877,0.045456883,0.03747138
0.452777139,0.659057899,0.045503655,0.037494197
0.453115019,0.659600469,0.045550136,0.037516758
0.453450665,0.660139571,0.045596326,0.037539065
0.453784071,0.660675189,0.045642224,0.037561116
0.454115231,0.661207307,0.04568783,0.037582912
0.454444139,0.661735913,0.045733143,0.037604453
0.454770792,0.662260992,0.045778163,0.037625739
0.455095183,0.662782534,0.04582289,0.037646771
0.455417309,0.663300528,0.045867322,0.037667546
0.455737162,0.663814961,0.045911461,0.037688067
0.456054738,0.664325824,0.045955304,0.037708332
0.456370031,0.664833103,0.045998852,0.037728341
0.456683033,0.665336786,0.046042105,0.037748094
0.45699374,0.665836861,0.046085063,0.03776759
0.457302145,0.666333314,0.046127725,0.037786829
0.457608243,0.666826131,0.04617009,0.03780581
0.457912026,0.667315298,0.046212159,0.037824533
0.458213489,0.6678008,0.046253932,0.037842998
0.458512627,0.668282619,0.046295407,0.037861204
0.458809433,0.668760741,0.046336584,0.037879153
0.459103902,0.669235148,0.046377464,0.037896843
0.459396027,0.669705822,0.046418046,0.037914275
0.459685805,0.670172746,0.046458329,0.037931448
0.45997323,0.6706359,0.046498314,0.037948363
0.460258297,0.671095267,0.046537999,0.03796502
0.460540999,0.671550827,0.046577384,0.037981417
0.46082133,0.67200256,0.04661647,0.037997556
0.461099284,0.672450448,0.046655256,0.038013435
0.461374854,0.672894473,0.046693741,0.038029055
0.461648032,0.673334615,0.046731927,0.038044416
0.46191881,0.673770856,0.046769813,0.038059516
0.462187181,0.674203178,0.046807399,0.038074357
0.462453136,0.674631561,0.046844684,0.038088938
0.462716667,0.675055988,0.046881669,0.038103259
0.462977764,0.67547644,0.046918354,0.03811732
0.463236419,0.675892895,0.046954738,0.038131121
0.463492622,0.676305336,0.04699082,0.038144662
0.463746364,0.676713741,0.0470266,0.038157942
0.463997635,0.67711809,0.047062078,0.038170962
0.464246426,0.677518364,0.047097254,0.038183722
0.464492727,0.677914542,0.047132126,0.038196221
0.464736527,0.678306606,0.047166695,0.03820846
0.464977817,0.678694537,0.04720096,0.038220438
0.465216585,0.679078319,0.04723492,0.038232154
0.465452821,0.679457934,0.047268574,0.038243609
0.465686515,0.679833368,0.047301922,0.038254802
0.465917657,0.680204606,0.047334964,0.038265732
0.466146234,0.680571633,0.047367698,0.0382764
0.466372237,0.680934436,0.047400124,0.038286804
0.466595654,0.681293003,0.047432243,0.038296944
0.466816475,0.68164732,0.047464054,0.03830682
0.467034688,0.681997377,0.047495556,0.038316432
0.467250283,0.682343161,0.047526751,0.038325779
0.467463251,0.682684661,0.047557637,0.038334861
0.467673582,0.683021865,0.047588214,0.038343677
0.467881267,0.683354763,0.047618482,0.038352228
0.468086297,0.683683345,0.047648439,0.038360512
0.468288667,0.684007602,0.047678085,0.03836853
0.468488368,0.684327525,0.047707419,0.038376281
0.468685396,0.684643105,0.047736441,0.038383764
0.468879745,0.684954333,0.047765149,0.03839098
0.469071409,0.685261199,0.047793543,0.038397928
0.469260382,0.685563693,0.047821621,0.038404608
0.469446657,0.685861808,0.047849384,0.03841102
0.469630229,0.686155535,0.047876829,0.038417163
0.469811089,0.686444864,0.047903957,0.038423038
0.469989229,0.686729786,0.047930765,0.038428644
0.470164643,0.687010292,0.047957253,0.038433982
0.470337323,0.687286372,0.04798342,0.03843905
0.470507259,0.687558017,0.048009265,0.03844385
0.470674445,0.687825218,0.048034788,0.03844838
0.470838873,0.688087967,0.048059987,0.038452642
0.471000535,0.688346255,0.048084861,0.038456634
0.471159426,0.688600076,0.048109411,0.038460357
0.471315538,0.688849423,0.048133636,0.038463811
0.471468867,0.689094288,0.048157534,0.038466995
0.471619407,0.689334666,0.048181106,0.038469909
0.471767155,0.689570549,0.048204351,0.038472552
0.471912105,0.689801934,0.048227268,0.038474925
0.472054255,0.690028817,0.048249857,0.038477028
0.472193598,0.690251196,0.048272117,0.038478859
0.472330131,0.690469069,0.048294048,0.03848042
0.472463848,0.690682432,0.048315647,0.038481709
0.472594746,0.690891282,0.048336914,0.038482727
0.47272282,0.691095615,0.048357849,0.038483473
0.472848066,0.691295427,0.048378451,0.038483947
0.472970483,0.691490716,0.048398718,0.038484148
0.473090069,0.691681477,0.048418651,0.038484077
0.473206821,0.691867706,0.048438248,0.038483733
0.473320739,0.692049401,0.048457508,0.038483116
0.473431822,0.692226557,0.04847643,0.038482224
0.473540069,0.692399171,0.048495014,0.038481059
0.473645479,0.69256724,0.048513259,0.03847962
0.473748051,0.692730758,0.048531164,0.038477905
0.473847785,0.692889723,0.048548727,0.038475916
0.473944683,0.693044131,0.048565949,0.038473652
0.474038746,0.693193978,0.048582827,0.038471112
0.474129977,0.693339261,0.048599363,0.038468296
0.474218378,0.693479977,0.048615554,0.038465204
0.47430395,0.693616125,0.0486314,0.038461835
0.474386695,0.693747702,0.048646902,0.038458189
0.474466615,0.69387471,0.048662058,0.038454265
0.474543709,0.693997145,0.048676868,0.038450064
0.47461798,0.694115009,0.048691331,0.038445584
0.474689428,0.694228301,0.048705448,0.038440825
0.474758054,0.694337019,0.048719217,0.038435787
0.474823859,0.694441163,0.048732638,0.038430469
0.474886845,0.694540734,0.048745709,0.038424872
0.474947013,0.69463573,0.048758432,0.038418995
0.475004362,0.694726152,0.048770804,0.038412838
0.475058894,0.694811999,0.048782826,0.038406403
0.475110607,0.694893271,0.048794497,0.038399689
0.475159502,0.694969965,0.048805816,0.038392697
0.475205579,0.695042082,0.048816784,0.038385428
0.475248836,0.695109619,0.048827399,0.038377881
0.475289273,0.695172576,0.048837661,0.038370057
0.475326889,0.695230949,0.048847569,0.038361958
0.475361685,0.695284739,0.048857122,0.038353582
0.475393659,0.695333944,0.048866319,0.038344931
0.475422811,0.695378563,0.04887516,0.038336005
0.475449141,0.695418594,0.048883644,0.038326804
0.475472648,0.695454039,0.048891771,0.038317329
0.475493331,0.695484895,0.048899539,0.038307581
0.475511191,0.695511165,0.048906948,0.03829756
0.475526229,0.69553285,0.048913998,0.038287267
0.475538447,0.695549952,0.048920688,0.038276703
0.475547848,0.695562475,0.048927018,0.038265869
0.475554434,0.695570421,0.048932988,0.038254767
0.475558208,0.695573795,0.048938598,0.038243398
0.475559172,0.695572601,0.048943847,0.038231764
0.475557328,0.695566841,0.048948737,0.038219865
0.47555268,0.69555652,0.048953266,0.038207703
0.47554523,0.695541638,0.048957435,0.03819528
0.475534981,0.695522199,0.048961244,0.038182597
0.475521936,0.695498203,0.048964693,0.038169654
0.475506097,0.695469652,0.048967782,0.038156454
0.475487466,0.695436546,0.048970511,0.038142997
0.475466044,0.695398885,0.04897288,0.038129284
0.475441833,0.695356671,0.048974887,0.038115316
0.475414833,0.695309904,0.048976534,0.038101094
0.475385045,0.695258587,0.048977818,0.038086619
0.47535247,0.695202722,0.048978741,0.038071892
0.475317106,0.695142311,0.048979302,0.038056914
0.475278955,0.695077359,0.048979501,0.038041684
0.475238014,0.695007869,0.048979338,0.038026206
0.475194283,0.694933846,0.048978815,0.038010479
0.475147761,0.694855295,0.048977931,0.037994505
0.475098446,0.69477222,0.04897669,0.037978287
0.475046337,0.694684628,0.048975091,0.037961825
0.474991432,0.694592525,0.048973136,0.037945122
0.474933731,0.694495917,0.048970828,0.037928179
0.474873232,0.694394811,0.048968165,0.037910998
0.474809937,0.694289216,0.048965151,0.03789358
0.474743844,0.694179139,0.048961787,0.037875925
0.474674953,0.694064588,0.048958073,0.037858037
0.474603263,0.69394557,0.04895401,0.037839915
0.474528775,0.693822095,0.048949601,0.037821561
0.474451489,0.69369417,0.048944847,0.037802976
0.474371407,0.693561806,0.048939748,0.037784163
0.474288532,0.693425013,0.048934307,0.037765122
0.474202866,0.693283803,0.048928526,0.037745854
0.474114414,0.693138187,0.048922405,0.037726361
0.47402318,0.692988175,0.048915946,0.037706644
0.47392917,0.692833779,0.048909152,0.037686704
0.473832391,0.692675007,0.048902022,0.037666543
0.473732847,0.692511868,0.048894558,0.037646163
0.473630546,0.692344371,0.048886761,0.037625564
0.473525493,0.692172525,0.048878634,0.037604748
0.473417694,0.691996336,0.048870176,0.037583716
0.473307155,0.691815813,0.04886139,0.03756247
0.473193882,0.691630963,0.048852276,0.03754101
0.47307788,0.691441795,0.048842837,0.037519339
0.472959157,0.691248315,0.048833073,0.037497456
0.472837718,0.691050532,0.048822986,0.037475364
0.472713568,0.690848451,0.048812577,0.037453063
0.472586716,0.690642082,0.048801848,0.037430555
0.472457166,0.69043143,0.048790799,0.037407841
0.472324926,0.690216503,0.048779431,0.037384923
0.472190005,0.689997308,0.048767746,0.037361802
0.47205241,0.689773852,0.048755746,0.037338481
0.471912149,0.689546139,0.048743431,0.037314961
0.471769228,0.689314176,0.048730803,0.037291245
0.471623655,0.689077967,0.048717864,0.037267335
0.471475437,0.688837516,0.048704614,0.037243232
0.47132458,0.688592827,0.048691056,0.037218939
0.471171092,0.688343905,0.048677192,0.037194457
0.471014978,0.688090754,0.048663021,0.037169789
0.470856247,0.687833377,0.048648546,0.037144935
0.470694906,0.68757178,0.048633768,0.037119897
0.470530964,0.687305967,0.048618688,0.037094678
0.470364428,0.687035945,0.048603309,0.037069279
0.470195309,0.686761718,0.048587632,0.037043702
0.470023613,0.686483292,0.048571657,0.037017948
0.469849348,0.68620067,0.048555388,0.036992019
0.469672522,0.685913858,0.048538825,0.036965917
0.469493142,0.68562286,0.048521971,0.036939643
0.469311214,0.685327681,0.048504827,0.036913199
0.469126746,0.685028325,0.048487396,0.036886587
0.468939743,0.684724797,0.048469681,0.036859809
0.468750213,0.684417102,0.048451686,0.036832865
0.468558163,0.684105242,0.048433413,0.036805759
0.468363601,0.683789222,0.048414868,0.036778491
0.468166535,0.683469048,0.048396052,0.036751064
0.467966973,0.683144722,0.04837697,0.03672348
0.467764924,0.68281625,0.048357626,0.036695739
0.467560396,0.682483637,0.048338023,0.036667844
0.467353398,0.682146889,0.048318165,0.036639796
0.467143938,0.681806012,0.048298054,0.036611597
0.466932024,0.681461009,0.048277695,0.036583248
0.466717663,0.681111888,0.04825709,0.036554751
0.466500865,0.680758653,0.048236242,0.036526107
0.466281637,0.680401309,0.048215154,0.036497318
0.46605999,0.68003986,0.048193829,0.036468386
0.465835934,0.679674312,0.04817227,0.036439312
0.46560948,0.67930467,0.04815048,0.036410097
0.465380641,0.678930939,0.048128463,0.036380744
0.465149429,0.678553124,0.048106221,0.036351253
0.464915857,0.678171232,0.048083758,0.036321628
0.464679937,0.677785269,0.048061076,0.036291868
0.464441684,0.677395242,0.048038178,0.036261976
0.464201111,0.677001158,0.048015067,0.036231955
0.463958234,0.676603026,0.047991746,0.036201805
0.463713067,0.676200853,0.047968217,0.036171528
0.463465624,0.675794651,0.047944484,0.036141127
0.463215922,0.675384429,0.047920548,0.036110602
0.462963973,0.674970199,0.047896413,0.036079957
0.462709792,0.674551974,0.047872081,0.036049193
0.462453395,0.674129765,0.047847556,0.036018312
0.462194797,0.673703587,0.047822839,0.035987316
0.461934013,0.673273451,0.047797933,0.035956209
0.461671059,0.672839371,0.047772841,0.035924991
0.461405948,0.672401359,0.047747566,0.035893665
0.461138696,0.671959427,0.047722111,0.035862233
0.460869317,0.671513588,0.047696476,0.035830698
0.460597825,0.671063852,0.047670665,0.03579906
0.460324234,0.67061023,0.047644681,0.035767323
0.460048556,0.670152733,0.047618524,0.035735488
0.459770805,0.669691371,0.047592199,0.035703557
0.459490993,0.669226155,0.047565706,0.035671531
0.459209132,0.668757096,0.047539047,0.035639413
0.458925232,0.668284206,0.047512225,0.035607205
0.458639307,0.667807496,0.047485242,0.035574907
0.458351365,0.667326981,0.047458099,0.035542523
0.45806142,0.666842673,0.047430798,0.035510053
0.457769481,0.666354586,0.04740334,0.035477499
0.457475559,0.665862737,0.047375727,0.035444863
0.457179664,0.665367141,0.047347961,0.035412147
0.456881808,0.664867818,0.047320043,0.035379351
0.456582,0.664364787,0.047291975,0.035346479
0.456280252,0.66385807,0.047263758,0.035313532
0.455976574,0.663347689,0.047235394,0.03528051
0.455670977,0.662833666,0.047206884,0.035247417
0.45536347,0.662316026,0.04717823,0.035214253
0.455054064,0.661794789,0.047149433,0.03518102
0.454742768,0.661269979,0.047120494,0.03514772
0.454429593,0.660741616,0.047091415,0.035114353
0.454114547,0.660209723,0.047062196,0.035080921
0.45379764,0.659674322,0.047032839,0.035047426
0.453478881,0.659135436,0.047003346,0.035013868
0.45315828,0.658593087,0.046973716,0.034980249
0.452835846,0.658047297,0.046943952,0.03494657
0.452511587,0.657498088,0.046914055,0.034912833
0.452185513,0.65694548,0.046884025,0.034879038
0.451857634,0.656389495,0.046853866,0.034845186
0.451527959,0.655830152,0.046823579,0.034811279
0.451196498,0.65526747,0.046793165,0.034777318
0.450863263,0.654701469,0.046762629,0.034743303
0.450528264,0.654132168,0.04673197,0.034709236
0.450191514,0.653559586,0.046701192,0.034675117
0.449853027,0.652983742,0.046670297,0.034640947
0.449512817,0.652404656,0.046639287,0.034606728
0.449170897,0.651822348,0.046608164,0.034572459
0.448827281,0.651236839,0.046576931,0.034538142
0.448481982,0.650648148,0.046545589,0.034503778
0.448135015,0.650056296,0.046514142,0.034469368
0.447786395,0.6494613,0.046482592,0.034434913
0.447436135,0.648863182,0.046450941,0.034400415
0.447084254,0.64826196,0.046419192,0.034365874
0.446730766,0.647657654,0.046387347,0.034331292
0.446375687,0.647050284,0.046355409,0.03429667
0.446019031,0.646439871,0.04632338,0.034262009
0.445660814,0.645826433,0.046291262,0.034227311
0.44530105,0.645209991,0.046259057,0.034192575
0.444939752,0.644590565,0.046226767,0.034157803
0.444576933,0.643968173,0.046194394,0.034122995
0.444212606,0.643342835,0.046161939,0.034088153
0.443846782,0.64271457,0.046129406,0.034053277
0.443479475,0.642083398,0.046096794,0.034018367
0.443110694,0.641449338,0.046064107,0.033983426
0.442740451,0.640812408,0.046031346,0.033948453
0.442368757,0.64017263,0.045998512,0.033913449
0.441995625,0.63953002,0.045965608,0.033878417
0.441621066,0.6388846,0.045932636,0.033843357
0.441245093,0.638236389,0.045899596,0.03380827
0.440867719,0.637585406,0.04586649,0.033773158
0.440488956,0.636931671,0.045833321,0.033738022
0.440108819,0.636275203,0.045800089,0.033702863
0.43972732,0.635616024,0.045766796,0.033667682
0.439344473,0.634954155,0.045733443,0.03363248
0.438960291,0.634289615,0.045700032,0.033597259
0.438574785,0.633622427,0.045666565,0.03356202
0.438187969,0.632952613,0.045633043,0.033526763
0.437799855,0.632280194,0.045599468,0.033491489
0.437410457,0.631605194,0.045565842,0.033456201
0.437019788,0.630927633,0.045532166,0.033420898
0.436627863,0.630247534,0.045498441,0.033385582
0.436234697,0.629564916,0.04546467,0.033350253
0.435840305,0.628879802,0.045430854,0.033314913
0.435444705,0.628192213,0.045396994,0.033279562
0.43504791,0.627502169,0.045363094,0.033244201
0.434649938,0.626809693,0.045329156,0.033208831
0.434250801,0.626114805,0.045295183,0.033173453
0.433850516,0.625417525,0.045261178,0.033138067
0.433449096,0.624717875,0.045227145,0.033102676
0.433046555,0.624015874,0.045193086,0.033067278
0.432642908,0.623311543,0.045159007,0.033031877
0.432238169,0.622604904,0.045124909,0.032996473
0.431832352,0.621895982,0.045090796,0.032961066
0.431425471,0.6211848,0.045056671,0.032925659
0.431017539,0.620471383,0.045022537,0.032890252
0.43060857,0.619755756,0.044988398,0.032854848
0.430198578,0.619037942,0.044954254,0.032819446
0.429787577,0.618317968,0.044920109,0.032784049
0.429375578,0.617595858,0.044885965,0.032748657
0.428962597,0.616871636,0.044851825,0.032713272
0.428548645,0.61614533,0.04481769,0.032677895
0.428133734,0.615416963,0.044783563,0.032642527
0.427717879,0.61468656,0.044749445,0.03260717
0.42730109,0.613954147,0.044715338,0.032571824
0.42688338,0.613219748,0.044681244,0.032536491
0.426464761,0.612483389,0.044647165,0.032501172
0.426045244,0.611745095,0.044613103,0.032465866
0.425624842,0.611004894,0.044579058,0.032430577
0.425203567,0.610262811,0.044545033,0.032395304
0.42478143,0.609518873,0.044511031,0.032360048
0.424358445,0.608773108,0.044477051,0.032324811
0.423934623,0.608025542,0.044443098,0.032289594
0.42350998,0.607276204,0.044409171,0.032254397
0.423084528,0.606525123,0.044375274,0.032219222
0.422658281,0.605772328,0.044341407,0.03218407
0.422231255,0.605017852,0.044307573,0.032148942
0.421803464,0.604261725,0.044273774,0.03211384
0.421374921,0.603503978,0.044240011,0.032078765
0.420945641,0.602744643,0.044206288,0.032043717
0.420515638,0.60198375,0.044172606,0.0320087
0.420084927,0.60122133,0.044138968,0.031973713
0.419653523,0.60045741,0.044105375,0.03193876
0.419221441,0.599692021,0.04407183,0.031903841
0.418788696,0.598925191,0.044038335,0.031868957
0.418355303,0.598156948,0.044004892,0.03183411
0.417921279,0.597387321,0.043971501,0.031799302
0.417486637,0.596616336,0.043938164,0.031764534
0.417051392,0.59584402,0.043904884,0.031729806
0.416615559,0.595070402,0.043871661,0.03169512
0.416179151,0.594295508,0.043838498,0.031660477
0.415742181,0.593519366,0.043805394,0.031625878
0.415304664,0.592742004,0.043772353,0.031591325
0.414866611,0.59196345,0.043739375,0.031556818
0.414428036,0.59118373,0.043706461,0.03152236
0.413988951,0.590402872,0.043673612,0.03148795
0.413549369,0.589620904,0.043640829,0.031453591
0.413109304,0.588837853,0.043608114,0.031419283
0.412668768,0.588053747,0.043575467,0.031385028
0.412227775,0.587268614,0.043542889,0.031350828
0.411786337,0.586482483,0.043510384,0.031316684
0.411344464,0.585695381,0.043477953,0.031282599
0.410902171,0.584907337,0.043445597,0.031248575
0.410459468,0.58411838,0.043413319,0.031214612
0.410016367,0.583328536,0.043381122,0.031180714
0.409572882,0.582537834,0.043349005,0.03114688
0.409129023,0.5817463,0.043316971,0.031113114
0.408684803,0.580953961,0.043285022,0.031079416
0.408240234,0.580160843,0.043253158,0.031045788
0.407795327,0.579366972,0.04322138,0.031012231
0.407350096,0.578572374,0.043189691,0.030978747
0.406904553,0.577777073,0.043158089,0.030945337
0.406458711,0.576981094,0.043126577,0.030912002
0.406012583,0.576184461,0.043095156,0.030878744
0.405566183,0.575387198,0.043063825,0.030845563
0.405119524,0.574589331,0.043032586,0.03081246
0.404672619,0.573790884,0.043001439,0.030779436
0.404225482,0.572991885,0.042970386,0.030746492
0.403778127,0.572192361,0.042939426,0.030713628
0.403330569,0.571392338,0.04290856,0.030680846
0.402882823,0.570591845,0.04287779,0.030648145
0.402434905,0.569790909,0.042847115,0.030615528
0.40198683,0.568989558,0.042816536,0.030582995
0.401538615,0.568187819,0.042786053,0.030550547
0.401090274,0.567385717,0.042755667,0.030518184
0.400641821,0.566583279,0.042725378,0.03048591
0.400193271,0.565780533,0.042695188,0.030453723
0.399744636,0.564977504,0.042665096,0.030421625
0.39929593,0.564174221,0.042635104,0.030389617
0.398847166,0.563370712,0.042605212,0.030357701
0.398398355,0.562567005,0.042575421,0.030325876
0.397949509,0.561763129,0.042545731,0.030294145
0.39750064,0.560959115,0.042516142,0.030262508
0.39705176,0.56015499,0.042486654,0.030230966
0.396602879,0.559350785,0.042457268,0.030199521
0.396154009,0.55854653,0.042427982,0.030168172
0.395705162,0.557742255,0.042398797,0.030136921
0.39525635,0.556937988,0.042369712,0.030105768
0.394807584,0.556133759,0.042340728,0.030074714
0.394358876,0.555329596,0.042311843,0.030043761
0.393910236,0.554525527,0.042283058,0.030012908
0.393461676,0.553721581,0.042254373,0.029982157
0.393013208,0.552917787,0.042225786,0.02995151
0.392564845,0.552114173,0.042197299,0.029920967
0.392116599,0.551310767,0.04216891,0.029890529
0.391668486,0.550507599,0.042140619,0.029860198
0.391220523,0.549704697,0.042112426,0.029829976
0.390772729,0.548902091,0.042084331,0.029799862
0.390325124,0.548099808,0.042056332,0.029769857
0.389877727,0.547297878,0.04202843,0.029739964
0.389430557,0.546496328,0.042000625,0.029710183
0.388983634,0.545695184,0.041972915,0.029680514
0.388536977,0.544894473,0.0419453,0.029650958
0.388090603,0.544094223,0.041917781,0.029621515
0.387644531,0.543294458,0.041890356,0.029592187
0.387198779,0.542495208,0.041863024,0.029562974
0.386753364,0.541696498,0.041835787,0.029533876
0.386308304,0.540898358,0.041808642,0.029504894
0.385863619,0.540100815,0.041781592,0.029476028
0.385419327,0.5393039,0.041754634,0.029447279
0.384975448,0.538507643,0.041727769,0.029418647
0.384532002,0.537712075,0.041700998,0.029390134
0.38408901,0.536917225,0.041674319,0.029361738
0.383646492,0.536123124,0.041647733,0.029333462
0.383204469,0.535329802,0.04162124,0.029305304
0.38276296,0.534537288,0.041594839,0.029277265
0.382321984,0.53374561,0.041568531,0.029249346
0.381881561,0.532954797,0.041542315,0.029221546
0.381441709,0.532164877,0.04151619,0.029193866
0.381002447,0.531375876,0.041490157,0.029166306
0.380563794,0.530587819,0.041464215,0.029138867
0.380125769,0.529800733,0.041438364,0.029111548
0.379688391,0.529014643,0.041412604,0.029084349
0.379251677,0.528229571,0.041386935,0.029057271
0.378815646,0.527445544,0.041361357,0.029030313
0.378380316,0.526662584,0.041335869,0.029003476
0.377945704,0.525880716,0.041310471,0.028976759
0.37751183,0.525099962,0.041285163,0.028950161
0.37707871,0.524320345,0.041259943,0.028923684
0.376646364,0.523541891,0.041234812,0.028897327
0.37621481,0.52276462,0.041209769,0.028871089
0.375784067,0.521988558,0.041184812,0.028844971
0.375354153,0.521213725,0.041159943,0.028818973
0.374925087,0.520440143,0.04113516,0.028793096
0.374496886,0.519667835,0.041110462,0.028767338
0.37406957,0.518896822,0.04108585,0.028741701
0.373643153,0.518127122,0.041061321,0.028716184
0.373217653,0.517358757,0.041036876,0.028690787
0.372793086,0.516591746,0.041012513,0.02866551
0.372369467,0.515826109,0.040988232,0.028640353
0.37194681,0.515061865,0.040964031,0.028615316
0.37152513,0.514299034,0.040939909,0.028590399
0.37110444,0.513537634,0.040915866,0.028565602
0.370684753,0.512777684,0.040891901,0.028540924
0.370266081,0.512019201,0.040868012,0.028516366
0.369848436,0.511262203,0.040844199,0.028491928
0.369431828,0.510506709,0.040820461,0.028467608
0.369016269,0.509752736,0.040796798,0.028443409
0.368601768,0.509000302,0.040773207,0.028419328
0.368188337,0.508249425,0.040749689,0.028395367
0.367775985,0.507500122,0.040726243,0.028371525
0.367364721,0.50675241,0.040702868,0.028347802
0.366954554,0.506006306,0.040679563,0.028324199
0.366545494,0.505261828,0.040656329,0.028300717
0.366137549,0.504518993,0.040633166,0.028277355
0.365730728,0.503777818,0.040610075,0.028254114
0.36532504,0.503038321,0.040587054,0.028230995
0.364920494,0.502300518,0.040564106,0.028207999
0.364517098,0.501564424,0.040541229,0.028185125
0.364114862,0.500830057,0.040518423,0.028162374
0.363713794,0.500097435,0.04049569,0.028139746
0.363313907,0.499366577,0.040473029,0.028117243
0.362915215,0.498637504,0.040450441,0.028094864
0.362517729,0.497910236,0.040427926,0.02807261
0.362121466,0.497184797,0.040405484,0.028050481
0.361726439,0.496461205,0.040383115,0.028028477
0.361332665,0.495739481,0.040360821,0.028006599
0.360940159,0.495019642,0.040338601,0.027984847
0.360548938,0.494301708,0.040316455,0.027963222
0.360159019,0.493585695,0.040294384,0.027941723
0.359770418,0.49287162,0.040272389,0.02792035
0.359383152,0.4921595,0.040250468,0.027899105
0.358997238,0.491449349,0.040228623,0.027877987
0.358612691,0.490741181,0.040206852,0.027856997
0.358229527,0.490035012,0.040185156,0.027836135
0.357847761,0.489330854,0.040163535,0.027815401
0.357467408,0.488628722,0.040141988,0.027794795
0.357088481,0.487928628,0.040120514,0.027774318
0.356710995,0.487230584,0.040099115,0.02775397
0.356334961,0.486534603,0.040077788,0.02773375
0.355960392,0.485840696,0.040056536,0.027713659
0.355587302,0.485148874,0.040035356,0.027693697
0.355215702,0.484459148,0.04001425,0.027673864
0.354845606,0.48377153,0.039993216,0.027654162
0.354477025,0.483086032,0.039972255,0.027634591
0.354109971,0.482402668,0.039951365,0.027615151
0.353744455,0.481721452,0.039930548,0.027595844
0.353380487,0.481042396,0.039909803,0.027576669
0.353018077,0.480365515,0.039889129,0.027557627
0.352657237,0.479690819,0.039868527,0.027538719
0.352297976,0.479018322,0.039847996,0.027519946
0.351940304,0.478348034,0.039827537,0.027501308
0.351584231,0.477679964,0.039807149,0.027482807
0.351229767,0.477014122,0.039786833,0.027464444
0.350876922,0.476350517,0.039766587,0.027446218
0.350525707,0.475689158,0.039746412,0.027428131
0.35017613,0.475030051,0.039726308,0.027410183
0.349828201,0.474373206,0.039706273,0.027392375
0.349481929,0.47371863,0.039686307,0.027374707
0.34913732,0.473066335,0.039666411,0.027357181
0.348794383,0.472416327,0.039646583,0.027339795
0.348453123,0.471768617,0.039626823,0.027322551
0.348113548,0.471123212,0.03960713,0.027305449
0.347775664,0.470480124,0.039587505,0.027288489
0.347439475,0.469839364,0.039567946,0.02727167
0.347104987,0.469200943,0.039548453,0.027254994
0.346772204,0.468564876,0.039529026,0.027238459
0.346441132,0.467931175,0.039509665,0.027222067
0.346111777,0.467299852,0.039490369,0.027205817
0.345784143,0.466670921,0.03947114,0.027189709
0.345458237,0.466044395,0.039451977,0.027173745
0.345134062,0.465420288,0.03943288,0.027157923
0.344811624,0.464798613,0.03941385,0.027142245
0.344490927,0.464179385,0.039394887,0.027126711
0.344171974,0.463562617,0.03937599,0.027111319
0.34385477,0.462948322,0.039357161,0.027096072
0.343539317,0.462336512,0.039338399,0.027080968
0.343225618,0.461727201,0.039319706,0.027066007
0.342913676,0.461120399,0.039301083,0.027051189
0.342603493,0.460516118,0.039282529,0.027036515
0.342295073,0.45991437,0.039264047,0.027021985
0.341988417,0.459315165,0.039245635,0.027007598
0.341683528,0.458718515,0.039227295,0.026993354
0.341380408,0.458124431,0.039209028,0.026979253
0.341079058,0.457532922,0.039190833,0.026965295
0.34077948,0.456943998,0.03917271,0.02695148
0.340481676,0.456357665,0.03915466,0.026937806
0.340185648,0.455773933,0.039136681,0.026924273
0.339891398,0.455192807,0.039118775,0.026910882
0.339598928,0.454614297,0.039100942,0.02689763
0.33930824,0.454038408,0.03908318,0.026884519
0.339019335,0.453465149,0.039065491,0.026871547
0.338732215,0.452894528,0.039047874,0.026858713
0.338446881,0.452326551,0.039030329,0.026846018
0.338163332,0.451761228,0.039012856,0.026833461
0.337881568,0.451198565,0.038995457,0.026821041
0.337601588,0.450638571,0.03897813,0.026808758
0.337323392,0.450081252,0.038960878,0.026796613
0.337046979,0.449526616,0.0389437,0.026784604
0.336772348,0.448974668,0.038926597,0.026772732
0.3364995,0.448425416,0.038909569,0.026760994
0.336228438,0.447878866,0.038892617,0.026749392
0.335959163,0.447335026,0.03887574,0.026737924
0.335691679,0.446793904,0.038858939,0.02672659
0.335425988,0.446255508,0.038842214,0.026715388
0.335162096,0.445719845,0.038825565,0.026704319
0.334900004,0.445186921,0.038808992,0.026693381
0.334639719,0.444656743,0.038792495,0.026682574
0.334381243,0.444129316,0.038776073,0.026671896
0.334124582,0.443604649,0.038759728,0.026661347
0.333869737,0.443082746,0.038743457,0.026650925
0.333616713,0.442563614,0.038727261,0.026640631
0.333365511,0.44204726,0.038711141,0.026630463
0.333116136,0.441533689,0.038695094,0.026620421
0.332868589,0.441022905,0.038679122,0.026610504
0.332622875,0.440514913,0.038663224,0.026600711
0.332378996,0.440009715,0.0386474,0.026591042
0.332136957,0.439507316,0.03863165,0.026581495
0.331896758,0.439007717,0.038615972,0.02657207
0.331658404,0.43851092,0.038600368,0.026562766
0.331421895,0.438016926,0.038584836,0.026553584
0.331187233,0.437525737,0.038569377,0.026544521
0.33095442,0.437037353,0.038553991,0.026535578
0.330723457,0.436551776,0.038538677,0.026526755
0.330494343,0.436069005,0.038523435,0.026518049
0.33026708,0.435589041,0.038508265,0.026509462
0.330041668,0.435111882,0.038493167,0.026500992
0.329818108,0.434637529,0.038478141,0.026492638
0.3295964,0.434165979,0.038463188,0.0264844
0.329376544,0.433697232,0.038448307,0.026476276
0.32915854,0.433231284,0.0384335,0.026468267
0.328942387,0.432768133,0.038418766,0.02646037
0.328728084,0.432307775,0.038404107,0.026452587
0.328515629,0.43185021,0.038389524,0.026444915
0.328305021,0.431395434,0.038375017,0.026437355
0.328096258,0.430943447,0.038360586,0.026429906
0.327889339,0.430494248,0.038346232,0.026422568
0.327684261,0.430047839,0.038331955,0.026415339
0.327481021,0.42960422,0.038317755,0.02640822
0.327279618,0.429163392,0.038303632,0.026401211
0.327080049,0.428725356,0.038289585,0.02639431
0.326882312,0.428290111,0.038275616,0.026387518
0.326686406,0.427857658,0.038261722,0.026380834
0.326492328,0.427427994,0.038247905,0.026374257
0.326300076,0.427001118,0.038234164,0.026367787
0.326109646,0.426577029,0.038220499,0.026361424
0.325921035,0.426155722,0.03820691,0.026355167
0.325734239,0.425737194,0.038193398,0.026349015
0.325549254,0.425321441,0.038179963,0.026342969
0.325366075,0.424908459,0.038166605,0.026337029
0.3251847,0.424498242,0.038153324,0.026331192
0.325005124,0.424090785,0.038140119,0.02632546
0.324827345,0.423686083,0.038126992,0.02631983
0.324651358,0.42328413,0.038113941,0.026314303
0.324477159,0.42288492,0.038100966,0.026308878
0.324304743,0.422488448,0.038088066,0.026303554
0.324134106,0.422094708,0.038075242,0.02629833
0.32396524,0.421703694,0.038062492,0.026293207
0.323798141,0.4213154,0.038049816,0.026288182
0.323632802,0.42092982,0.038037214,0.026283256
0.323469219,0.420546948,0.038024685,0.026278429
0.323307387,0.420166779,0.038012227,0.026273698
0.323147301,0.419789307,0.03799984,0.026269063
0.322988959,0.419414527,0.037987524,0.026264525
0.322832356,0.419042434,0.037975276,0.026260081
0.322677489,0.418673022,0.037963096,0.02625573
0.322524357,0.418306287,0.037950983,0.026251473
0.322372959,0.417942223,0.037938936,0.026247308
0.322223293,0.417580826,0.037926953,0.026243235
0.322075358,0.417222089,0.037915034,0.026239254
0.321929151,0.416866007,0.037903175,0.026235363
0.32178467,0.416512573,0.037891377,0.026231562
0.321641912,0.416161782,0.037879639,0.026227851
0.321500874,0.415813626,0.037867957,0.026224229
0.321361553,0.415468101,0.037856332,0.026220694
0.321223946,0.4151252,0.037844763,0.026217247
0.32108805,0.414784918,0.037833247,0.026213886
0.32095386,0.414447247,0.037821784,0.026210609
0.320821375,0.414112182,0.037810372,0.026207416
0.32069059,0.413779715,0.03779901,0.026204306
0.320561501,0.413449842,0.037787697,0.026201278
0.320434105,0.413122556,0.037776431,0.02619833
0.320308398,0.412797852,0.037765211,0.02619546
0.320184378,0.412475725,0.037754036,0.026192669
0.32006204,0.412156168,0.037742904,0.026189954
0.319941383,0.411839176,0.037731814,0.026187314
0.319822403,0.411524743,0.037720765,0.02618475
0.319705098,0.411212862,0.037709756,0.026182259
0.319589465,0.410903526,0.037698786,0.026179842
0.319475501,0.410596728,0.037687852,0.026177498
0.319363205,0.410292459,0.037676955,0.026175226
0.319252575,0.409990712,0.037666094,0.026173025
0.319143609,0.409691478,0.037655267,0.026170896
0.319036306,0.409394747,0.037644473,0.026168837
0.318930664,0.40910051,0.037633711,0.026166846
0.318826683,0.408808757,0.037622982,0.026164925
0.318724359,0.408519476,0.037612282,0.02616307
0.318623692,0.408232656,0.037601611,0.026161283
0.318524678,0.407948285,0.037590969,0.026159561
0.318427314,0.407666352,0.037580353,0.026157905
0.318331596,0.407386843,0.037569761,0.026156313
0.318237521,0.407109747,0.037559193,0.026154786
0.318145083,0.406835054,0.037548647,0.026153322
0.318054279,0.406562751,0.037538122,0.02615192
0.317965103,0.406292827,0.037527615,0.02615058
0.317877549,0.406025272,0.037517127,0.026149301
0.317791611,0.405760072,0.037506655,0.026148083
0.317707283,0.405497215,0.037496201,0.026146925
0.317624559,0.405236687,0.037485763,0.026145827
0.317543432,0.404978475,0.037475342,0.026144788
0.317463897,0.404722565,0.037464939,0.026143807
0.317385948,0.404468943,0.037454554,0.026142885
0.317309579,0.404217595,0.037444187,0.026142021
0.317234785,0.403968507,0.03743384,0.026141213
0.317161561,0.403721668,0.037423511,0.026140463
0.3170899,0.403477066,0.037413201,0.026139768
0.317019798,0.40323469,0.03740291,0.026139129
0.316951251,0.402994527,0.037392638,0.026138544
0.316884257,0.402756566,0.037382385,0.026138012
0.316818812,0.402520796,0.03737215,0.026137533
0.316754914,0.402287207,0.037361934,0.026137107
0.316692562,0.402055789,0.037351736,0.026136732
0.316631755,0.401826533,0.037341555,0.026136408
0.31657249,0.40159943,0.037331391,0.026136135
0.316514768,0.401374472,0.037321245,0.026135913
0.316458586,0.401151648,0.037311116,0.026135741
0.316403943,0.40093095,0.037301004,0.026135619
0.31635084,0.400712368,0.03729091,0.026135545
0.316299276,0.400495893,0.037280833,0.026135521
0.316249251,0.400281514,0.037270772,0.026135544
0.316200767,0.400069222,0.037260727,0.026135614
0.316153823,0.399859005,0.037250698,0.026135731
0.316108418,0.399650854,0.037240685,0.026135893
0.316064551,0.399444758,0.037230686,0.026136099
0.31602222,0.399240707,0.037220701,0.02613635
0.315981423,0.399038691,0.037210729,0.026136643
0.315942157,0.3988387,0.037200771,0.026136977
0.31590442,0.398640725,0.037190824,0.026137353
0.31586821,0.398444758,0.037180889,0.026137769
0.315833524,0.39825079,0.037170966,0.026138224
0.31580036,0.398058813,0.037161053,0.026138717
0.315768716,0.397868819,0.037151151,0.026139247
0.315738587,0.397680798,0.037141258,0.026139813
0.315709972,0.397494743,0.037131376,0.026140416
0.315682866,0.397310647,0.037121503,0.026141053
0.315657268,0.397128504,0.03711164,0.026141725
0.315633176,0.39694831,0.037101786,0.026142431
0.31561059,0.396770059,0.037091941,0.02614317
0.315589507,0.396593744,0.037082106,0.026143942
0.315569927,0.396419361,0.03707228,0.026144746
0.315551848,0.396246903,0.037062463,0.026145581
0.315535267,0.396076364,0.037052655,0.026146446
0.315520183,0.395907737,0.037042857,0.026147341
0.31550659,0.395741015,0.037033066,0.026148265
0.315494485,0.39557619,0.037023285,0.026149217
0.315483863,0.395413255,0.037013511,0.026150195
0.31547472,0.395252201,0.037003745,0.026151199
0.315467049,0.395093018,0.036993987,0.026152228
0.315460847,0.394935698,0.036984238,0.02615328
0.315456106,0.394780229,0.036974496,0.026154354
0.315452822,0.394626601,0.036964762,0.026155449
0.315450988,0.394474803,0.036955036,0.026156563
0.315450599,0.394324826,0.036945317,0.026157694
0.31545165,0.394176657,0.036935607,0.026158843
0.315454135,0.394030287,0.036925904,0.026160009
0.315458049,0.393885703,0.036916211,0.02616119
0.31546339,0.393742893,0.036906526,0.026162386
0.315470152,0.393601846,0.036896851,0.026163597
0.31547833,0.39346255,0.036887186,0.026164822
0.31548792,0.393324991,0.036877532,0.026166061
0.315498916,0.393189155,0.036867888,0.026167313
0.315511314,0.393055031,0.036858255,0.026168576
0.315525109,0.392922605,0.036848634,0.026169851
0.315540295,0.392791864,0.036839024,0.026171136
0.315556868,0.392662796,0.036829426,0.026172431
0.31557482,0.392535391,0.03681984,0.026173734
0.315594148,0.392409638,0.036810266,0.026175046
0.315614843,0.392285527,0.036800704,0.026176365
0.3156369,0.392163049,0.036791156,0.02617769
0.315660312,0.39204219,0.03678162,0.026179021
0.315685073,0.39192294,0.036772099,0.026180357
0.315711177,0.391805286,0.036762591,0.026181696
0.315738616,0.391689215,0.036753096,0.026183039
0.315767382,0.391574715,0.036743617,0.026184384
0.315797468,0.391461774,0.036734151,0.026185732
0.315828866,0.39135038,0.036724701,0.026187081
0.315861567,0.391240523,0.036715265,0.026188431
0.315895562,0.391132192,0.036705845,0.026189783
0.315930844,0.391025377,0.03669644,0.026191135
0.315967404,0.390920067,0.036687049,0.026192489
0.316005235,0.390816253,0.036677674,0.026193842
0.316044329,0.390713925,0.036668314,0.026195196
0.316084677,0.390613074,0.036658969,0.026196549
0.316126273,0.390513693,0.036649639,0.026197901
0.316169108,0.390415773,0.036640324,0.026199252
0.316213175,0.390319306,0.036631026,0.026200602
0.31625847,0.390224285,0.036621743,0.026201949
0.316304986,0.390130703,0.036612476,0.026203295
0.316352718,0.390038553,0.036603224,0.026204638
0.316401663,0.389947826,0.036593989,0.026205977
0.316451816,0.389858515,0.036584768,0.026207313
0.316503171,0.389770612,0.036575563,0.026208645
0.316555724,0.389684106,0.036566374,0.026209972
0.316609467,0.389598991,0.036557199,0.026211293
0.316664396,0.389515257,0.036548038,0.026212609
0.316720502,0.389432894,0.036538892,0.026213919
0.31677778,0.389351895,0.036529759,0.026215221
0.316836221,0.38927225,0.036520639,0.026216516
0.316895817,0.38919395,0.036511532,0.026217803
0.316956562,0.389116989,0.036502438,0.026219081
0.317018449,0.38904136,0.036493357,0.026220351
0.317081471,0.388967057,0.036484289,0.026221611
0.31714562,0.388894075,0.036475234,0.026222862
0.317210892,0.388822412,0.036466193,0.026224103
0.317277279,0.388752063,0.036457165,0.026225335
0.317344777,0.388683028,0.036448152,0.026226557
0.317413378,0.388615302,0.036439152,0.026227769
0.317483078,0.388548882,0.036430166,0.026228971
0.317553867,0.388483765,0.036421194,0.026230164
0.31762574,0.388419946,0.036412236,0.026231346
0.317698689,0.38835742,0.036403291,0.026232518
0.317772704,0.38829618,0.03639436,0.026233679
0.317847777,0.388236222,0.036385442,0.026234829
0.3179239,0.38817754,0.036376536,0.026235967
0.318001062,0.388120125,0.036367643,0.026237094
0.318079254,0.388063972,0.036358762,0.026238208
0.318158466,0.388009073,0.036349893,0.026239309
0.318238688,0.387955419,0.036341037,0.026240397
0.318319909,0.387903002,0.036332194,0.026241471
0.318402119,0.387851814,0.036323363,0.026242531
0.318485306,0.387801846,0.036314546,0.026243576
0.31856946,0.38775309,0.036305743,0.026244606
0.31865457,0.387705538,0.036296953,0.026245621
0.318740627,0.38765918,0.036288179,0.026246621
0.31882762,0.387614009,0.03627942,0.026247606
0.318915542,0.387570016,0.036270676,0.026248576
0.319004384,0.387527191,0.036261949,0.026249532
0.319094141,0.387485526,0.036253239,0.026250474
0.319184806,0.38744501,0.036244545,0.026251402
0.319276373,0.387405635,0.036235869,0.026252316
0.319368837,0.387367391,0.036227211,0.026253217
0.319462191,0.387330272,0.03621857,0.026254104
0.319556429,0.387294268,0.036209947,0.026254979
0.319651545,0.387259373,0.036201342,0.026255839
0.319747532,0.387225577,0.036192753,0.026256686
0.319844383,0.387192871,0.036184182,0.02625752
0.319942092,0.387161247,0.036175627,0.02625834
0.32004065,0.387130696,0.036167089,0.026259145
0.32014005,0.387101209,0.036158566,0.026259935
0.320240284,0.387072777,0.036150059,0.026260711
0.320341343,0.38704539,0.036141566,0.02626147
0.320443217,0.387019039,0.036133087,0.026262214
0.320545897,0.386993714,0.03612462,0.026262941
0.320649372,0.386969406,0.036116165,0.02626365
0.320753633,0.386946106,0.03610772,0.026264342
0.320858668,0.386923806,0.036099286,0.026265016
0.320964468,0.3869025,0.03609086,0.026265672
0.321071022,0.386882181,0.036082444,0.026266309
0.32117832,0.386862846,0.036074036,0.026266926
0.321286353,0.386844487,0.036065638,0.026267524
0.32139511,0.386827101,0.036057248,0.026268102
0.321504583,0.38681068,0.036048867,0.02626866
0.321614763,0.386795218,0.036040495,0.026269196
0.321725642,0.386780709,0.036032132,0.026269712
0.321837215,0.386767145,0.036023777,0.026270207
0.321949477,0.386754521,0.036015432,0.02627068
0.322062427,0.38674283,0.036007096,0.026271132
0.322176068,0.386732069,0.035998771,0.02627156
0.322290402,0.386722234,0.035990456,0.026271966
0.322405434,0.38671332,0.035982153,0.026272349
0.32252117,0.386705323,0.035973861,0.026272708
0.322637614,0.386698238,0.035965581,0.026273042
0.322754772,0.386692059,0.035957313,0.026273352
0.322872647,0.386686779,0.035949058,0.026273637
0.322991245,0.386682392,0.035940815,0.026273895
0.323110568,0.386678889,0.035932587,0.026274127
0.323230619,0.386676263,0.035924372,0.026274332
0.323351401,0.386674505,0.035916171,0.026274508
0.323472916,0.386673605,0.035907984,0.026274655
0.323595167,0.386673555,0.035899811,0.026274773
0.323718154,0.386674344,0.035891653,0.026274859
0.323841879,0.386675962,0.035883508,0.026274915
0.323966344,0.386678398,0.035875377,0.026274939
0.324091551,0.386681644,0.035867259,0.02627493
0.324217502,0.386685689,0.035859155,0.026274887
0.324344198,0.386690523,0.035851063,0.02627481
0.32447164,0.386696137,0.035842984,0.026274698
0.324599829,0.386702521,0.035834917,0.026274549
0.324728765,0.386709666,0.035826864,0.026274364
0.324858446,0.386717561,0.035818824,0.02627414
0.324988871,0.386726197,0.035810797,0.026273878
0.325120039,0.386735565,0.035802784,0.026273577
0.325251947,0.386745655,0.035794785,0.026273235
0.325384592,0.386756455,0.0357868,0.026272852
0.32551797,0.386767954,0.035778829,0.026272427
0.32565208,0.38678014,0.035770873,0.026271959
0.325786915,0.386793003,0.035762931,0.026271447
0.325922473,0.386806529,0.035755003,0.02627089
0.326058747,0.386820706,0.03574709,0.026270287
0.326195733,0.386835521,0.035739191,0.026269637
0.326333424,0.386850962,0.035731306,0.02626894
0.326471813,0.386867016,0.035723434,0.026268193
0.326610893,0.386883672,0.035715575,0.026267396
0.326750657,0.386900916,0.03570773,0.026266547
0.326891098,0.386918738,0.035699897,0.026265646
0.327032206,0.386937126,0.035692077,0.026264692
0.327173975,0.386956071,0.03568427,0.026263683
0.327316396,0.386975561,0.035676476,0.026262619
0.327459461,0.386995587,0.035668695,0.026261498
0.327603163,0.387016137,0.035660928,0.02626032
0.327747494,0.387037201,0.035653173,0.026259084
0.327892445,0.387058767,0.035645431,0.026257789
0.328038012,0.387080824,0.035637702,0.026256435
0.328184188,0.387103363,0.035629987,0.02625502
0.328330969,0.387126371,0.035622284,0.026253543
0.328478349,0.387149839,0.035614594,0.026252004
0.328626324,0.387173756,0.035606917,0.026250402
0.328774889,0.387198113,0.035599251,0.026248736
0.328924038,0.3872229,0.035591598,0.026247005
0.329073763,0.387248107,0.035583955,0.026245207
0.32922406,0.387273726,0.035576324,0.026243343
0.32937492,0.387299748,0.035568703,0.02624141
0.329526336,0.387326164,0.035561092,0.026239409
0.3296783,0.387352964,0.035553492,0.026237338
0.329830805,0.38738014,0.035545901,0.026235196
0.32998384,0.387407682,0.03553832,0.026232983
0.330137397,0.387435579,0.035530749,0.026230696
0.330291467,0.387463823,0.035523188,0.026228337
0.330446043,0.387492402,0.035515637,0.026225903
0.330601113,0.387521307,0.035508095,0.026223394
0.330756671,0.387550528,0.035500563,0.026220808
0.330912706,0.387580055,0.03549304,0.026218146
0.331069209,0.387609876,0.035485526,0.026215405
0.331226171,0.387639982,0.035478021,0.026212586
0.331383583,0.387670362,0.035470524,0.026209688
0.331541438,0.387701006,0.035463035,0.02620671
0.331699728,0.387731905,0.035455554,0.026203651
0.331858447,0.38776305,0.035448079,0.026200513
0.332017589,0.387794432,0.035440611,0.026197293
0.332177146,0.387826046,0.035433148,0.026193992
0.332337109,0.387857885,0.035425692,0.026190609
0.332497471,0.38788994,0.035418243,0.026187145
0.332658223,0.387922204,0.035410801,0.026183599
0.332819355,0.38795467,0.035403367,0.026179971
0.332980856,0.387987329,0.035395941,0.026176261
0.333142717,0.388020171,0.035388523,0.02617247
0.333304927,0.388053188,0.035381114,0.026168595
0.333467473,0.388086369,0.035373713,0.026164638
0.333630346,0.388119703,0.035366319,0.026160599
0.333793533,0.388153181,0.035358934,0.026156476
0.333957023,0.38818679,0.035351555,0.026152269
0.334120806,0.388220521,0.035344184,0.026147979
0.33428487,0.388254364,0.035336818,0.026143605
0.334449204,0.388288308,0.035329458,0.026139148
0.334613797,0.388322347,0.035322104,0.026134606
0.334778637,0.388356472,0.035314755,0.026129981
0.334943713,0.388390679,0.035307412,0.026125272
0.335109015,0.38842496,0.035300075,0.026120479
0.33527453,0.388459313,0.035292743,0.026115602
0.33544025,0.388493732,0.035285417,0.026110642
0.335606166,0.388528215,0.035278097,0.026105598
0.33577227,0.388562761,0.035270782,0.02610047
0.335938553,0.388597366,0.035263472,0.02609526
0.336105009,0.388632029,0.035256167,0.026089966
0.336271631,0.388666748,0.035248866,0.026084591
0.336438413,0.388701518,0.03524157,0.026079132
0.336605349,0.388736338,0.035234276,0.026073592
0.336772433,0.388771203,0.035226986,0.026067971
0.336939662,0.388806108,0.035219698,0.026062267
0.337107029,0.388841049,0.035212411,0.026056483
0.33727453,0.38887602,0.035205126,0.026050618
0.337442157,0.388911015,0.035197842,0.026044672
0.337609906,0.388946027,0.035190557,0.026038646
0.337777768,0.388981049,0.035183272,0.026032539
0.337945738,0.389016074,0.035175987,0.026026354
0.338113806,0.389051095,0.0351687,0.026020088
0.338281965,0.389086104,0.035161412,0.026013743
0.338450206,0.389121093,0.035154122,0.026007318
0.338618519,0.389156055,0.035146831,0.026000813
0.338786896,0.389190982,0.035139538,0.025994229
0.338955327,0.389225866,0.035132244,0.025987566
0.339123803,0.389260701,0.035124947,0.025980823
0.339292313,0.389295478,0.035117648,0.025974
0.339460847,0.389330189,0.035110346,0.025967098
0.339629396,0.389364826,0.035103041,0.025960116
0.339797949,0.38939938,0.035095732,0.025953055
0.339966495,0.389433843,0.035088419,0.025945915
0.340135024,0.389468205,0.035081101,0.025938696
0.340303525,0.389502458,0.035073778,0.025931399
0.34047199,0.389536594,0.035066449,0.025924025
0.340640409,0.389570602,0.035059115,0.025916573
0.340808774,0.389604474,0.035051776,0.025909044
0.340977076,0.389638199,0.035044432,0.025901439
0.341145308,0.389671768,0.035037083,0.025893758
0.341313463,0.38970517,0.035029729,0.025886001
0.341481532,0.389738395,0.03502237,0.025878169
0.341649509,0.389771432,0.035015008,0.025870262
0.341817387,0.389804269,0.035007641,0.025862281
0.341985158,0.389836895,0.03500027,0.025854226
0.342152817,0.389869298,0.034992895,0.025846097
0.342320358,0.389901467,0.034985516,0.025837896
0.342487777,0.389933392,0.034978134,0.025829621
0.34265507,0.389965062,0.034970748,0.025821275
0.342822235,0.38999647,0.034963359,0.025812856
0.342989267,0.390027608,0.034955968,0.025804365
0.343156165,0.390058467,0.034948575,0.025795802
0.343322923,0.39008904,0.034941179,0.025787167
0.343489537,0.390119321,0.034933782,0.025778462
0.343656002,0.390149302,0.034926383,0.025769685
0.343822313,0.390178979,0.034918983,0.025760838
0.343988464,0.390208348,0.034911583,0.02575192
0.344154451,0.390237403,0.034904183,0.025742932
0.344320269,0.390266139,0.034896786,0.025733874
0.34448591,0.390294552,0.034889393,0.025724747
0.344651371,0.390322635,0.034882005,0.025715552
0.344816645,0.390350383,0.034874625,0.025706289
0.344981728,0.390377791,0.034867254,0.025696959
0.345146613,0.390404853,0.034859893,0.025687562
0.345311295,0.390431564,0.034852545,0.025678099
0.345475767,0.390457917,0.03484521,0.025668571
0.345640024,0.390483908,0.03483789,0.025658978
0.345804058,0.390509531,0.034830586,0.025649319
0.345967862,0.390534781,0.034823299,0.025639595
0.346131429,0.390559653,0.034816029,0.025629807
0.34629475,0.390584143,0.034808779,0.025619955
0.346457817,0.390608246,0.034801548,0.025610038
0.346620621,0.390631957,0.034794339,0.025600057
0.346783151,0.390655272,0.034787152,0.025590012
0.3469454,0.390678188,0.034779988,0.025579903
0.347107356,0.390700701,0.034772848,0.02556973
0.34726901,0.390722807,0.034765733,0.025559493
0.347430353,0.390744504,0.034758644,0.025549192
0.347591377,0.390765787,0.034751582,0.025538827
0.347752073,0.390786655,0.034744548,0.025528399
0.347912431,0.390807103,0.034737541,0.025517908
0.348072442,0.390827128,0.034730563,0.025507353
0.348232098,0.390846728,0.034723614,0.025496735
0.348391388,0.390865899,0.034716694,0.025486054
0.348550306,0.39088464,0.034709804,0.025475309
0.348708842,0.390902947,0.034702945,0.025464502
0.348866987,0.390920819,0.034696116,0.025453631
0.349024733,0.390938256,0.034689318,0.025442698
0.34918207,0.390955256,0.034682551,0.025431701
0.349338988,0.390971817,0.034675817,0.025420641
0.34949548,0.390987938,0.034669114,0.025409517
0.349651536,0.391003619,0.034662444,0.02539833
0.349807147,0.391018858,0.034655807,0.025387079
0.349962306,0.391033655,0.034649203,0.025375764
0.350117005,0.391048009,0.034642633,0.025364385
0.350271238,0.391061919,0.034636097,0.025352941
0.350424999,0.391075384,0.034629595,0.025341434
0.350578282,0.391088406,0.034623126,0.025329862
0.350731081,0.391100981,0.034616692,0.025318225
0.350883391,0.39111311,0.034610291,0.025306523
0.351035205,0.391124789,0.034603924,0.025294757
0.351186517,0.391136017,0.03459759,0.025282925
0.351337321,0.391146792,0.034591291,0.025271028
0.351487609,0.391157111,0.034585026,0.025259066
0.351637375,0.391166971,0.034578794,0.025247038
0.351786613,0.391176368,0.034572597,0.025234944
0.351935314,0.3911853,0.034566433,0.025222784
0.352083474,0.391193763,0.034560304,0.025210558
0.352231086,0.391201754,0.034554208,0.025198266
0.352378142,0.39120927,0.034548144,0.025185907
0.352524637,0.391216308,0.034542114,0.025173482
0.352670564,0.391222865,0.034536116,0.02516099
0.352815919,0.391228941,0.03453015,0.025148431
0.352960694,0.391234533,0.034524216,0.025135806
0.353104883,0.391239642,0.034518313,0.025123114
0.353248481,0.391244264,0.034512441,0.025110356
0.35339148,0.391248401,0.0345066,0.025097531
0.353533875,0.391252051,0.034500789,0.025084642
0.353675661,0.391255215,0.034495009,0.025071687
0.353816831,0.391257893,0.034489258,0.025058668
0.35395738,0.391260086,0.034483537,0.025045585
0.354097304,0.391261795,0.034477844,0.025032439
0.354236595,0.391263021,0.034472179,0.025019231
0.35437525,0.391263767,0.034466542,0.02500596
0.354513261,0.391264032,0.034460931,0.024992628
0.354650622,0.391263816,0.034455345,0.024979235
0.354787328,0.39126312,0.034449783,0.024965781
0.354923371,0.391261944,0.034444245,0.024952268
0.355058747,0.391260285,0.034438729,0.024938695
0.355193448,0.391258145,0.034433236,0.024925063
0.355327469,0.391255521,0.034427763,0.024911374
0.355460804,0.391252412,0.034422309,0.024897627
0.355593448,0.391248816,0.034416874,0.024883823
0.355725397,0.39124473,0.034411457,0.024869964
0.355856647,0.391240152,0.034406057,0.024856049
0.355987195,0.391235081,0.034400671,0.02484208
0.356117037,0.391229511,0.0343953,0.024828058
0.356246169,0.391223442,0.034389941,0.024813982
0.356374587,0.39121687,0.034384594,0.024799853
0.356502286,0.391209791,0.034379257,0.024785672
0.356629264,0.391202203,0.034373931,0.024771439
0.356755513,0.391194101,0.034368614,0.024757155
0.356881032,0.39118548,0.034363304,0.02474282
0.357005815,0.391176336,0.034358002,0.024728435
0.357129861,0.391166664,0.034352706,0.024714
0.357253165,0.39115646,0.034347415,0.024699516
0.357375728,0.391145719,0.034342128,0.024684982
0.357497548,0.391134435,0.034336844,0.0246704
0.357618625,0.391122605,0.034331563,0.024655769
0.357738961,0.391110222,0.034326282,0.024641092
0.357858556,0.391097283,0.034321001,0.024626367
0.357977412,0.391083782,0.034315719,0.024611595
0.358095531,0.391069715,0.034310434,0.024596776
0.358212915,0.39105508,0.034305144,0.024581912
0.358329567,0.391039872,0.034299849,0.024567001
0.35844549,0.391024088,0.034294547,0.024552045
0.358560686,0.391007727,0.034289239,0.024537042
0.358675156,0.390990783,0.034283922,0.024521995
0.358788903,0.390973254,0.034278598,0.024506902
0.358901928,0.390955136,0.034273265,0.024491763
0.359014231,0.390936425,0.034267923,0.024476579
0.359125814,0.390917117,0.034262573,0.02446135
0.359236678,0.390897208,0.034257214,0.024446075
0.359346822,0.390876693,0.034251845,0.024430756
0.359456249,0.390855569,0.034246467,0.024415393
0.359564958,0.390833829,0.034241078,0.024399985
0.35967295,0.390811471,0.034235679,0.024384534
0.359780226,0.390788488,0.034230268,0.02436904
0.359886787,0.390764877,0.034224845,0.024353504
0.359992631,0.390740632,0.034219409,0.024337926
0.360097759,0.390715749,0.034213959,0.024322307
0.360202169,0.390690223,0.034208494,0.024306646
0.360305861,0.390664048,0.034203012,0.024290946
0.360408833,0.390637218,0.034197513,0.024275205
0.360511083,0.390609728,0.034191995,0.024259426
0.360612609,0.390581571,0.034186457,0.024243606
0.360713408,0.390552742,0.034180898,0.024227748
0.360813479,0.390523234,0.034175315,0.024211851
0.360912816,0.390493041,0.034169708,0.024195915
0.361011417,0.390462157,0.034164076,0.024179941
0.361109278,0.390430577,0.034158417,0.024163928
0.361206393,0.390398295,0.03415273,0.024147877
0.361302759,0.390365307,0.034147015,0.024131789
0.36139837,0.390331609,0.034141271,0.024115664
0.361493221,0.390297196,0.034135496,0.024099503
0.36158731,0.390262067,0.034129691,0.024083305
0.361680631,0.390226217,0.034123854,0.024067072
0.361773181,0.390189644,0.034117985,0.024050803
0.361864956,0.390152347,0.034112082,0.024034499
0.361955951,0.390114324,0.034106146,0.02401816
0.362046164,0.390075575,0.034100175,0.024001789
0.36213559,0.390036101,0.03409417,0.023985384
0.362224225,0.389995902,0.034088129,0.023968947
0.362312066,0.389954977,0.034082053,0.02395248
0.36239911,0.389913329,0.034075939,0.023935983
0.362485355,0.389870959,0.034069789,0.023919456
0.362570796,0.389827866,0.0340636,0.023902901
0.362655431,0.389784054,0.034057373,0.023886318
0.362739255,0.38973952,0.034051106,0.023869707
0.362822266,0.389694266,0.034044799,0.02385307
0.362904459,0.389648291,0.03403845,0.023836406
0.36298583,0.389601593,0.034032059,0.023819717
0.363066375,0.389554171,0.034025626,0.023803001
0.363146089,0.389506024,0.034019149,0.023786261
0.363224967,0.38945715,0.034012628,0.023769496
0.363303007,0.38940755,0.034006063,0.023752706
0.363380203,0.389357224,0.033999453,0.023735892
0.363456552,0.389306173,0.033992798,0.023719055
0.36353205,0.389254402,0.033986098,0.023702194
0.363606693,0.389201914,0.033979352,0.023685311
0.363680477,0.389148716,0.033972561,0.023668406
0.363753403,0.389094815,0.033965723,0.023651479
0.363825469,0.389040218,0.033958838,0.023634532
0.363896676,0.388984931,0.033951907,0.023617563
0.363967024,0.388928961,0.033944928,0.023600574
0.364036514,0.388872313,0.033937902,0.023583564
0.36410515,0.388814993,0.033930829,0.023566534
0.364172933,0.38875701,0.033923709,0.023549485
0.36423987,0.388698371,0.033916541,0.023532417
0.364305965,0.388639086,0.033909326,0.023515329
0.364371226,0.388579162,0.033902063,0.023498223
0.364435659,0.388518611,0.033894751,0.023481099
0.364499272,0.38845744,0.03388739,0.023463957
0.364562071,0.38839566,0.03387998,0.023446798
0.364624066,0.388333279,0.03387252,0.023429621
0.364685265,0.388270306,0.033865009,0.023412427
0.364745675,0.388206749,0.033857446,0.023395216
0.364805307,0.388142617,0.033849831,0.023377987
0.364864168,0.388077922,0.033842162,0.023360742
0.364922267,0.388012674,0.033834438,0.023343479
0.364979614,0.387946886,0.033826658,0.023326199
0.365036218,0.387880569,0.033818821,0.023308901
0.365092091,0.387813734,0.033810926,0.023291586
0.365147241,0.387746393,0.033802971,0.023274255
0.365201679,0.387678556,0.033794957,0.023256906
0.365255413,0.387610233,0.033786882,0.02323954
0.365308454,0.387541434,0.033778747,0.023222157
0.365360812,0.387472169,0.03377055,0.023204757
0.365412498,0.38740245,0.033762293,0.02318734
0.365463523,0.387332287,0.033753975,0.023169906
0.365513899,0.387261692,0.033745597,0.023152455
0.365563637,0.387190678,0.033737157,0.023134987
0.365612748,0.387119256,0.033728657,0.023117502
0.365661246,0.387047438,0.033720095,0.0231
0.36570914,0.386975235,0.033711472,0.023082482
0.365756442,0.386902657,0.033702788,0.023064946
0.365803162,0.386829714,0.033694042,0.023047393
0.36584931,0.386756417,0.033685234,0.023029823
0.365894893,0.386682774,0.033676364,0.023012236
0.365939921,0.386608796,0.033667432,0.022994631
0.365984403,0.386534494,0.033658437,0.022977009
0.366028347,0.386459876,0.033649381,0.022959368
0.366071764,0.386384952,0.033640262,0.022941709
0.366114664,0.386309732,0.033631082,0.022924032
0.366157057,0.386234225,0.033621839,0.022906335
0.366198954,0.38615844,0.033612534,0.022888619
0.366240365,0.386082385,0.033603167,0.022870885
0.3662813,0.386006066,0.033593736,0.02285313
0.366321767,0.385929492,0.033584242,0.022835357
0.366361775,0.385852668,0.033574685,0.022817563
0.366401332,0.385775599,0.033565063,0.02279975
0.366440446,0.385698291,0.033555376,0.022781917
0.366479124,0.385620747,0.033545626,0.022764063
0.366517375,0.385542971,0.033535811,0.02274619
0.366555204,0.385464967,0.033525931,0.022728296
0.36659262,0.385386737,0.033515986,0.022710381
0.366629626,0.385308285,0.033505976,0.022692446
0.366666231,0.385229613,0.033495901,0.022674489
0.366702438,0.385150725,0.03348576,0.022656512
0.366738252,0.385071624,0.033475552,0.022638514
0.366773679,0.384992311,0.033465279,0.022620495
0.36680872,0.384912791,0.03345494,0.022602455
0.36684338,0.384833066,0.033444537,0.022584394
0.366877661,0.384753139,0.033434069,0.022566314
0.366911565,0.384673012,0.033423537,0.022548213
0.366945093,0.384592685,0.033412942,0.022530093
0.366978248,0.384512161,0.033402283,0.022511954
0.367011028,0.38443144,0.033391562,0.022493796
0.367043436,0.384350521,0.033380779,0.02247562
0.367075471,0.384269406,0.033369932,0.022457425
0.367107133,0.384188093,0.033359023,0.022439212
0.367138423,0.384106583,0.033348051,0.022420982
0.367169338,0.384024876,0.033337016,0.022402733
0.367199879,0.383942972,0.033325917,0.022384467
0.367230045,0.383860873,0.033314754,0.022366183
0.367259832,0.383778582,0.033303527,0.022347883
0.36728924,0.383696099,0.033292234,0.022329565
0.367318265,0.383613426,0.033280877,0.022311231
0.367346905,0.383530564,0.033269453,0.022292881
0.367375157,0.383447514,0.033257964,0.022274515
0.367403017,0.383364276,0.033246408,0.022256133
0.367430484,0.383280852,0.033234785,0.022237736
0.367457557,0.38319724,0.033223096,0.022219324
0.367484233,0.38311344,0.033211341,0.022200897
0.36751051,0.383029452,0.03319952,0.022182455
0.367536387,0.382945274,0.033187632,0.022163998
0.367561861,0.382860904,0.033175677,0.022145527
0.36758693,0.38277634,0.033163656,0.022127041
0.367611589,0.382691581,0.033151567,0.022108541
0.367635837,0.382606624,0.03313941,0.022090028
0.367659671,0.382521467,0.033127186,0.022071502
0.367683087,0.382436107,0.033114894,0.022052963
0.367706082,0.382350542,0.033102532,0.022034411
0.367728651,0.382264769,0.033090102,0.022015848
0.367750792,0.382178786,0.033077602,0.021997274
0.367772501,0.38209259,0.033065033,0.021978688
0.367793775,0.382006178,0.033052393,0.021960092
0.367814612,0.381919546,0.033039683,0.021941485
0.367835009,0.38183269,0.033026902,0.021922868
0.367854962,0.381745608,0.03301405,0.021904242
0.36787447,0.381658296,0.033001125,0.021885606
0.367893531,0.381570753,0.032988128,0.02186696
0.367912144,0.381482977,0.032975057,0.021848305
0.367930307,0.381394967,0.032961913,0.021829641
0.367948018,0.381306723,0.032948693,0.021810968
0.367965274,0.381218242,0.032935398,0.021792285
0.367982074,0.381129523,0.032922026,0.021773593
0.367998414,0.381040564,0.032908577,0.021754893
0.368014292,0.380951365,0.03289505,0.021736184
0.368029705,0.380861924,0.032881444,0.021717466
0.368044651,0.380772241,0.032867759,0.021698741
0.368059127,0.380682316,0.032853994,0.021680008
0.368073129,0.380592152,0.032840148,0.021661267
0.368086656,0.38050175,0.032826222,0.021642519
0.368099703,0.380411112,0.032812214,0.021623764
0.368112267,0.380320241,0.032798123,0.021605003
0.368124345,0.380229138,0.03278395,0.021586235
0.368135934,0.380137805,0.032769694,0.021567461
0.368147031,0.380046245,0.032755354,0.021548682
0.368157632,0.379954458,0.03274093,0.021529897
0.368167734,0.379862447,0.032726421,0.021511106
0.368177332,0.379770214,0.032711826,0.02149231
0.368186424,0.37967776,0.032697145,0.021473509
0.368195005,0.379585086,0.032682376,0.021454702
0.368203073,0.379492192,0.032667519,0.021435891
0.368210623,0.37939908,0.032652573,0.021417075
0.368217653,0.379305748,0.032637537,0.021398254
0.368224159,0.379212195,0.032622409,0.021379428
0.368230139,0.379118422,0.03260719,0.021360597
0.36823559,0.379024426,0.032591878,0.021341761
0.368240508,0.378930206,0.032576472,0.021322919
0.368244893,0.378835762,0.032560972,0.021304072
0.36824874,0.378741091,0.032545376,0.02128522
0.368252049,0.378646192,0.032529685,0.021266362
0.368254816,0.378551063,0.032513897,0.021247498
0.36825704,0.378455702,0.032498011,0.021228629
0.368258719,0.378360109,0.032482028,0.021209754
0.36825985,0.378264284,0.032465946,0.021190874
0.368260431,0.378168229,0.032449764,0.021171987
0.368260458,0.378071944,0.032433483,0.021153095
0.36825993,0.37797543,0.032417101,0.021134198
0.368258842,0.377878688,0.032400619,0.021115295
0.368257192,0.377781718,0.032384036,0.021096388
0.368254976,0.37768452,0.032367352,0.021077475
0.368252193,0.377587093,0.032350566,0.021058558
0.368248838,0.377489438,0.032333677,0.021039636
0.368244911,0.377391553,0.032316685,0.021020711
0.368240409,0.377293438,0.03229959,0.021001781
0.368235332,0.377195093,0.03228239,0.020982847
0.368229676,0.377096516,0.032265085,0.020963909
0.368223441,0.376997709,0.032247675,0.020944967
0.368216623,0.376898669,0.032230161,0.020926021
0.36820922,0.376799396,0.032212541,0.020907071
0.36820123,0.37669989,0.032194815,0.020888117
0.36819265,0.37660015,0.032176984,0.020869159
0.368183476,0.376500178,0.032159046,0.020850196
0.368173705,0.376399973,0.032141001,0.020831229
0.368163332,0.376299538,0.03212285,0.020812257
0.368152352,0.376198873,0.03210459,0.02079328
0.36814076,0.376097978,0.032086223,0.020774299
0.36812855,0.375996854,0.032067748,0.020755313
0.368115717,0.3758955,0.032049165,0.020736322
0.368102255,0.375793915,0.032030473,0.020717327
0.368088157,0.375692098,0.032011672,0.020698328
0.368073417,0.37559005,0.031992763,0.020679326
0.368058029,0.375487767,0.031973743,0.020660319
0.368041985,0.37538525,0.031954615,0.020641308
0.368025279,0.375282495,0.031935377,0.020622294
0.368007904,0.375179501,0.031916029,0.020603276
0.367989853,0.375076265,0.031896572,0.020584254
0.367971121,0.374972785,0.031877006,0.020565228
0.367951703,0.374869059,0.031857332,0.020546199
0.367931595,0.374765084,0.03183755,0.020527166
0.367910793,0.374660858,0.03181766,0.02050813
0.367889293,0.37455638,0.031797664,0.020489091
0.367867093,0.374451647,0.031777561,0.02047005
0.367844188,0.374346657,0.031757351,0.020451007
0.367820575,0.374241408,0.031737035,0.020431961
0.36779625,0.374135897,0.031716614,0.020412914
0.367771209,0.374030122,0.031696086,0.020393865
0.367745447,0.373924079,0.031675452,0.020374814
0.367718961,0.373817767,0.031654713,0.020355761
0.367691744,0.373711182,0.031633867,0.020336707
0.367663793,0.373604321,0.031612915,0.02031765
0.367635103,0.373497182,0.031591857,0.020298592
0.367605669,0.373389761,0.031570693,0.020279532
0.367575487,0.373282054,0.031549421,0.020260469
0.367544555,0.373174058,0.031528043,0.020241405
0.367512867,0.373065769,0.031506558,0.020222339
0.367480421,0.372957185,0.031484965,0.020203271
0.367447213,0.372848301,0.031463263,0.020184201
0.367413236,0.372739117,0.031441453,0.020165129
0.367378488,0.372629632,0.031419533,0.020146055
0.367342962,0.372519847,0.031397504,0.020126979
0.367306655,0.372409765,0.031375366,0.020107901
0.367269561,0.372299388,0.03135312,0.020088821
0.367231675,0.37218872,0.031330764,0.02006974
0.367192994,0.372077767,0.031308301,0.020050658
0.367153514,0.371966536,0.031285729,0.020031576
0.367113232,0.371855036,0.03126305,0.020012493
0.367072144,0.371743277,0.031240264,0.019993409
0.367030249,0.371631268,0.031217372,0.019974327
0.366987544,0.37151902,0.031194373,0.019955245
0.366944028,0.371406544,0.031171267,0.019936165
0.3668997,0.371293851,0.031148057,0.019917088
0.366854559,0.371180954,0.03112474,0.019898015
0.366808606,0.371067867,0.031101319,0.019878947
0.366761839,0.370954605,0.031077792,0.019859885
0.366714261,0.370841183,0.031054161,0.01984083
0.366665872,0.370727616,0.031030425,0.019821782
0.366616675,0.37061392,0.031006585,0.019802745
0.366566673,0.37050011,0.030982641,0.019783717
0.366515875,0.370386202,0.030958594,0.019764702
0.366464286,0.370272211,0.030934443,0.0197457
0.366411914,0.370158152,0.030910189,0.019726712
0.366358766,0.370044039,0.030885832,0.019707739
0.366304851,0.369929889,0.030861372,0.019688785
0.366250174,0.369815717,0.03083681,0.019669848
0.366194744,0.369701539,0.030812146,0.019650933
0.366138567,0.369587373,0.030787382,0.019632039
0.366081651,0.369473235,0.030762517,0.019613169
0.366024004,0.369359142,0.030737552,0.019594324
0.365965633,0.369245113,0.03071249,0.019575507
0.365906548,0.369131164,0.030687329,0.019556719
0.365846755,0.369017312,0.030662072,0.019537962
0.365786263,0.368903574,0.030636719,0.019519238
0.365725079,0.368789966,0.03061127,0.01950055
0.365663211,0.368676504,0.030585727,0.019481897
0.365600665,0.368563202,0.030560091,0.019463283
0.36553745,0.368450075,0.03053436,0.019444709
0.365473571,0.368337136,0.030508538,0.019426176
0.365409037,0.368224398,0.030482622,0.019407685
0.365343852,0.368111873,0.030456616,0.019389238
0.365278024,0.367999575,0.030430518,0.019370837
0.365211558,0.367887515,0.030404329,0.019352482
0.365144463,0.367775706,0.03037805,0.019334176
0.365076744,0.36766416,0.030351682,0.01931592
0.365008408,0.367552889,0.030325225,0.019297714
0.364939461,0.367441908,0.030298681,0.019279561
0.364869909,0.367331228,0.030272049,0.019261461
0.364799759,0.367220865,0.030245332,0.019243415
0.364729016,0.367110834,0.030218531,0.019225426
0.364657687,0.36700115,0.030191647,0.019207494
0.36458578,0.366891829,0.030164681,0.019189621
0.364513301,0.366782885,0.030137636,0.019171809
0.364440261,0.366674334,0.030110512,0.01915406
0.364366666,0.366566188,0.030083311,0.019136375
0.364292526,0.366458459,0.030056033,0.019118754
0.364217847,0.366351162,0.030028681,0.019101201
0.364142639,0.366244306,0.030001255,0.019083716
0.364066909,0.366137904,0.029973756,0.0190663
0.363990665,0.366031969,0.029946186,0.019048955
0.363913915,0.365926512,0.029918546,0.019031683
0.363836666,0.365821545,0.029890837,0.019014484
0.363758923,0.36571708,0.02986306,0.01899736
0.363680694,0.36561313,0.029835217,0.018980314
0.363601984,0.365509706,0.029807309,0.018963346
0.363522799,0.365406818,0.029779338,0.018946457
0.363443144,0.365304478,0.029751305,0.01892965
0.363363025,0.365202696,0.02972321,0.018912926
0.363282448,0.365101485,0.029695056,0.018896286
0.363201419,0.365000854,0.029666844,0.018879732
0.363119943,0.364900817,0.029638574,0.018863265
0.363038024,0.364801383,0.029610249,0.018846887
0.362955669,0.364702567,0.02958187,0.018830599
0.362872882,0.36460438,0.029553437,0.018814404
0.362789666,0.364506834,0.029524952,0.018798301
0.362706025,0.364409941,0.029496416,0.018782294
0.362621964,0.364313713,0.029467831,0.018766383
0.362537489,0.36421816,0.029439199,0.01875057
0.362452605,0.364123292,0.029410519,0.018734856
0.362367319,0.364029122,0.029381793,0.018719242
0.362281639,0.363935659,0.029353023,0.01870373
0.362195569,0.363842914,0.029324209,0.018688321
0.362109118,0.363750901,0.029295352,0.018673016
0.36202229,0.363659632,0.029266454,0.018657815
0.361935093,0.363569122,0.029237515,0.018642721
0.361847535,0.363479384,0.029208538,0.018627733
0.361759622,0.363390435,0.029179522,0.018612855
0.361671363,0.36330229,0.029150469,0.018598087
0.361582767,0.363214965,0.02912138,0.018583431
0.361493842,0.363128475,0.029092257,0.018568889
0.361404596,0.363042837,0.029063099,0.018554464
0.361315038,0.362958066,0.02903391,0.018540156
0.361225178,0.362874175,0.029004689,0.018525967
0.361135024,0.36279118,0.028975438,0.018511899
0.361044585,0.362709092,0.02894616,0.018497954
0.360953872,0.362627924,0.028916856,0.018484133
0.360862894,0.362547688,0.028887526,0.018470437
0.360771659,0.362468395,0.028858172,0.018456869
0.360680178,0.362390056,0.028828797,0.018443428
0.360588459,0.362312683,0.0287994,0.018430117
0.36049651,0.362236284,0.028769983,0.018416936
0.360404341,0.362160873,0.028740549,0.018403886
0.36031196,0.362086458,0.028711099,0.01839097
0.360219376,0.36201305,0.028681635,0.018378187
0.360126597,0.361940659,0.028652158,0.01836554
0.360033633,0.361869293,0.028622671,0.01835303
0.359940492,0.36179896,0.028593175,0.018340657
0.359847181,0.361729669,0.028563672,0.018328425
0.35975371,0.361661426,0.028534163,0.018316333
0.359660085,0.361594237,0.02850465,0.018304384
0.359566315,0.361528108,0.028475136,0.018292579
0.359472408,0.361463042,0.028445621,0.018280919
0.359378372,0.361399046,0.028416106,0.018269405
0.359284214,0.361336123,0.028386593,0.018258039
0.359189943,0.361274277,0.028357084,0.018246822
0.359095567,0.361213514,0.028327579,0.018235756
0.359001093,0.361153838,0.028298079,0.018224841
0.358906531,0.361095253,0.028268586,0.018214079
0.358811888,0.361037767,0.028239102,0.018203471
0.358717173,0.360981385,0.028209628,0.018193019
0.358622392,0.360926116,0.028180168,0.018182722
0.358527552,0.360871964,0.028150722,0.018172582
0.358432661,0.360818939,0.028121293,0.0181626
0.358337726,0.360767046,0.028091884,0.018152777
0.358242752,0.360716293,0.028062494,0.018143113
0.358147746,0.360666691,0.028033127,0.018133609
0.358052714,0.360618248,0.028003784,0.018124266
0.357957662,0.360570975,0.027974465,0.018115085
0.357862597,0.360524881,0.027945174,0.018106067
0.357767525,0.360479974,0.02791591,0.018097212
0.357672453,0.360436263,0.027886675,0.01808852
0.357577387,0.360393755,0.027857471,0.018079994
0.357482333,0.360352457,0.027828299,0.018071633
0.357387298,0.360312375,0.027799159,0.018063439
0.357292285,0.360273516,0.027770053,0.018055412
0.357197302,0.360235885,0.027740983,0.018047552
0.357102352,0.360199486,0.027711949,0.01803986
0.357007442,0.360164323,0.027682953,0.018032337
0.356912575,0.360130398,0.027653996,0.018024982
0.356817758,0.360097714,0.02762508,0.018017797
0.356722997,0.360066274,0.027596207,0.018010781
0.356628297,0.360036078,0.027567377,0.018003935
0.356533667,0.360007126,0.027538594,0.01799726
0.356439112,0.35997942,0.027509856,0.017990756
0.356344642,0.35995296,0.027481168,0.017984423
0.356250262,0.35992775,0.027452529,0.017978261
0.356155983,0.359903792,0.027423941,0.017972272
0.356061811,0.359881091,0.027395407,0.017966454
0.355967755,0.359859648,0.027366926,0.017960809
0.355873822,0.359839467,0.0273385,0.017955337
0.355780019,0.35982055,0.027310132,0.017950037
0.355686354,0.359802898,0.027281821,0.017944909
0.355592832,0.359786515,0.027253569,0.017939953
0.355499458,0.359771403,0.027225379,0.017935171
0.355406239,0.359757565,0.027197251,0.017930561
0.35531318,0.359745001,0.027169186,0.017926124
