epoch,time,train/box_loss,train/cls_loss,train/dfl_loss,metrics/precision(B),metrics/recall(B),metrics/mAP50(B),metrics/mAP50-95(B),val/box_loss,val/cls_loss,val/dfl_loss,lr/pg0,lr/pg1,lr/pg2
1,67.652,0.62373,1.57278,0.93484,0.69753,0.86144,0.83875,0.76861,0.416,0.9942,0.83571,0.00332927,0.00332927,0.00332927
2,132.582,0.56619,1.00558,0.90381,0.69735,0.84138,0.81796,0.76038,0.37856,0.98931,0.83189,0.00659665,0.00659665,0.00659665
3,197.56,0.609,0.90821,0.9272,0.69127,0.86121,0.83722,0.75389,0.46581,0.82,0.86074,0.00979802,0.00979802,0.00979802
4,261.656,0.61242,0.83187,0.93794,0.7972,0.84228,0.87813,0.80476,0.43596,0.7132,0.86536,0.009703,0.009703,0.009703
5,325.323,0.56738,0.7331,0.92408,0.79609,0.88957,0.90943,0.82984,0.4415,0.62394,0.86413,0.009604,0.009604,0.009604
6,386.776,0.53707,0.66654,0.91635,0.65277,0.89741,0.84945,0.77125,0.45991,0.84965,0.87035,0.009505,0.009505,0.009505
7,449.96,0.51555,0.63125,0.90895,0.78193,0.91259,0.92155,0.85232,0.42394,0.5937,0.86787,0.009406,0.009406,0.009406
8,512.383,0.49762,0.59527,0.90726,0.844,0.87247,0.92748,0.87652,0.36288,0.56105,0.84138,0.009307,0.009307,0.009307
9,575.867,0.4865,0.56831,0.90302,0.8863,0.91689,0.96398,0.89006,0.41842,0.4797,0.86286,0.009208,0.009208,0.009208
10,639.96,0.47375,0.55244,0.89951,0.91261,0.92977,0.96814,0.91701,0.36763,0.417,0.84635,0.009109,0.009109,0.009109
11,703.891,0.46091,0.52756,0.89304,0.93214,0.93398,0.98024,0.93483,0.35069,0.37421,0.84021,0.00901,0.00901,0.00901
12,766.516,0.45441,0.51154,0.89359,0.82793,0.92414,0.94202,0.87715,0.41921,0.49273,0.86985,0.008911,0.008911,0.008911
13,829.133,0.45002,0.49683,0.89352,0.94032,0.9466,0.98059,0.93888,0.3426,0.35878,0.83889,0.008812,0.008812,0.008812
14,891.456,0.43825,0.48783,0.89007,0.91126,0.94633,0.97618,0.93731,0.34299,0.36985,0.83714,0.008713,0.008713,0.008713
15,953.24,0.43671,0.47566,0.88813,0.92213,0.91876,0.97245,0.92923,0.34621,0.40565,0.84303,0.008614,0.008614,0.008614
16,1015.96,0.42758,0.46378,0.8861,0.89587,0.93234,0.96949,0.93129,0.33756,0.41333,0.83958,0.008515,0.008515,0.008515
17,1079.18,0.42671,0.46145,0.88622,0.90378,0.91601,0.97526,0.93422,0.33507,0.45072,0.83653,0.008416,0.008416,0.008416
18,1142.62,0.42012,0.4449,0.88357,0.94445,0.963,0.98474,0.94534,0.32719,0.30937,0.83257,0.008317,0.008317,0.008317
19,1205.23,0.41645,0.43889,0.88331,0.93834,0.9417,0.98165,0.94675,0.32622,0.35338,0.83214,0.008218,0.008218,0.008218
20,1268.14,0.41489,0.43777,0.88312,0.94295,0.94936,0.98617,0.95086,0.32705,0.31284,0.83874,0.008119,0.008119,0.008119
21,1332.25,0.40604,0.4226,0.8801,0.9348,0.95869,0.98749,0.94953,0.33136,0.32629,0.83601,0.00802,0.00802,0.00802
22,1394.96,0.40707,0.4262,0.8833,0.92493,0.91257,0.97974,0.94223,0.32604,0.39987,0.8375,0.007921,0.007921,0.007921
23,1457.62,0.4002,0.41367,0.8785,0.96758,0.96552,0.99067,0.95648,0.32306,0.29505,0.83257,0.007822,0.007822,0.007822
24,1519.37,0.3988,0.40857,0.87892,0.94709,0.95474,0.98743,0.94925,0.32489,0.3154,0.83777,0.007723,0.007723,0.007723
25,1582.82,0.39581,0.40656,0.87669,0.9712,0.96934,0.99145,0.95598,0.31849,0.27007,0.83106,0.007624,0.007624,0.007624
26,1644.69,0.39055,0.39237,0.8768,0.94837,0.9394,0.98118,0.9461,0.32239,0.32463,0.83864,0.007525,0.007525,0.007525
27,1707.26,0.39067,0.39039,0.87617,0.96262,0.97214,0.99133,0.95549,0.32374,0.26999,0.83696,0.007426,0.007426,0.007426
28,1769.33,0.38759,0.38796,0.87559,0.952,0.96595,0.98929,0.9563,0.31481,0.28033,0.83973,0.007327,0.007327,0.007327
29,1832.03,0.38445,0.38217,0.87432,0.94388,0.96041,0.98518,0.95,0.3166,0.30811,0.83917,0.007228,0.007228,0.007228
30,1894.33,0.38351,0.37803,0.87334,0.95298,0.96476,0.98985,0.95697,0.31323,0.28817,0.8269,0.007129,0.007129,0.007129
31,1956.31,0.38128,0.37523,0.87305,0.97065,0.97795,0.99093,0.95823,0.31681,0.26508,0.83794,0.00703,0.00703,0.00703
32,2018.02,0.37459,0.3673,0.87026,0.96482,0.95784,0.99286,0.96239,0.3077,0.25011,0.82992,0.006931,0.006931,0.006931
33,2080.05,0.3742,0.36609,0.87175,0.95631,0.96218,0.99051,0.96042,0.30774,0.27838,0.82905,0.006832,0.006832,0.006832
34,2143.83,0.37313,0.35949,0.87108,0.95428,0.98142,0.9913,0.96029,0.30821,0.24661,0.83107,0.006733,0.006733,0.006733
35,2207.59,0.37096,0.35535,0.86876,0.95445,0.97172,0.98869,0.95675,0.30462,0.25744,0.82865,0.006634,0.006634,0.006634
36,2271.93,0.37084,0.35446,0.87188,0.96794,0.97523,0.99274,0.96137,0.31802,0.25785,0.83952,0.006535,0.006535,0.006535
37,2335.72,0.36995,0.35542,0.87003,0.97805,0.96209,0.99318,0.96399,0.31259,0.24505,0.83053,0.006436,0.006436,0.006436
38,2399.93,0.3694,0.35377,0.86988,0.96547,0.97309,0.99277,0.96242,0.30747,0.23912,0.82991,0.006337,0.006337,0.006337
39,2462.45,0.36391,0.34496,0.86903,0.98826,0.96856,0.99367,0.96593,0.3009,0.22383,0.83553,0.006238,0.006238,0.006238
40,2525.34,0.36225,0.34025,0.86752,0.98098,0.9624,0.99302,0.96466,0.30057,0.22906,0.83048,0.006139,0.006139,0.006139
41,2588.01,0.3594,0.33673,0.8661,0.97311,0.96464,0.99194,0.9626,0.30037,0.23903,0.827,0.00604,0.00604,0.00604
42,2650.79,0.35891,0.33743,0.86862,0.98623,0.97682,0.99406,0.96542,0.30325,0.21074,0.83273,0.005941,0.005941,0.005941
43,2713.44,0.35574,0.32853,0.86352,0.97636,0.97328,0.99342,0.96384,0.30032,0.23017,0.82879,0.005842,0.005842,0.005842
44,2776.54,0.35479,0.32906,0.86471,0.98041,0.97312,0.99362,0.96501,0.29462,0.22179,0.82764,0.005743,0.005743,0.005743
45,2839.75,0.351,0.32316,0.86401,0.98256,0.9806,0.9936,0.96596,0.29988,0.22503,0.83161,0.005644,0.005644,0.005644
46,2902.55,0.35281,0.32128,0.86476,0.98548,0.98672,0.99414,0.96444,0.30739,0.21014,0.82794,0.005545,0.005545,0.005545
47,2964.79,0.35135,0.32054,0.86329,0.98581,0.98349,0.99409,0.96597,0.29849,0.20757,0.82625,0.005446,0.005446,0.005446
48,3027.72,0.34771,0.31812,0.86186,0.98178,0.98621,0.99384,0.96663,0.29589,0.20952,0.83201,0.005347,0.005347,0.005347
49,3090.85,0.35038,0.31615,0.86429,0.98464,0.98562,0.99442,0.96908,0.29455,0.20084,0.82571,0.005248,0.005248,0.005248
50,3154.41,0.34906,0.31521,0.86341,0.98295,0.99321,0.99468,0.96853,0.29431,0.19193,0.82588,0.005149,0.005149,0.005149
51,3217.8,0.34299,0.31358,0.86109,0.97403,0.98517,0.99373,0.96549,0.2943,0.20803,0.82528,0.00505,0.00505,0.00505
52,3280.35,0.34085,0.30814,0.86025,0.98466,0.98793,0.99446,0.96737,0.29408,0.20046,0.829,0.004951,0.004951,0.004951
53,3343.62,0.34085,0.30982,0.86015,0.97605,0.99331,0.99438,0.96687,0.29041,0.19277,0.82415,0.004852,0.004852,0.004852
54,3406.02,0.33641,0.30633,0.86022,0.98138,0.98621,0.99408,0.96485,0.29284,0.20116,0.82696,0.004753,0.004753,0.004753
55,3467.89,0.33721,0.30025,0.85964,0.98191,0.9892,0.99417,0.96837,0.29205,0.20317,0.82452,0.004654,0.004654,0.004654
56,3530.69,0.33504,0.29653,0.85847,0.99264,0.98671,0.99443,0.96886,0.29056,0.19592,0.8284,0.004555,0.004555,0.004555
57,3592.84,0.33579,0.29709,0.86036,0.98278,0.98402,0.99435,0.9687,0.29083,0.19531,0.8252,0.004456,0.004456,0.004456
58,3655.5,0.33223,0.29487,0.85651,0.97808,0.98621,0.99385,0.96774,0.28872,0.19929,0.82392,0.004357,0.004357,0.004357
59,3717.66,0.33008,0.28973,0.85574,0.98419,0.98534,0.99405,0.9677,0.28768,0.20122,0.82149,0.004258,0.004258,0.004258
60,3779.35,0.33055,0.28824,0.85524,0.99052,0.98317,0.99465,0.96793,0.2884,0.18693,0.82523,0.004159,0.004159,0.004159
61,3842.31,0.33219,0.28781,0.85865,0.98417,0.98793,0.99303,0.96546,0.28838,0.18817,0.82467,0.00406,0.00406,0.00406
62,3904.81,0.32803,0.28558,0.85581,0.98874,0.98926,0.99479,0.96971,0.28834,0.18354,0.82608,0.003961,0.003961,0.003961
63,3968.51,0.32509,0.28347,0.85541,0.99138,0.98879,0.99452,0.96894,0.28521,0.17857,0.82349,0.003862,0.003862,0.003862
64,4031.71,0.3258,0.28537,0.85694,0.98629,0.98879,0.99425,0.96968,0.2879,0.18219,0.8221,0.003763,0.003763,0.003763
65,4094.7,0.32505,0.27867,0.85589,0.98627,0.98927,0.99453,0.9698,0.28666,0.1847,0.82252,0.003664,0.003664,0.003664
66,4158.54,0.32461,0.28164,0.85539,0.98454,0.9874,0.9946,0.96989,0.28906,0.18502,0.8278,0.003565,0.003565,0.003565
67,4220.36,0.32125,0.27829,0.85465,0.99305,0.9845,0.9946,0.96978,0.28588,0.18019,0.8251,0.003466,0.003466,0.003466
68,4283.14,0.32155,0.27336,0.85567,0.9885,0.97844,0.99403,0.97054,0.28661,0.18781,0.82866,0.003367,0.003367,0.003367
69,4346.11,0.31687,0.2693,0.85014,0.99221,0.98268,0.99468,0.96951,0.28464,0.17455,0.82271,0.003268,0.003268,0.003268
70,4407.34,0.31811,0.2695,0.85307,0.99034,0.99224,0.9943,0.96982,0.28372,0.17307,0.82467,0.003169,0.003169,0.003169
71,4469.99,0.31347,0.26681,0.85169,0.9864,0.99245,0.99473,0.97113,0.28133,0.16857,0.82207,0.00307,0.00307,0.00307
72,4532.25,0.31466,0.26463,0.85205,0.98712,0.98895,0.99474,0.9708,0.28127,0.16855,0.82117,0.002971,0.002971,0.002971
73,4594.93,0.31235,0.26251,0.85126,0.99185,0.99275,0.99487,0.97088,0.28341,0.16459,0.82181,0.002872,0.002872,0.002872
74,4657.84,0.31138,0.26052,0.85073,0.98889,0.99146,0.99479,0.97,0.28329,0.1665,0.82703,0.002773,0.002773,0.002773
75,4720.08,0.30973,0.25845,0.85112,0.99129,0.99138,0.99484,0.9706,0.28312,0.16648,0.82978,0.002674,0.002674,0.002674
76,4782.48,0.30806,0.25845,0.84974,0.99187,0.9931,0.9949,0.97105,0.28107,0.16195,0.82201,0.002575,0.002575,0.002575
77,4844.25,0.30681,0.25467,0.84997,0.99353,0.98965,0.99392,0.96924,0.28156,0.16285,0.82027,0.002476,0.002476,0.002476
78,4906.51,0.30313,0.25249,0.84787,0.99463,0.99395,0.99358,0.97041,0.2801,0.15897,0.82022,0.002377,0.002377,0.002377
79,4968.33,0.30319,0.25107,0.84756,0.99469,0.98707,0.99458,0.97247,0.28288,0.16515,0.82204,0.002278,0.002278,0.002278
80,5031.96,0.30213,0.24666,0.84728,0.99392,0.99209,0.99494,0.97329,0.2817,0.16476,0.823,0.002179,0.002179,0.002179
81,5093.42,0.29982,0.24606,0.84681,0.99484,0.99169,0.99494,0.97322,0.28168,0.15967,0.82265,0.00208,0.00208,0.00208
82,5157.17,0.30018,0.24653,0.84766,0.98736,0.99138,0.99485,0.97276,0.28189,0.16154,0.82201,0.001981,0.001981,0.001981
83,5227.77,0.29779,0.24213,0.84534,0.98882,0.99138,0.99457,0.97205,0.28172,0.15873,0.82223,0.001882,0.001882,0.001882
84,5297.7,0.29647,0.23942,0.84477,0.99012,0.99066,0.99455,0.97184,0.27985,0.1559,0.82113,0.001783,0.001783,0.001783
85,5367.22,0.29797,0.24237,0.84623,0.99348,0.991,0.99483,0.97276,0.27784,0.15519,0.82043,0.001684,0.001684,0.001684
86,5437.86,0.29146,0.23377,0.84355,0.99189,0.99483,0.99452,0.97313,0.27782,0.15242,0.82088,0.001585,0.001585,0.001585
87,5502.11,0.29249,0.23183,0.84459,0.99283,0.99293,0.99487,0.97401,0.27827,0.15282,0.82139,0.001486,0.001486,0.001486
88,5564.71,0.29064,0.23366,0.84426,0.993,0.99509,0.99442,0.97368,0.27749,0.14945,0.8209,0.001387,0.001387,0.001387
89,5626.81,0.28768,0.23191,0.84268,0.99148,0.99228,0.99453,0.9731,0.2772,0.15185,0.8204,0.001288,0.001288,0.001288
90,5688.93,0.28898,0.23145,0.8436,0.99166,0.99569,0.9948,0.97247,0.27798,0.15242,0.82079,0.001189,0.001189,0.001189
91,5751.08,0.20104,0.14067,0.78267,0.99103,0.99483,0.99489,0.97273,0.27843,0.15133,0.82257,0.00109,0.00109,0.00109
92,5812.35,0.20107,0.13964,0.78467,0.99565,0.98699,0.99484,0.9724,0.27748,0.15375,0.82162,0.000991,0.000991,0.000991
93,5873.76,0.19638,0.13362,0.78148,0.98924,0.99397,0.99486,0.97241,0.27725,0.15469,0.82122,0.000892,0.000892,0.000892
94,5935.44,0.19579,0.13278,0.7817,0.99165,0.99476,0.99486,0.97327,0.27799,0.1531,0.82031,0.000793,0.000793,0.000793
95,5996.62,0.19427,0.13072,0.78231,0.99324,0.99052,0.99487,0.97323,0.27708,0.15259,0.82135,0.000694,0.000694,0.000694
96,6058.1,0.19234,0.1301,0.78097,0.99395,0.99178,0.9949,0.97315,0.27728,0.15088,0.81976,0.000595,0.000595,0.000595
97,6120.25,0.1917,0.129,0.7804,0.99582,0.99264,0.99493,0.97384,0.27654,0.14963,0.82018,0.000496,0.000496,0.000496
98,6183.25,0.18906,0.12633,0.78281,0.99504,0.99281,0.99494,0.97389,0.27549,0.14923,0.81997,0.000397,0.000397,0.000397
99,6246.17,0.18739,0.12459,0.78137,0.9943,0.99128,0.99495,0.97316,0.275,0.14947,0.82148,0.000298,0.000298,0.000298
100,6309.32,0.18615,0.12314,0.78052,0.99413,0.98966,0.99491,0.97421,0.27463,0.15019,0.82236,0.000199,0.000199,0.000199
